timestamp,bandpass_and_notch
2025-03-27 13:28:34.111,-0.3173554561887837
2025-03-27 13:28:34.667,-7.916393651105395
2025-03-27 13:28:34.667,-5.4965784320969995
2025-03-27 13:28:34.667,1.3189605620122005
2025-03-27 13:28:34.667,-1.9749564191342235
2025-03-27 13:28:34.676,-15.802605589884216
2025-03-27 13:28:34.676,-19.24595906832452
2025-03-27 13:28:34.677,4.141924192149866
2025-03-27 13:28:34.677,36.94030345218697
2025-03-27 13:28:34.677,39.91468617087032
2025-03-27 13:28:34.684,-0.20455580671947704
2025-03-27 13:28:34.685,-47.18928986405093
2025-03-27 13:28:34.685,-51.91725735291615
2025-03-27 13:28:34.685,-7.940805724087373
2025-03-27 13:28:34.693,41.182363509235955
2025-03-27 13:28:34.693,50.14045857235006
2025-03-27 13:28:34.693,17.45345655324111
2025-03-27 13:28:34.693,-20.450113174518314
2025-03-27 13:28:34.693,-31.781361187621894
2025-03-27 13:28:34.702,-17.268236707426876
2025-03-27 13:28:34.703,1.2837249789823075
2025-03-27 13:28:34.703,9.035725767945223
2025-03-27 13:28:34.703,8.671123519089528
2025-03-27 13:28:34.712,8.225475894561995
2025-03-27 13:28:34.712,7.997958323690301
2025-03-27 13:28:34.712,2.9393934371964723
2025-03-27 13:28:34.713,-6.83989300370094
2025-03-27 13:28:34.713,-13.85299672014202
2025-03-27 13:28:34.722,-11.812549322183337
2025-03-27 13:28:34.722,-2.666431333170112
2025-03-27 13:28:34.723,6.559146945947544
2025-03-27 13:28:34.723,11.249436998281304
2025-03-27 13:28:34.723,10.982368808514446
2025-03-27 13:28:34.731,6.0118856293165175
2025-03-27 13:28:34.731,-3.346339356464819
2025-03-27 13:28:34.731,-12.99452412926795
2025-03-27 13:28:34.731,-15.090480888227603
2025-03-27 13:28:34.731,-5.672921518673682
2025-03-27 13:28:34.740,8.834226356066052
2025-03-27 13:28:34.741,16.182836555217722
2025-03-27 13:28:34.741,10.368290251167469
2025-03-27 13:28:34.741,-2.4138884573478863
2025-03-27 13:28:34.750,-10.578286118608363
2025-03-27 13:28:34.751,-8.62910037524098
2025-03-27 13:28:34.751,-0.9590413821969843
2025-03-27 13:28:34.751,4.4564968055118115
2025-03-27 13:28:34.751,4.109851873769513
2025-03-27 13:28:34.760,0.6475936613208566
2025-03-27 13:28:34.761,-1.520649437196385
2025-03-27 13:28:34.761,-0.7870252227338375
2025-03-27 13:28:34.761,1.0310022994956332
2025-03-27 13:28:34.761,1.3581118411222581
2025-03-27 13:28:34.770,-0.3434119050571694
2025-03-27 13:28:34.771,-2.1899259260117696
2025-03-27 13:28:34.771,-2.038761742667207
2025-03-27 13:28:34.771,0.14836359524969395
2025-03-27 13:28:34.771,2.311982720140817
2025-03-27 13:28:34.780,2.500553642812008
2025-03-27 13:28:34.780,0.6155213963045492
2025-03-27 13:28:34.781,-1.902588890250002
2025-03-27 13:28:34.781,-3.328730447010423
2025-03-27 13:28:34.781,-2.4679151281004152
2025-03-27 13:28:34.790,0.6808785205980685
2025-03-27 13:28:34.790,4.230749926287362
2025-03-27 13:28:34.791,5.106721654572491
2025-03-27 13:28:34.791,1.7645690192946668
2025-03-27 13:28:34.791,-3.616716467486952
2025-03-27 13:28:34.800,-6.567439487081731
2025-03-27 13:28:34.801,-4.488366908344267
2025-03-27 13:28:34.801,0.8914788535254234
2025-03-27 13:28:34.801,5.319062199363928
2025-03-27 13:28:34.801,5.7971348585649976
2025-03-27 13:28:34.810,2.5146975907838782
2025-03-27 13:28:34.810,-1.999181734175957
2025-03-27 13:28:34.810,-4.807410425464713
2025-03-27 13:28:34.811,-4.245966022912581
2025-03-27 13:28:34.811,-0.9473861582410288
2025-03-27 13:28:34.820,2.4860748621895836
2025-03-27 13:28:34.820,3.501301276569773
2025-03-27 13:28:34.821,1.775293434853465
2025-03-27 13:28:34.821,-0.6941247472999001
2025-03-27 13:28:34.821,-1.716209393016671
2025-03-27 13:28:34.829,-0.9367687725383366
2025-03-27 13:28:34.829,0.24113723010974458
2025-03-27 13:28:34.829,0.43816101415476916
2025-03-27 13:28:34.829,-0.23278585563046134
2025-03-27 13:28:34.829,-0.476450453102608
2025-03-27 13:28:34.839,0.43102348198435647
2025-03-27 13:28:34.839,1.3768690676931026
2025-03-27 13:28:34.839,0.5099206845017794
2025-03-27 13:28:34.839,-1.9969170523790298
2025-03-27 13:28:34.839,-3.127680864360042
2025-03-27 13:28:34.849,-0.37951895804058916
2025-03-27 13:28:34.849,4.216221658689543
2025-03-27 13:28:34.849,5.359997204013985
2025-03-27 13:28:34.849,0.7708454139650873
2025-03-27 13:28:34.849,-5.3050656911076635
2025-03-27 13:28:34.859,-6.555613836998518
2025-03-27 13:28:34.859,-1.8073405898265502
2025-03-27 13:28:34.859,3.9840146515519956
2025-03-27 13:28:34.859,5.613249596058302
2025-03-27 13:28:34.859,2.663592069307944
2025-03-27 13:28:34.869,-1.4203863424655614
2025-03-27 13:28:34.869,-3.359707603276213
2025-03-27 13:28:34.869,-2.350991106774125
2025-03-27 13:28:34.869,0.12743318596476466
2025-03-27 13:28:34.878,1.6393013387078512
2025-03-27 13:28:34.879,0.7801938403564657
2025-03-27 13:28:34.879,-1.205307145930384
2025-03-27 13:28:34.879,-1.4777164172334822
2025-03-27 13:28:34.879,0.9188197457263281
2025-03-27 13:28:34.888,3.3625318473104486
2025-03-27 13:28:34.889,2.4956103039879927
2025-03-27 13:28:34.889,-1.5627481287312792
2025-03-27 13:28:34.889,-4.854151213338555
2025-03-27 13:28:34.889,-3.675326427559846
2025-03-27 13:28:34.898,1.3229709359164663
2025-03-27 13:28:34.899,5.382805818289632
2025-03-27 13:28:34.899,4.277519498232234
2025-03-27 13:28:34.899,-1.0831919894159103
2025-03-27 13:28:34.899,-5.2418025921508535
2025-03-27 13:28:34.909,-4.064147711582384
2025-03-27 13:28:34.909,0.6756351307565551
2025-03-27 13:28:34.909,3.793887059824538
2025-03-27 13:28:34.909,3.014209062684011
2025-03-27 13:28:34.909,0.6963866201546701
2025-03-27 13:28:34.918,-0.5530651259944314
2025-03-27 13:28:34.918,-1.1823436241240255
2025-03-27 13:28:34.919,-2.4028807328729638
2025-03-27 13:28:34.919,-3.017228574957456
2025-03-27 13:28:34.919,-0.9912823799219508
2025-03-27 13:28:34.928,2.7330333380870027
2025-03-27 13:28:34.928,4.488950597084754
2025-03-27 13:28:34.929,2.357039300203033
2025-03-27 13:28:34.929,-1.325828035288814
2025-03-27 13:28:34.929,-2.9043567754154465
2025-03-27 13:28:34.938,-1.7718742567178838
2025-03-27 13:28:34.939,-0.3959877583339381
2025-03-27 13:28:34.939,-0.3988927147411364
2025-03-27 13:28:34.939,-0.4690519882647492
2025-03-27 13:28:34.939,1.0418953290709885
2025-03-27 13:28:34.948,2.962989640404492
2025-03-27 13:28:34.948,2.5461534102458754
2025-03-27 13:28:34.949,-0.5234691510892207
2025-03-27 13:28:34.949,-3.216255218955247
2025-03-27 13:28:34.949,-2.828851176782039
2025-03-27 13:28:34.958,-0.2286456886042014
2025-03-27 13:28:34.958,1.593772408778793
2025-03-27 13:28:34.959,1.3664190533989036
2025-03-27 13:28:34.959,0.5104844019548702
2025-03-27 13:28:34.959,0.4072012959369789
2025-03-27 13:28:34.968,0.3508368813553233
2025-03-27 13:28:34.968,-0.7651772547641672
2025-03-27 13:28:34.969,-1.8920316781402062
2025-03-27 13:28:34.969,-0.9060078170952653
2025-03-27 13:28:34.969,1.7871605025978698
2025-03-27 13:28:34.978,2.8484845260240363
2025-03-27 13:28:34.978,0.3162527010710442
2025-03-27 13:28:34.978,-3.2283708887301588
2025-03-27 13:28:34.979,-3.501660737838944
2025-03-27 13:28:34.979,0.17506588492546651
2025-03-27 13:28:34.987,3.991647345375217
2025-03-27 13:28:34.987,3.975310873276279
2025-03-27 13:28:34.987,0.12498311033421403
2025-03-27 13:28:34.987,-3.808152211483901
2025-03-27 13:28:34.987,-4.051592833001748
2025-03-27 13:28:34.997,-0.4416606128448948
2025-03-27 13:28:34.997,3.3222579864895625
2025-03-27 13:28:34.997,3.3901703248096267
2025-03-27 13:28:34.997,-0.07282440834553316
2025-03-27 13:28:34.997,-3.072391672660442
2025-03-27 13:28:35.007,-2.3802194164283996
2025-03-27 13:28:35.007,0.9504191404631462
2025-03-27 13:28:35.007,3.1586995558517543
2025-03-27 13:28:35.007,1.9920829343682718
2025-03-27 13:28:35.007,-1.3062592213874786
2025-03-27 13:28:35.017,-3.5217618982725063
2025-03-27 13:28:35.017,-2.397777272646249
2025-03-27 13:28:35.017,1.279346644595379
2025-03-27 13:28:35.017,4.007628883871051
2025-03-27 13:28:35.026,2.7578797588718142
2025-03-27 13:28:35.027,-1.5245982329510777
2025-03-27 13:28:35.027,-4.3636831353986985
2025-03-27 13:28:35.027,-2.5483518174890447
2025-03-27 13:28:35.027,2.048774245775767
2025-03-27 13:28:35.036,4.427181729045438
2025-03-27 13:28:35.036,2.0621746331426194
2025-03-27 13:28:35.037,-2.378929577302805
2025-03-27 13:28:35.037,-4.1557101495004405
2025-03-27 13:28:35.037,-1.6229101983684977
2025-03-27 13:28:35.046,2.268991117165847
2025-03-27 13:28:35.046,3.4572359757239095
2025-03-27 13:28:35.047,1.1321924985228837
2025-03-27 13:28:35.047,-1.7920835680523866
2025-03-27 13:28:35.047,-2.2916480413003764
2025-03-27 13:28:35.056,-0.490796668050417
2025-03-27 13:28:35.056,1.1064194911421696
2025-03-27 13:28:35.057,0.937206678336492
2025-03-27 13:28:35.057,-0.09901654344421473
2025-03-27 13:28:35.057,-0.38879797794162907
2025-03-27 13:28:35.066,0.19953234524102445
2025-03-27 13:28:35.066,0.4923281377951826
2025-03-27 13:28:35.067,-0.14582477362299967
2025-03-27 13:28:35.067,-0.9482251424823386
2025-03-27 13:28:35.067,-0.8156666231592198
2025-03-27 13:28:35.076,0.26892903120931055
2025-03-27 13:28:35.076,1.2563747890453358
2025-03-27 13:28:35.077,1.2397237563089285
2025-03-27 13:28:35.077,0.24764546201056417
2025-03-27 13:28:35.077,-1.0325276433305137
2025-03-27 13:28:35.086,-1.7853274182140582
2025-03-27 13:28:35.086,-1.3490524433935114
2025-03-27 13:28:35.087,0.29686711762612683
2025-03-27 13:28:35.087,2.047327475502726
2025-03-27 13:28:35.087,2.336523129588626
2025-03-27 13:28:35.095,0.7653036386201484
2025-03-27 13:28:35.095,-1.3378263128752848
2025-03-27 13:28:35.095,-2.313261000670375
2025-03-27 13:28:35.095,-1.7209222551438315
2025-03-27 13:28:35.106,-0.27644886816481296
2025-03-27 13:28:35.106,1.1233026402199133
2025-03-27 13:28:35.106,1.8359297151592544
2025-03-27 13:28:35.107,1.5315279760013485
2025-03-27 13:28:35.107,0.5033345551864047
2025-03-27 13:28:35.107,-0.46424771314407526
2025-03-27 13:28:35.114,-1.0881098394959055
2025-03-27 13:28:35.115,-1.8166327973084606
2025-03-27 13:28:35.115,-2.3614724901847857
2025-03-27 13:28:35.115,-1.0821131223032576
2025-03-27 13:28:35.124,2.5380328237123853
2025-03-27 13:28:35.125,5.4951463748256035
2025-03-27 13:28:35.125,3.7390503868202454
2025-03-27 13:28:35.125,-2.4049382945537428
2025-03-27 13:28:35.125,-7.263906762165341
2025-03-27 13:28:35.134,-5.631791236155943
2025-03-27 13:28:35.135,1.321980765972657
2025-03-27 13:28:35.135,7.0619815884942
2025-03-27 13:28:35.135,6.302020708859591
2025-03-27 13:28:35.135,0.033561523493699785
2025-03-27 13:28:35.145,-5.75372528696873
2025-03-27 13:28:35.145,-5.920154206297795
2025-03-27 13:28:35.145,-0.887198439666151
2025-03-27 13:28:35.145,4.19935372309188
2025-03-27 13:28:35.145,4.83914158785599
2025-03-27 13:28:35.154,1.3671183405668956
2025-03-27 13:28:35.154,-2.3124538778076054
2025-03-27 13:28:35.155,-3.300952438513453
2025-03-27 13:28:35.155,-1.977754772660115
2025-03-27 13:28:35.155,-0.14414675472279354
2025-03-27 13:28:35.164,1.394535437434573
2025-03-27 13:28:35.165,2.5771323525842704
2025-03-27 13:28:35.165,2.6272334897611653
2025-03-27 13:28:35.165,0.5845709636468589
2025-03-27 13:28:35.165,-2.583832584448668
2025-03-27 13:28:35.174,-3.952145073823646
2025-03-27 13:28:35.175,-1.8309968469462528
2025-03-27 13:28:35.175,1.7796460373314769
2025-03-27 13:28:35.175,3.282490071624031
2025-03-27 13:28:35.175,1.7326148637023966
2025-03-27 13:28:35.184,-0.4737138683066198
2025-03-27 13:28:35.184,-1.164264688835811
2025-03-27 13:28:35.185,-0.8298370307973728
2025-03-27 13:28:35.185,-0.782426762637724
2025-03-27 13:28:35.185,-0.704945214879241
2025-03-27 13:28:35.194,0.3120048286982887
2025-03-27 13:28:35.194,1.4538920577104273
2025-03-27 13:28:35.195,1.0347750746537907
2025-03-27 13:28:35.195,-0.6266473584799587
2025-03-27 13:28:35.195,-1.2782046476040445
2025-03-27 13:28:35.203,-0.053339480180995075
2025-03-27 13:28:35.203,1.159391408043572
2025-03-27 13:28:35.203,0.5542584022922944
2025-03-27 13:28:35.203,-0.9476001371793422
2025-03-27 13:28:35.203,-1.2197073185874603
2025-03-27 13:28:35.213,-0.02198768203613674
2025-03-27 13:28:35.213,0.9854848501458473
2025-03-27 13:28:35.213,0.7969050697470287
2025-03-27 13:28:35.213,0.08140471898266965
2025-03-27 13:28:35.213,-0.29281616042820874
2025-03-27 13:28:35.223,-0.3485658736515189
2025-03-27 13:28:35.223,-0.31497014705281234
2025-03-27 13:28:35.223,-0.05660401328508084
2025-03-27 13:28:35.223,0.27680079482728326
2025-03-27 13:28:35.233,0.06239451865225472
2025-03-27 13:28:35.233,-0.6144072713625942
2025-03-27 13:28:35.233,-0.5405813441726365
2025-03-27 13:28:35.233,0.8182097240252125
2025-03-27 13:28:35.233,1.8431835324531014
2025-03-27 13:28:35.242,0.605385752800053
2025-03-27 13:28:35.243,-1.9677637180654006
2025-03-27 13:28:35.243,-2.546638595754615
2025-03-27 13:28:35.243,0.1722425075991071
2025-03-27 13:28:35.243,2.9978481608964658
2025-03-27 13:28:35.252,1.9757637479198185
2025-03-27 13:28:35.253,-2.0317299409265623
2025-03-27 13:28:35.253,-3.7969157515252805
2025-03-27 13:28:35.253,-0.42196148436198266
2025-03-27 13:28:35.253,4.419728865536959
2025-03-27 13:28:35.262,4.664713292196946
2025-03-27 13:28:35.263,-0.6761740801082619
2025-03-27 13:28:35.263,-6.1348496126209575
2025-03-27 13:28:35.263,-5.901782497806421
2025-03-27 13:28:35.263,0.015344205641992015
2025-03-27 13:28:35.272,6.109309571436411
2025-03-27 13:28:35.272,6.970643269736947
2025-03-27 13:28:35.273,2.115528414898365
2025-03-27 13:28:35.273,-4.139606195230951
2025-03-27 13:28:35.273,-6.82650693921245
2025-03-27 13:28:35.282,-4.312081163798305
2025-03-27 13:28:35.283,1.0591318559737866
2025-03-27 13:28:35.283,5.299138625816128
2025-03-27 13:28:35.283,5.565000927608864
2025-03-27 13:28:35.283,1.7352799734972604
2025-03-27 13:28:35.292,-3.436153866485957
2025-03-27 13:28:35.293,-5.82393251998359
2025-03-27 13:28:35.293,-3.112646252130708
2025-03-27 13:28:35.293,2.5091491866226336
2025-03-27 13:28:35.293,5.6030818189535765
2025-03-27 13:28:35.302,2.808241756817991
2025-03-27 13:28:35.303,-3.035186315287719
2025-03-27 13:28:35.303,-5.386941000535538
2025-03-27 13:28:35.303,-1.3589526803026344
2025-03-27 13:28:35.303,4.483583660028106
2025-03-27 13:28:35.312,5.135390173881398
2025-03-27 13:28:35.312,-0.41464456925958365
2025-03-27 13:28:35.313,-5.7101644230863124
2025-03-27 13:28:35.313,-4.496230641174624
2025-03-27 13:28:35.313,1.8275136311625029
2025-03-27 13:28:35.322,6.027877932316372
2025-03-27 13:28:35.323,3.5333570420904294
2025-03-27 13:28:35.323,-2.660932008280121
2025-03-27 13:28:35.323,-5.76132625354328
2025-03-27 13:28:35.323,-2.6259574413674263
2025-03-27 13:28:35.332,3.1976142866767394
2025-03-27 13:28:35.332,5.478984748056732
2025-03-27 13:28:35.333,1.8791258206573522
2025-03-27 13:28:35.333,-3.6571462319223995
2025-03-27 13:28:35.333,-5.19649951527391
2025-03-27 13:28:35.342,-1.2620991624821245
2025-03-27 13:28:35.342,3.719351981756222
2025-03-27 13:28:35.343,4.576290302115544
2025-03-27 13:28:35.343,1.0035172887596486
2025-03-27 13:28:35.343,-2.830006006697515
2025-03-27 13:28:35.352,-3.4752946770916866
2025-03-27 13:28:35.352,-1.4330855165329246
2025-03-27 13:28:35.353,0.8185004808784468
2025-03-27 13:28:35.353,2.1314768893219638
2025-03-27 13:28:35.353,2.6826518446111054
2025-03-27 13:28:35.361,1.910747824175316
2025-03-27 13:28:35.361,-1.0686757617302565
2025-03-27 13:28:35.361,-4.596414000282859
2025-03-27 13:28:35.361,-4.505379521389295
2025-03-27 13:28:35.361,0.8218566372827502
2025-03-27 13:28:35.371,6.6381747026705495
2025-03-27 13:28:35.371,6.042603103666582
2025-03-27 13:28:35.371,-1.4366308016450577
2025-03-27 13:28:35.371,-8.003632243104205
2025-03-27 13:28:35.381,-6.166894260629001
2025-03-27 13:28:35.381,2.26881658269591
2025-03-27 13:28:35.381,8.072035748885504
2025-03-27 13:28:35.381,5.190756097209651
2025-03-27 13:28:35.381,-2.6744188379828224
2025-03-27 13:28:35.391,-6.855762745779086
2025-03-27 13:28:35.391,-3.5106631181279573
2025-03-27 13:28:35.391,2.840351858781431
2025-03-27 13:28:35.391,5.086700120875203
2025-03-27 13:28:35.391,1.3839895212646425
2025-03-27 13:28:35.401,-3.4114909974430914
2025-03-27 13:28:35.401,-3.652691900519199
2025-03-27 13:28:35.401,0.7254076086429585
2025-03-27 13:28:35.401,4.395611427163725
2025-03-27 13:28:35.401,2.9293075884360653
2025-03-27 13:28:35.410,-2.142390910137831
2025-03-27 13:28:35.411,-5.180796252778633
2025-03-27 13:28:35.411,-2.791241451488593
2025-03-27 13:28:35.411,2.57211179774863
2025-03-27 13:28:35.411,5.401457683803929
2025-03-27 13:28:35.420,2.9218599760525326
2025-03-27 13:28:35.421,-2.245547309632477
2025-03-27 13:28:35.421,-4.996633642229832
2025-03-27 13:28:35.421,-2.9664871952798846
2025-03-27 13:28:35.421,1.38072687560666
2025-03-27 13:28:35.430,3.7756472206114804
2025-03-27 13:28:35.431,2.645578159839265
2025-03-27 13:28:35.431,-0.0027831027845274803
2025-03-27 13:28:35.431,-1.6921261493651454
2025-03-27 13:28:35.431,-2.004659679163054
2025-03-27 13:28:35.440,-1.6050558522279235
2025-03-27 13:28:35.441,-0.4400903175767592
2025-03-27 13:28:35.441,1.493829197088845
2025-03-27 13:28:35.441,2.614882336271384
2025-03-27 13:28:35.441,1.2088890221929074
2025-03-27 13:28:35.450,-1.5852874616731596
2025-03-27 13:28:35.451,-2.378778740609282
2025-03-27 13:28:35.451,0.033458826788942214
2025-03-27 13:28:35.451,2.511793308806153
2025-03-27 13:28:35.451,1.3729034673605993
2025-03-27 13:28:35.460,-2.472927670226043
2025-03-27 13:28:35.461,-4.087662324979635
2025-03-27 13:28:35.461,-0.6334377788521381
2025-03-27 13:28:35.461,4.546448676699102
2025-03-27 13:28:35.461,5.4186492862517825
2025-03-27 13:28:35.470,0.4709154223269336
2025-03-27 13:28:35.471,-5.163857260225446
2025-03-27 13:28:35.471,-5.477031095706102
2025-03-27 13:28:35.471,-0.3947713385453512
2025-03-27 13:28:35.471,4.411131191493737
2025-03-27 13:28:35.480,4.142610255352744
2025-03-27 13:28:35.480,-0.07831045204632109
2025-03-27 13:28:35.481,-3.1896093570212143
2025-03-27 13:28:35.481,-2.162085073840358
2025-03-27 13:28:35.481,1.0404479797930941
2025-03-27 13:28:35.489,2.302160709090715
2025-03-27 13:28:35.489,0.2549184151215289
2025-03-27 13:28:35.489,-2.2931524041269777
2025-03-27 13:28:35.489,-1.8576657029398038
2025-03-27 13:28:35.490,1.3341699279860402
2025-03-27 13:28:35.499,3.360958812809881
2025-03-27 13:28:35.499,1.3882063685216637
2025-03-27 13:28:35.499,-2.518431409431793
2025-03-27 13:28:35.499,-3.6625384542381485
2025-03-27 13:28:35.508,-0.5607962492706482
2025-03-27 13:28:35.509,3.1075920308384597
2025-03-27 13:28:35.509,3.063657256532395
2025-03-27 13:28:35.509,-0.3772455535095771
2025-03-27 13:28:35.509,-3.016178554884065
2025-03-27 13:28:35.518,-2.049623733770056
2025-03-27 13:28:35.519,0.9523014703483008
2025-03-27 13:28:35.519,2.5046417221414
2025-03-27 13:28:35.519,1.2705877922681965
2025-03-27 13:28:35.519,-1.05161961023278
2025-03-27 13:28:35.528,-2.051634651141978
2025-03-27 13:28:35.529,-0.9736372218490211
2025-03-27 13:28:35.529,0.9047896737989187
2025-03-27 13:28:35.529,1.696470044039062
2025-03-27 13:28:35.529,0.7998429848987185
2025-03-27 13:28:35.538,-0.5381476679810194
2025-03-27 13:28:35.539,-0.8258859783748225
2025-03-27 13:28:35.539,-0.2511602157502792
2025-03-27 13:28:35.539,-0.1842126021356955
2025-03-27 13:28:35.539,-0.8245645833767425
2025-03-27 13:28:35.548,-0.6667443781686877
2025-03-27 13:28:35.549,1.0210783552316212
2025-03-27 13:28:35.549,2.4420184440986024
2025-03-27 13:28:35.549,1.4131450302170585
2025-03-27 13:28:35.549,-1.3579696098030594
2025-03-27 13:28:35.558,-2.8294064357944246
2025-03-27 13:28:35.558,-1.5136411282677633
2025-03-27 13:28:35.559,0.7810300914248011
2025-03-27 13:28:35.559,1.6222465181844798
2025-03-27 13:28:35.559,0.9281435450681882
2025-03-27 13:28:35.568,0.26642785892369564
2025-03-27 13:28:35.569,0.261392953578945
2025-03-27 13:28:35.569,0.12199812214519941
2025-03-27 13:28:35.569,-0.6245445808993517
2025-03-27 13:28:35.569,-1.2978930382008176
2025-03-27 13:28:35.578,-1.1618094988432277
2025-03-27 13:28:35.579,-0.3648288311528208
2025-03-27 13:28:35.579,0.5901900656088829
2025-03-27 13:28:35.579,1.5089561405003868
2025-03-27 13:28:35.579,2.067988904915153
2025-03-27 13:28:35.588,1.396617597440962
2025-03-27 13:28:35.588,-0.8928903957886476
2025-03-27 13:28:35.589,-3.335117331338018
2025-03-27 13:28:35.589,-3.3568633174682323
2025-03-27 13:28:35.589,-0.1328049300170108
2025-03-27 13:28:35.597,3.7333253205445724
2025-03-27 13:28:35.597,4.354323232673542
2025-03-27 13:28:35.597,0.7432872499000132
2025-03-27 13:28:35.597,-3.6758904855310828
2025-03-27 13:28:35.597,-4.386314489317659
2025-03-27 13:28:35.608,-0.6258559613587348
2025-03-27 13:28:35.608,3.612618384849826
2025-03-27 13:28:35.609,3.8293396791389616
2025-03-27 13:28:35.609,-0.00919154828330615
2025-03-27 13:28:35.609,-3.458377248584203
2025-03-27 13:28:35.617,-2.7553380572461106
2025-03-27 13:28:35.617,0.8440821713993122
2025-03-27 13:28:35.617,2.8297941585490753
2025-03-27 13:28:35.617,1.1331168406633696
2025-03-27 13:28:35.617,-1.5172172207482089
2025-03-27 13:28:35.627,-1.5672481039925772
2025-03-27 13:28:35.627,0.5820127584418007
2025-03-27 13:28:35.627,1.5494943899906184
2025-03-27 13:28:35.627,0.01389620277527992
2025-03-27 13:28:35.627,-1.5897584986614166
2025-03-27 13:28:35.637,-0.8743354301579706
2025-03-27 13:28:35.637,1.1257025607284887
2025-03-27 13:28:35.637,1.6981150575314468
2025-03-27 13:28:35.637,0.1890510429525706
2025-03-27 13:28:35.647,-1.5110872854335509
2025-03-27 13:28:35.647,-1.538751372150429
2025-03-27 13:28:35.647,0.06186345127411172
2025-03-27 13:28:35.647,1.6535155421527137
2025-03-27 13:28:35.647,1.5093503975584905
2025-03-27 13:28:35.648,-0.4930475480950749
2025-03-27 13:28:35.657,-2.2725843867155104
2025-03-27 13:28:35.657,-1.4767405233320456
2025-03-27 13:28:35.657,1.4913273893416423
2025-03-27 13:28:35.657,3.3640042254854414
2025-03-27 13:28:35.657,1.7012562189484133
2025-03-27 13:28:35.667,-2.064719261892077
2025-03-27 13:28:35.667,-4.137257460687407
2025-03-27 13:28:35.667,-2.500548428131263
2025-03-27 13:28:35.667,1.1768902430203532
2025-03-27 13:28:35.676,3.602751446898088
2025-03-27 13:28:35.677,3.1248664399897903
2025-03-27 13:28:35.677,0.7373603533244112
2025-03-27 13:28:35.677,-1.583506010525351
2025-03-27 13:28:35.677,-2.693889401134393
2025-03-27 13:28:35.687,-2.3319420906280146
2025-03-27 13:28:35.687,-0.5168916521850623
2025-03-27 13:28:35.687,1.9279940259720911
2025-03-27 13:28:35.687,2.893579349096505
2025-03-27 13:28:35.687,0.8548396981246091
2025-03-27 13:28:35.696,-2.4639103149183814
2025-03-27 13:28:35.697,-3.0662636369973044
2025-03-27 13:28:35.697,0.5112731662271816
2025-03-27 13:28:35.697,4.542427647506885
2025-03-27 13:28:35.697,3.906629318128456
2025-03-27 13:28:35.706,-1.6488294835206876
2025-03-27 13:28:35.707,-6.51138308545431
2025-03-27 13:28:35.707,-5.174524226110912
2025-03-27 13:28:35.707,1.442023575647887
2025-03-27 13:28:35.707,6.640904617956352
2025-03-27 13:28:35.716,5.205329572956061
2025-03-27 13:28:35.716,-0.7605607856037151
2025-03-27 13:28:35.717,-4.414225267764703
2025-03-27 13:28:35.717,-2.5162466339352805
2025-03-27 13:28:35.717,0.8122963569543952
2025-03-27 13:28:35.726,0.21998448537368748
2025-03-27 13:28:35.727,-2.8420093299795854
2025-03-27 13:28:35.727,-1.868560816050254
2025-03-27 13:28:35.727,4.635108481827565
2025-03-27 13:28:35.727,9.03521381760946
2025-03-27 13:28:35.736,3.7145880471809876
2025-03-27 13:28:35.736,-7.817910827915188
2025-03-27 13:28:35.737,-13.293642361623794
2025-03-27 13:28:35.737,-5.8156586005023785
2025-03-27 13:28:35.737,7.566519029334708
2025-03-27 13:28:35.745,13.492201400024545
2025-03-27 13:28:35.745,6.891321885927297
2025-03-27 13:28:35.745,-4.4432364797544235
2025-03-27 13:28:35.745,-9.463375760470747
2025-03-27 13:28:35.754,-5.485941353409536
2025-03-27 13:28:35.755,0.9572890049258096
2025-03-27 13:28:35.755,3.1403302384115093
2025-03-27 13:28:35.755,1.3847439468316927
2025-03-27 13:28:35.755,0.583870744643418
2025-03-27 13:28:35.765,2.4922363612402076
2025-03-27 13:28:35.765,3.3516418202637066
2025-03-27 13:28:35.765,-0.11019490505966052
2025-03-27 13:28:35.765,-4.9436959704024135
2025-03-27 13:28:35.765,-5.204782837476224
2025-03-27 13:28:35.775,-0.25890484324183954
2025-03-27 13:28:35.775,3.7367427979178234
2025-03-27 13:28:35.775,2.1164616892411803
2025-03-27 13:28:35.775,-1.595883685366571
2025-03-27 13:28:35.775,-0.6871088883392094
2025-03-27 13:28:35.784,4.426258211736963
2025-03-27 13:28:35.785,5.586867998402098
2025-03-27 13:28:35.785,-1.779689908779791
2025-03-27 13:28:35.785,-10.57991874204883
2025-03-27 13:28:35.785,-9.48272724651878
2025-03-27 13:28:35.793,2.48758079107895
2025-03-27 13:28:35.793,13.174526736861935
2025-03-27 13:28:35.793,10.905922490448626
2025-03-27 13:28:35.793,-1.8741459851106985
2025-03-27 13:28:35.793,-11.555149895542455
2025-03-27 13:28:35.803,-8.933552506254419
2025-03-27 13:28:35.803,1.3667573377681133
2025-03-27 13:28:35.803,7.6343321280093654
2025-03-27 13:28:35.803,4.461948832393964
2025-03-27 13:28:35.812,-2.6343292280560036
2025-03-27 13:28:35.813,-4.763992959479383
2025-03-27 13:28:35.813,0.33160522490996097
2025-03-27 13:28:35.813,6.22387476364715
2025-03-27 13:28:35.813,5.100648422000861
2025-03-27 13:28:35.821,-3.211638033005234
2025-03-27 13:28:35.821,-10.177891906869398
2025-03-27 13:28:35.821,-7.529384385240382
2025-03-27 13:28:35.821,3.089969385956075
2025-03-27 13:28:35.822,11.28029516133665
2025-03-27 13:28:35.831,9.112732083889886
2025-03-27 13:28:35.831,-0.6172155847560916
2025-03-27 13:28:35.831,-8.326638653730019
2025-03-27 13:28:35.831,-8.066550228214483
2025-03-27 13:28:35.841,-2.1993627915009992
2025-03-27 13:28:35.841,3.1881497417262743
2025-03-27 13:28:35.841,4.821138814995034
2025-03-27 13:28:35.841,3.527185270414453
2025-03-27 13:28:35.841,1.1860748114910191
2025-03-27 13:28:35.850,-1.3123276699224895
2025-03-27 13:28:35.851,-3.2002184555792987
2025-03-27 13:28:35.851,-3.0411142997645957
2025-03-27 13:28:35.851,-0.3625978966688381
2025-03-27 13:28:35.851,2.6079496580792827
2025-03-27 13:28:35.860,2.680437149560561
2025-03-27 13:28:35.861,-0.366741996899805
2025-03-27 13:28:35.861,-2.9967705879980993
2025-03-27 13:28:35.861,-1.9733869436485305
2025-03-27 13:28:35.861,1.7541130244954737
2025-03-27 13:28:35.870,4.211708781076424
2025-03-27 13:28:35.871,2.7671805696878122
2025-03-27 13:28:35.871,-1.5147258936730952
2025-03-27 13:28:35.871,-5.182398382750177
2025-03-27 13:28:35.871,-5.132644803354131
2025-03-27 13:28:35.880,-0.7891148454836086
2025-03-27 13:28:35.881,5.014314157789952
2025-03-27 13:28:35.881,7.479972201296681
2025-03-27 13:28:35.881,3.7965287958845955
2025-03-27 13:28:35.881,-3.520285652881737
2025-03-27 13:28:35.890,-8.13993177563084
2025-03-27 13:28:35.891,-5.872100939336919
2025-03-27 13:28:35.891,1.0576802387288375
2025-03-27 13:28:35.891,6.357583379591125
2025-03-27 13:28:35.891,6.023636955893729
2025-03-27 13:28:35.899,1.5818648474281096
2025-03-27 13:28:35.899,-2.6532025245684374
2025-03-27 13:28:35.899,-4.10556482958253
2025-03-27 13:28:35.899,-3.1623490173813784
2025-03-27 13:28:35.899,-1.2015832382512406
2025-03-27 13:28:35.910,0.9795384223816743
2025-03-27 13:28:35.910,2.7926392298246316
2025-03-27 13:28:35.911,3.2602260923398205
2025-03-27 13:28:35.911,1.7084459095324311
2025-03-27 13:28:35.911,-1.0902182316068618
2025-03-27 13:28:35.920,-3.0423841318385527
2025-03-27 13:28:35.920,-2.493512613656376
2025-03-27 13:28:35.921,-0.0365195622986875
2025-03-27 13:28:35.921,1.8199075873158754
2025-03-27 13:28:35.921,1.2891457206046082
2025-03-27 13:28:35.929,-0.6317785393920166
2025-03-27 13:28:35.929,-1.3865230949585257
2025-03-27 13:28:35.929,0.05272531711173954
2025-03-27 13:28:35.929,2.1548447015191368
2025-03-27 13:28:35.929,2.7561981190552145
2025-03-27 13:28:35.939,1.007508012604477
2025-03-27 13:28:35.939,-2.4042180713210604
2025-03-27 13:28:35.939,-5.4241181611160965
2025-03-27 13:28:35.940,-4.979533678101145
2025-03-27 13:28:35.949,0.47159857485209655
2025-03-27 13:28:35.949,7.520410221276149
2025-03-27 13:28:35.949,9.21329190630516
2025-03-27 13:28:35.949,2.4080024549512564
2025-03-27 13:28:35.949,-7.254536780032101
2025-03-27 13:28:35.958,-10.405519636029586
2025-03-27 13:28:35.959,-4.192949134813222
2025-03-27 13:28:35.959,4.622209674790578
2025-03-27 13:28:35.959,7.568909815482766
2025-03-27 13:28:35.959,3.6178363558302267
2025-03-27 13:28:35.968,-1.22274469225159
2025-03-27 13:28:35.968,-2.2234133465382153
2025-03-27 13:28:35.969,-0.9531162652810208
2025-03-27 13:28:35.969,-1.2506358544154694
2025-03-27 13:28:35.969,-2.9217706526551486
2025-03-27 13:28:35.978,-2.2816705226172926
2025-03-27 13:28:35.978,1.8015015357975854
2025-03-27 13:28:35.979,5.48173714168197
2025-03-27 13:28:35.979,4.548241706779091
2025-03-27 13:28:35.979,-0.44181626959998277
2025-03-27 13:28:35.988,-4.955742907841765
2025-03-27 13:28:35.989,-5.292238706764825
2025-03-27 13:28:35.989,-1.5366653829648165
2025-03-27 13:28:35.989,3.175888759110608
2025-03-27 13:28:35.989,5.041901879298105
2025-03-27 13:28:35.997,2.254697080172216
2025-03-27 13:28:35.997,-2.8604309356347866
2025-03-27 13:28:35.997,-4.895788419049961
2025-03-27 13:28:35.997,-0.8332132601143362
2025-03-27 13:28:35.998,5.262395131706429
2025-03-27 13:28:36.007,5.591463092231429
2025-03-27 13:28:36.007,-1.7971379353602464
2025-03-27 13:28:36.007,-8.960594423990289
2025-03-27 13:28:36.007,-6.607862784155856
2025-03-27 13:28:36.016,3.9496157321538523
2025-03-27 13:28:36.016,11.037660647525934
2025-03-27 13:28:36.017,6.307013924603304
2025-03-27 13:28:36.017,-4.812192081945781
2025-03-27 13:28:36.017,-9.617096268925911
2025-03-27 13:28:36.026,-3.633569935115748
2025-03-27 13:28:36.027,4.720615697954705
2025-03-27 13:28:36.027,5.629138530438207
2025-03-27 13:28:36.027,-0.28120616898920325
2025-03-27 13:28:36.027,-4.484550536939786
2025-03-27 13:28:36.036,-2.1150441484231233
2025-03-27 13:28:36.037,3.091256285944531
2025-03-27 13:28:36.037,4.788473751469962
2025-03-27 13:28:36.037,1.3468575630136597
2025-03-27 13:28:36.037,-3.636983074428522
2025-03-27 13:28:36.047,-5.660892781713241
2025-03-27 13:28:36.047,-2.8901541696267468
2025-03-27 13:28:36.047,2.7717784539640715
2025-03-27 13:28:36.047,6.61581147790235
2025-03-27 13:28:36.047,4.545545773288961
2025-03-27 13:28:36.056,-2.317653561203056
2025-03-27 13:28:36.057,-7.232209391692693
2025-03-27 13:28:36.057,-4.556679547196974
2025-03-27 13:28:36.057,3.1395812104669507
2025-03-27 13:28:36.057,7.250454667413182
2025-03-27 13:28:36.066,3.122852767462474
2025-03-27 13:28:36.067,-4.402641891366726
2025-03-27 13:28:36.067,-6.785075024622322
2025-03-27 13:28:36.067,-1.590646442225155
2025-03-27 13:28:36.067,5.164958894265502
2025-03-27 13:28:36.075,6.101533717747352
2025-03-27 13:28:36.075,0.5482022579390022
2025-03-27 13:28:36.075,-5.160360432152837
2025-03-27 13:28:36.076,-5.045971784753223
2025-03-27 13:28:36.076,0.047686419814855496
2025-03-27 13:28:36.086,4.1190721064109805
2025-03-27 13:28:36.086,3.282145914594895
2025-03-27 13:28:36.087,-0.27815748662808676
2025-03-27 13:28:36.087,-1.9134429569792277
2025-03-27 13:28:36.087,-0.5187996098165052
2025-03-27 13:28:36.095,0.655801021608517
2025-03-27 13:28:36.095,-0.9540796468556556
2025-03-27 13:28:36.095,-3.1789373930339697
2025-03-27 13:28:36.095,-1.7493840563757435
2025-03-27 13:28:36.096,3.4214191278647292
2025-03-27 13:28:36.105,6.798360905461501
2025-03-27 13:28:36.105,3.491512736214058
2025-03-27 13:28:36.105,-4.219164090765225
2025-03-27 13:28:36.105,-8.709338623263655
2025-03-27 13:28:36.115,-5.382226376091857
2025-03-27 13:28:36.115,2.5250000419686534
2025-03-27 13:28:36.115,7.893360107100217
2025-03-27 13:28:36.115,6.789979971057374
2025-03-27 13:28:36.115,0.9085293889916126
2025-03-27 13:28:36.125,-5.076332396164572
2025-03-27 13:28:36.125,-6.977058216583435
2025-03-27 13:28:36.125,-3.474362921980143
2025-03-27 13:28:36.125,2.573304066169861
2025-03-27 13:28:36.125,5.682375249410846
2025-03-27 13:28:36.134,2.8760316054042057
2025-03-27 13:28:36.135,-2.5008175511570974
2025-03-27 13:28:36.135,-3.97641979580987
2025-03-27 13:28:36.135,0.411131284486608
2025-03-27 13:28:36.135,5.250749435748076
2025-03-27 13:28:36.145,3.7833731194972917
2025-03-27 13:28:36.145,-3.817432454066827
2025-03-27 13:28:36.145,-9.534222391885892
2025-03-27 13:28:36.145,-5.768369750939402
2025-03-27 13:28:36.145,5.449171153456814
2025-03-27 13:28:36.153,12.88833485420863
2025-03-27 13:28:36.153,7.760527953557403
2025-03-27 13:28:36.153,-5.366606030691002
2025-03-27 13:28:36.153,-12.447896213296701
2025-03-27 13:28:36.154,-6.216051455541498
2025-03-27 13:28:36.164,4.835191859663515
2025-03-27 13:28:36.165,7.267561667929069
2025-03-27 13:28:36.165,-0.06294011031285285
2025-03-27 13:28:36.165,-5.321266098624502
2025-03-27 13:28:36.165,-0.4071436819715883
2025-03-27 13:28:36.173,7.923417949662815
2025-03-27 13:28:36.173,7.4161424306393045
2025-03-27 13:28:36.173,-3.1283169711477794
2025-03-27 13:28:36.173,-12.16488804990238
2025-03-27 13:28:36.183,-9.72362937099398
2025-03-27 13:28:36.183,1.338742383732387
2025-03-27 13:28:36.183,9.995621746508688
2025-03-27 13:28:36.183,9.603740930897677
2025-03-27 13:28:36.183,2.9815799534630862
2025-03-27 13:28:36.192,-3.263634227563214
2025-03-27 13:28:36.193,-5.809034919976189
2025-03-27 13:28:36.193,-5.386364423341234
2025-03-27 13:28:36.193,-3.3173284034324655
2025-03-27 13:28:36.193,0.10275540691532321
2025-03-27 13:28:36.202,3.9807374548923087
2025-03-27 13:28:36.203,5.799205918238898
2025-03-27 13:28:36.203,3.693883379552564
2025-03-27 13:28:36.203,-0.6895503087590195
2025-03-27 13:28:36.203,-3.3850728665309724
2025-03-27 13:28:36.211,-2.724826838874135
2025-03-27 13:28:36.211,-1.1936697093098558
2025-03-27 13:28:36.211,-1.4742006257705613
2025-03-27 13:28:36.211,-2.1987117071519897
2025-03-27 13:28:36.212,0.04728571199932738
2025-03-27 13:28:36.221,4.9835821131016536
2025-03-27 13:28:36.221,7.527979198149871
2025-03-27 13:28:36.221,3.4913115209027348
2025-03-27 13:28:36.221,-4.923374681389929
2025-03-27 13:28:36.231,-10.463440185368619
2025-03-27 13:28:36.231,-7.575387436394279
2025-03-27 13:28:36.231,2.135170984807091
2025-03-27 13:28:36.231,10.652844602222391
2025-03-27 13:28:36.231,10.210405280638517
2025-03-27 13:28:36.240,0.690018503945676
2025-03-27 13:28:36.241,-9.25213878943534
2025-03-27 13:28:36.241,-10.021302169180307
2025-03-27 13:28:36.241,-1.2133313897954783
2025-03-27 13:28:36.241,7.36177795964223
2025-03-27 13:28:36.250,6.597672509061531
2025-03-27 13:28:36.251,-1.0990438725965443
2025-03-27 13:28:36.251,-5.118528424029883
2025-03-27 13:28:36.251,-0.7577280004487632
2025-03-27 13:28:36.251,4.630074573707914
2025-03-27 13:28:36.260,2.342631429445902
2025-03-27 13:28:36.261,-5.038463930993666
2025-03-27 13:28:36.261,-7.140869761203917
2025-03-27 13:28:36.261,-0.2042302467953096
2025-03-27 13:28:36.261,7.946496272508678
2025-03-27 13:28:36.269,8.130198051885678
2025-03-27 13:28:36.269,0.4397785636438271
2025-03-27 13:28:36.269,-7.231366013431108
2025-03-27 13:28:36.269,-8.258113100456173
2025-03-27 13:28:36.279,-2.75317285036134
2025-03-27 13:28:36.279,4.215249163271245
2025-03-27 13:28:36.279,7.500124993166235
2025-03-27 13:28:36.279,5.208587474650749
2025-03-27 13:28:36.279,-0.7669521346219736
2025-03-27 13:28:36.289,-6.071549120731162
2025-03-27 13:28:36.289,-6.439249615830619
2025-03-27 13:28:36.289,-1.1341663026060669
2025-03-27 13:28:36.289,5.24799417807783
2025-03-27 13:28:36.289,6.228491242886475
2025-03-27 13:28:36.299,0.49902000131163876
2025-03-27 13:28:36.299,-5.641519720214976
2025-03-27 13:28:36.299,-5.100841551471924
2025-03-27 13:28:36.299,1.4079475709157665
2025-03-27 13:28:36.299,6.153760492232378
2025-03-27 13:28:36.309,3.8595417003233914
2025-03-27 13:28:36.309,-2.3432326839499757
2025-03-27 13:28:36.309,-5.502885128984732
2025-03-27 13:28:36.309,-3.0389599607622544
2025-03-27 13:28:36.309,1.5807939324516262
2025-03-27 13:28:36.319,3.8659339809679234
2025-03-27 13:28:36.319,2.6539965448351714
2025-03-27 13:28:36.319,-0.2011066177549682
2025-03-27 13:28:36.319,-2.3517017648660286
2025-03-27 13:28:36.319,-2.5259170383967193
2025-03-27 13:28:36.328,-0.8422235664913065
2025-03-27 13:28:36.329,1.4513580976460045
2025-03-27 13:28:36.329,2.72231328832929
2025-03-27 13:28:36.329,1.9079682106792553
2025-03-27 13:28:36.329,-0.780747321431476
2025-03-27 13:28:36.338,-3.5117329796339125
2025-03-27 13:28:36.339,-3.5297493063073837
2025-03-27 13:28:36.339,0.23398372396036304
2025-03-27 13:28:36.339,4.748938246990604
2025-03-27 13:28:36.339,4.954984849651561
2025-03-27 13:28:36.349,-0.27525785036250794
2025-03-27 13:28:36.349,-5.676969386690356
2025-03-27 13:28:36.349,-5.123415617039399
2025-03-27 13:28:36.349,1.0007884310032953
2025-03-27 13:28:36.349,5.945255669696236
2025-03-27 13:28:36.358,4.295441061509682
2025-03-27 13:28:36.359,-1.9820236981216355
2025-03-27 13:28:36.359,-5.964793646493561
2025-03-27 13:28:36.359,-3.4837506284391777
2025-03-27 13:28:36.359,2.601534655424633
2025-03-27 13:28:36.367,5.877001945298627
2025-03-27 13:28:36.367,3.262080155912786
2025-03-27 13:28:36.367,-2.248257702621023
2025-03-27 13:28:36.367,-5.293351868324676
2025-03-27 13:28:36.368,-3.5419322128135264
2025-03-27 13:28:36.377,0.844827873320831
2025-03-27 13:28:36.377,4.051003189435654
2025-03-27 13:28:36.377,3.8865741784494063
2025-03-27 13:28:36.377,0.8343268356565662
2025-03-27 13:28:36.378,-2.6549232831701373
2025-03-27 13:28:36.387,-3.73559080442577
2025-03-27 13:28:36.387,-1.4757021068487988
2025-03-27 13:28:36.387,1.785535359590403
2025-03-27 13:28:36.387,2.561975835181654
2025-03-27 13:28:36.388,0.3446621440098353
2025-03-27 13:28:36.397,-1.6460939046881167
2025-03-27 13:28:36.397,-0.6991145540920375
2025-03-27 13:28:36.397,1.7244936587132456
2025-03-27 13:28:36.397,2.052322247714825
2025-03-27 13:28:36.407,-0.48010251245030877
2025-03-27 13:28:36.407,-2.8548716423187477
2025-03-27 13:28:36.407,-2.3549480127805884
2025-03-27 13:28:36.407,0.08544790093400106
2025-03-27 13:28:36.407,1.6186455485000621
2025-03-27 13:28:36.417,1.4173689053688219
2025-03-27 13:28:36.417,1.1410356507656818
2025-03-27 13:28:36.417,1.6306277161748501
2025-03-27 13:28:36.417,1.177974457262047
2025-03-27 13:28:36.417,-1.642040756751446
2025-03-27 13:28:36.427,-4.7007987309246095
2025-03-27 13:28:36.427,-4.060045854878653
2025-03-27 13:28:36.427,0.8031883393211255
2025-03-27 13:28:36.427,5.384771629609423
2025-03-27 13:28:36.427,5.019723244610676
2025-03-27 13:28:36.437,0.37435730222535907
2025-03-27 13:28:36.437,-3.4772469428548813
2025-03-27 13:28:36.437,-3.159274794611904
2025-03-27 13:28:36.437,-0.45109352916317513
2025-03-27 13:28:36.437,0.8448107374535675
2025-03-27 13:28:36.447,-0.1225872536640516
2025-03-27 13:28:36.447,-0.8730608589404713
2025-03-27 13:28:36.447,0.4546208199916028
2025-03-27 13:28:36.447,2.468554041604055
2025-03-27 13:28:36.447,2.417908756695255
2025-03-27 13:28:36.456,-0.1498410405678975
2025-03-27 13:28:36.457,-2.655172074943451
2025-03-27 13:28:36.457,-2.556009785361801
2025-03-27 13:28:36.457,-0.3840630358266086
2025-03-27 13:28:36.457,1.1191417988507273
2025-03-27 13:28:36.467,0.6818862413940091
2025-03-27 13:28:36.467,0.03244764001547795
2025-03-27 13:28:36.467,1.0246545225243195
2025-03-27 13:28:36.467,2.379188150954101
2025-03-27 13:28:36.467,1.101191748032427
2025-03-27 13:28:36.476,-2.8558674299378186
2025-03-27 13:28:36.477,-5.309476305961228
2025-03-27 13:28:36.477,-2.5333244788741855
2025-03-27 13:28:36.477,3.6973703847516735
2025-03-27 13:28:36.477,7.274035567581463
2025-03-27 13:28:36.486,4.137773669200629
2025-03-27 13:28:36.486,-3.2303693977347847
2025-03-27 13:28:36.487,-7.973660438517813
2025-03-27 13:28:36.487,-5.461152801331926
2025-03-27 13:28:36.487,2.033673858327941
2025-03-27 13:28:36.495,7.265133514343347
2025-03-27 13:28:36.495,5.253781789526432
2025-03-27 13:28:36.495,-1.357378811486551
2025-03-27 13:28:36.495,-5.228377703237839
2025-03-27 13:28:36.496,-2.8216742581510608
2025-03-27 13:28:36.505,1.7386439909087987
2025-03-27 13:28:36.505,2.4505921142349494
2025-03-27 13:28:36.505,-0.7225971978238457
2025-03-27 13:28:36.505,-2.3849880220700417
2025-03-27 13:28:36.506,0.34088589842379813
2025-03-27 13:28:36.515,3.560226964081572
2025-03-27 13:28:36.515,2.0887368539830486
2025-03-27 13:28:36.515,-2.828311308272137
2025-03-27 13:28:36.515,-4.5949355928433535
2025-03-27 13:28:36.525,-0.29670845315351185
2025-03-27 13:28:36.525,4.689364903550039
2025-03-27 13:28:36.525,3.5603673878053406
2025-03-27 13:28:36.525,-2.455781453680643
2025-03-27 13:28:36.525,-5.325932545898668
2025-03-27 13:28:36.534,-1.0196179101543863
2025-03-27 13:28:36.535,4.830636759781124
2025-03-27 13:28:36.535,4.439294031888349
2025-03-27 13:28:36.535,-1.6517484457686449
2025-03-27 13:28:36.535,-5.462083049525719
2025-03-27 13:28:36.545,-2.354632278829417
2025-03-27 13:28:36.545,3.1509639279681414
2025-03-27 13:28:36.545,3.942418082491193
2025-03-27 13:28:36.545,-0.2942743536689086
2025-03-27 13:28:36.545,-3.3440819138788482
2025-03-27 13:28:36.554,-1.1788615301281276
2025-03-27 13:28:36.555,2.8863887299109656
2025-03-27 13:28:36.555,2.98757986248244
2025-03-27 13:28:36.555,-1.368772597105201
2025-03-27 13:28:36.555,-4.663149630298434
2025-03-27 13:28:36.565,-2.571604990559981
2025-03-27 13:28:36.565,2.5396418659559226
2025-03-27 13:28:36.565,4.809016420057393
2025-03-27 13:28:36.565,2.1502305010117193
2025-03-27 13:28:36.565,-1.890441615034654
2025-03-27 13:28:36.575,-3.210292414845305
2025-03-27 13:28:36.575,-1.7128300411901014
2025-03-27 13:28:36.575,-0.0013915213151968059
2025-03-27 13:28:36.575,0.618322256676147
2025-03-27 13:28:36.575,1.0626989254353774
2025-03-27 13:28:36.584,1.9428552285341918
2025-03-27 13:28:36.585,1.9686271721988582
2025-03-27 13:28:36.585,-0.14948707740484865
2025-03-27 13:28:36.585,-3.0240416375806296
2025-03-27 13:28:36.585,-3.4660189800026853
2025-03-27 13:28:36.594,-0.510560152820881
2025-03-27 13:28:36.595,2.8417091552386506
2025-03-27 13:28:36.595,3.111503912258412
2025-03-27 13:28:36.595,0.5632273633914707
2025-03-27 13:28:36.595,-1.5935835320424923
2025-03-27 13:28:36.604,-1.494287463719776
2025-03-27 13:28:36.605,-0.25556926969663163
2025-03-27 13:28:36.605,0.3922928033637349
2025-03-27 13:28:36.605,0.1594879372555016
2025-03-27 13:28:36.605,-0.3496079668288652
2025-03-27 13:28:36.614,-0.5649766473678035
2025-03-27 13:28:36.615,0.07496967249848448
2025-03-27 13:28:36.615,1.5780765864201658
2025-03-27 13:28:36.615,2.3662980885958533
2025-03-27 13:28:36.615,0.46226647588488406
2025-03-27 13:28:36.624,-3.288130575918841
2025-03-27 13:28:36.625,-4.747218487812789
2025-03-27 13:28:36.625,-1.1100544103266423
2025-03-27 13:28:36.625,4.659527978351782
2025-03-27 13:28:36.625,6.213251358780263
2025-03-27 13:28:36.633,1.2399634108523405
2025-03-27 13:28:36.633,-5.139653433677339
2025-03-27 13:28:36.633,-5.88073798309888
2025-03-27 13:28:36.633,-0.3016558371224074
2025-03-27 13:28:36.634,4.971906821458058
2025-03-27 13:28:36.643,3.944691917437268
2025-03-27 13:28:36.643,-1.5475859848057325
2025-03-27 13:28:36.643,-4.449106361364998
2025-03-27 13:28:36.644,-1.4967536810186939
2025-03-27 13:28:36.644,3.08675234711875
2025-03-27 13:28:36.653,3.564066515539643
2025-03-27 13:28:36.653,-0.17719857942941014
2025-03-27 13:28:36.653,-3.3287844172003216
2025-03-27 13:28:36.653,-2.5208345246255863
2025-03-27 13:28:36.663,0.750768547384215
2025-03-27 13:28:36.663,2.7377129498001613
2025-03-27 13:28:36.663,1.6947788846188154
2025-03-27 13:28:36.663,-0.9015150637904656
2025-03-27 13:28:36.663,-2.3720773852152894
2025-03-27 13:28:36.673,-1.4222509869669837
2025-03-27 13:28:36.673,0.9517520383976041
2025-03-27 13:28:36.673,2.5677080983525866
2025-03-27 13:28:36.673,1.9431922797315324
2025-03-27 13:28:36.673,-0.5214600979078735
2025-03-27 13:28:36.683,-2.799747533493453
2025-03-27 13:28:36.683,-2.8267816987400565
2025-03-27 13:28:36.683,-0.4271694955369062
2025-03-27 13:28:36.683,2.256267656159218
2025-03-27 13:28:36.683,2.8423659102424406
2025-03-27 13:28:36.692,1.2747741513273763
2025-03-27 13:28:36.693,-0.4886955345647943
2025-03-27 13:28:36.693,-1.2819962547606205
2025-03-27 13:28:36.693,-1.7031793877638528
2025-03-27 13:28:36.693,-1.9057602531952031
2025-03-27 13:28:36.702,-0.6376066390287342
2025-03-27 13:28:36.703,2.0446482822618197
2025-03-27 13:28:36.703,3.248847532616235
2025-03-27 13:28:36.703,0.8945115706338732
2025-03-27 13:28:36.703,-2.527487766168581
2025-03-27 13:28:36.712,-2.684568373278492
2025-03-27 13:28:36.713,0.6659537832916571
2025-03-27 13:28:36.713,3.201094954695639
2025-03-27 13:28:36.713,1.6790221963525944
2025-03-27 13:28:36.713,-2.1843361953325524
2025-03-27 13:28:36.723,-4.147446501657058
2025-03-27 13:28:36.723,-2.1585403362590183
2025-03-27 13:28:36.723,2.0741858737879126
2025-03-27 13:28:36.723,5.025038110371166
2025-03-27 13:28:36.723,4.138112099971212
2025-03-27 13:28:36.732,-0.3021523199097744
2025-03-27 13:28:36.733,-5.045223414340092
2025-03-27 13:28:36.733,-6.089998660199594
2025-03-27 13:28:36.733,-2.155241330307973
2025-03-27 13:28:36.733,3.7253061716592355
2025-03-27 13:28:36.741,6.587187305684467
2025-03-27 13:28:36.741,4.048736673604884
2025-03-27 13:28:36.741,-1.4558396991955678
2025-03-27 13:28:36.742,-5.100141225518787
2025-03-27 13:28:36.742,-4.30536901507814
2025-03-27 13:28:36.752,-0.7422542012708351
2025-03-27 13:28:36.753,2.14522805075571
2025-03-27 13:28:36.753,2.7687731006490903
2025-03-27 13:28:36.753,1.9631258625633468
2025-03-27 13:28:36.753,0.7885663787194387
2025-03-27 13:28:36.761,-0.6475357826113272
2025-03-27 13:28:36.761,-2.019767416328569
2025-03-27 13:28:36.761,-2.1045508538317184
2025-03-27 13:28:36.761,-0.4250863492614912
2025-03-27 13:28:36.762,1.420261494504486
2025-03-27 13:28:36.771,1.5038900677108424
2025-03-27 13:28:36.771,0.15548541338318644
2025-03-27 13:28:36.771,-0.6427374608938652
2025-03-27 13:28:36.771,-0.19225783238642247
2025-03-27 13:28:36.772,0.21706797125138028
2025-03-27 13:28:36.781,-0.29406224965476335
2025-03-27 13:28:36.781,-0.7355830453505452
2025-03-27 13:28:36.781,0.05599295579198185
2025-03-27 13:28:36.781,1.416213965950382
2025-03-27 13:28:36.791,1.5455880672873767
2025-03-27 13:28:36.791,-0.21435389918994754
2025-03-27 13:28:36.791,-2.4259938400315733
2025-03-27 13:28:36.791,-2.827097213611801
2025-03-27 13:28:36.791,-0.5320181098530143
2025-03-27 13:28:36.801,2.768755600573223
2025-03-27 13:28:36.801,4.014365117754997
2025-03-27 13:28:36.801,1.792237061907422
2025-03-27 13:28:36.801,-1.9213773201274262
2025-03-27 13:28:36.801,-3.7502024581235975
2025-03-27 13:28:36.811,-2.582427672857518
2025-03-27 13:28:36.811,-0.2855826431003643
2025-03-27 13:28:36.811,1.254857658212991
2025-03-27 13:28:36.811,2.2556811045818606
2025-03-27 13:28:36.811,3.3090136394220835
2025-03-27 13:28:36.820,3.0317662308566
2025-03-27 13:28:36.821,-0.46815157975655924
2025-03-27 13:28:36.821,-5.78570090777829
2025-03-27 13:28:36.821,-7.8070101390291144
2025-03-27 13:28:36.821,-2.7410429914766943
2025-03-27 13:28:36.830,6.454019873920603
2025-03-27 13:28:36.831,11.243219551919191
2025-03-27 13:28:36.831,5.906982790527605
2025-03-27 13:28:36.831,-5.293067403672106
2025-03-27 13:28:36.831,-11.43954503343713
2025-03-27 13:28:36.840,-6.60915499979517
2025-03-27 13:28:36.841,3.475862883704165
2025-03-27 13:28:36.841,8.171591975086692
2025-03-27 13:28:36.841,3.9673619935709588
2025-03-27 13:28:36.841,-2.6056081697108926
2025-03-27 13:28:36.850,-3.77490628388751
2025-03-27 13:28:36.851,0.4842826228456644
2025-03-27 13:28:36.851,3.611690455276312
2025-03-27 13:28:36.851,1.095442525154684
2025-03-27 13:28:36.851,-4.228316026306839
2025-03-27 13:28:36.860,-5.8710077580380675
2025-03-27 13:28:36.861,-1.3100473727556512
2025-03-27 13:28:36.861,5.282964363226236
2025-03-27 13:28:36.861,7.638119781518889
2025-03-27 13:28:36.861,3.6512719193765153
2025-03-27 13:28:36.869,-3.135271393397751
2025-03-27 13:28:36.869,-7.328772964348154
2025-03-27 13:28:36.869,-6.203164576049876
2025-03-27 13:28:36.869,-1.040736182643653
2025-03-27 13:28:36.879,4.604912520683259
2025-03-27 13:28:36.879,7.287426287152788
2025-03-27 13:28:36.879,5.238354129281237
2025-03-27 13:28:36.879,-0.6402423335041313
2025-03-27 13:28:36.879,-6.566519866917403
2025-03-27 13:28:36.889,-7.841675222869426
2025-03-27 13:28:36.889,-2.806644543687189
2025-03-27 13:28:36.889,4.777519194303704
2025-03-27 13:28:36.889,8.365023828486942
2025-03-27 13:28:36.889,4.6397803504218
2025-03-27 13:28:36.899,-2.9819611491386806
2025-03-27 13:28:36.899,-7.331972387974277
2025-03-27 13:28:36.899,-4.510391209738372
2025-03-27 13:28:36.899,2.0827551691924793
2025-03-27 13:28:36.899,5.395165315184419
2025-03-27 13:28:36.909,2.5199447687746965
2025-03-27 13:28:36.909,-2.293233417511004
2025-03-27 13:28:36.909,-3.1152608607054004
2025-03-27 13:28:36.909,0.49234199620640784
2025-03-27 13:28:36.909,3.382237568409956
2025-03-27 13:28:36.919,1.423523772240525
2025-03-27 13:28:36.919,-3.436539182631774
2025-03-27 13:28:36.919,-5.311639643483156
2025-03-27 13:28:36.919,-1.095101681672574
2025-03-27 13:28:36.919,5.557158513810586
2025-03-27 13:28:36.929,7.575562878823057
2025-03-27 13:28:36.929,2.109560155303991
2025-03-27 13:28:36.929,-5.894839827187159
2025-03-27 13:28:36.929,-8.654966898691907
2025-03-27 13:28:36.929,-3.7194177533858905
2025-03-27 13:28:36.939,3.836574985205623
2025-03-27 13:28:36.939,7.1851733911807525
2025-03-27 13:28:36.939,4.477051969637822
2025-03-27 13:28:36.939,-0.5350444924872465
2025-03-27 13:28:36.939,-3.400027188869075
2025-03-27 13:28:36.948,-3.1865815164825837
2025-03-27 13:28:36.949,-1.8512220388076142
2025-03-27 13:28:36.949,-0.8001947500133679
2025-03-27 13:28:36.949,0.47577546803615706
2025-03-27 13:28:36.949,2.3681820753607075
2025-03-27 13:28:36.957,3.3560239732309234
2025-03-27 13:28:36.957,1.637119943188985
2025-03-27 13:28:36.957,-1.871772617285312
2025-03-27 13:28:36.957,-3.7334060940485045
2025-03-27 13:28:36.958,-1.8730813407172695
2025-03-27 13:28:36.967,1.6392989759285945
2025-03-27 13:28:36.967,2.830041696393314
2025-03-27 13:28:36.967,0.6378015678158506
2025-03-27 13:28:36.967,-1.8532039508106792
2025-03-27 13:28:36.968,-1.5403161688254847
2025-03-27 13:28:36.977,0.6942034766458731
2025-03-27 13:28:36.977,1.5916302173880528
2025-03-27 13:28:36.977,0.27148030623673686
2025-03-27 13:28:36.977,-0.8829527952418689
2025-03-27 13:28:36.987,-0.2518538518689896
2025-03-27 13:28:36.987,0.576484404238877
2025-03-27 13:28:36.987,-0.2692701817872795
2025-03-27 13:28:36.987,-1.5471290671166518
2025-03-27 13:28:36.988,-0.7038860315414015
2025-03-27 13:28:36.988,1.8229921178184205
2025-03-27 13:28:36.997,2.6681412120830266
2025-03-27 13:28:36.997,0.25577591271711464
2025-03-27 13:28:36.997,-2.649594812316604
2025-03-27 13:28:36.997,-2.4070757833504586
2025-03-27 13:28:37.007,0.6338439183186607
2025-03-27 13:28:37.007,2.464532009117564
2025-03-27 13:28:37.007,0.667623819461426
2025-03-27 13:28:37.007,-2.2337596807800137
2025-03-27 13:28:37.008,-1.9390100457475121
2025-03-27 13:28:37.017,1.7771386627441548
2025-03-27 13:28:37.017,4.302550564467779
2025-03-27 13:28:37.017,1.9515830024207683
2025-03-27 13:28:37.017,-3.1435908733032862
2025-03-27 13:28:37.017,-5.486379072968565
2025-03-27 13:28:37.027,-2.7064910948977605
2025-03-27 13:28:37.027,2.173197397871788
2025-03-27 13:28:37.027,4.689040877411176
2025-03-27 13:28:37.027,3.4134356799469123
2025-03-27 13:28:37.027,0.22296330658142377
2025-03-27 13:28:37.037,-2.3515308232182153
2025-03-27 13:28:37.037,-3.0913433614599275
2025-03-27 13:28:37.037,-2.130753703868992
2025-03-27 13:28:37.037,-0.18374571439859755
2025-03-27 13:28:37.037,1.834945225212056
2025-03-27 13:28:37.047,2.7968409770286664
2025-03-27 13:28:37.047,1.8285298818276805
2025-03-27 13:28:37.047,-0.6211514731835001
2025-03-27 13:28:37.047,-2.571605208265108
2025-03-27 13:28:37.047,-2.21987738152174
2025-03-27 13:28:37.057,0.011863494212864728
2025-03-27 13:28:37.057,1.7803505916912603
2025-03-27 13:28:37.057,1.4774678632679965
2025-03-27 13:28:37.057,0.040814288754161446
2025-03-27 13:28:37.057,-0.47047235016974054
2025-03-27 13:28:37.067,0.2505162799140421
2025-03-27 13:28:37.067,0.37348580090252187
2025-03-27 13:28:37.067,-1.190398242025646
2025-03-27 13:28:37.067,-2.6040824726845666
2025-03-27 13:28:37.067,-1.1669978163313937
2025-03-27 13:28:37.077,2.6265802700354146
2025-03-27 13:28:37.077,4.699200757690062
2025-03-27 13:28:37.077,2.009941099706159
2025-03-27 13:28:37.077,-3.273323224796659
2025-03-27 13:28:37.077,-5.609790012230256
2025-03-27 13:28:37.087,-2.297007064018841
2025-03-27 13:28:37.087,3.2181577582080094
2025-03-27 13:28:37.087,5.101950690973015
2025-03-27 13:28:37.087,1.6985482613243468
2025-03-27 13:28:37.087,-2.8676006985235394
2025-03-27 13:28:37.097,-3.761289064714403
2025-03-27 13:28:37.097,-0.7864965262167753
2025-03-27 13:28:37.097,2.2192091972547083
2025-03-27 13:28:37.097,2.3650432485523982
2025-03-27 13:28:37.097,0.49127063156411743
2025-03-27 13:28:37.105,-0.980902959534417
2025-03-27 13:28:37.105,-1.2464217714523733
2025-03-27 13:28:37.105,-1.07753592053818
2025-03-27 13:28:37.105,-0.7155457126130217
2025-03-27 13:28:37.106,0.3948113425941438
2025-03-27 13:28:37.115,1.8596566238698715
2025-03-27 13:28:37.115,2.07756046199227
2025-03-27 13:28:37.115,0.40698120519304837
2025-03-27 13:28:37.116,-1.645930475560281
2025-03-27 13:28:37.116,-2.2714737844978434
2025-03-27 13:28:37.125,-1.4561475713758838
2025-03-27 13:28:37.125,-0.298078690289367
2025-03-27 13:28:37.125,0.90993452469751
2025-03-27 13:28:37.126,2.4695121029334
2025-03-27 13:28:37.126,3.429940992028044
2025-03-27 13:28:37.135,1.7857581799577489
2025-03-27 13:28:37.135,-2.5126568942885377
2025-03-27 13:28:37.135,-5.9506421874889295
2025-03-27 13:28:37.135,-4.618933127877395
2025-03-27 13:28:37.145,1.0040878506950532
2025-03-27 13:28:37.145,5.934219462016773
2025-03-27 13:28:37.145,5.8961452496357944
2025-03-27 13:28:37.145,1.5433276340826496
2025-03-27 13:28:37.145,-3.0746590373516773
2025-03-27 13:28:37.155,-4.917025115148998
2025-03-27 13:28:37.155,-3.751695478529469
2025-03-27 13:28:37.155,-0.817918091036621
2025-03-27 13:28:37.155,2.401887750871767
2025-03-27 13:28:37.155,4.254056301384295
2025-03-27 13:28:37.165,3.471439778239253
2025-03-27 13:28:37.165,0.4271426268401256
2025-03-27 13:28:37.165,-2.7642308063124874
2025-03-27 13:28:37.165,-3.908390531687745
2025-03-27 13:28:37.165,-2.451792057566927
2025-03-27 13:28:37.175,0.34901839752544683
2025-03-27 13:28:37.175,2.5924836208185345
2025-03-27 13:28:37.175,3.000038819082784
2025-03-27 13:28:37.175,1.4989175770654926
2025-03-27 13:28:37.175,-0.849122976761536
2025-03-27 13:28:37.185,-2.378928709077051
2025-03-27 13:28:37.185,-1.895291902196269
2025-03-27 13:28:37.185,0.11796371475782877
2025-03-27 13:28:37.185,1.6020385789278966
2025-03-27 13:28:37.185,1.0142399074140855
2025-03-27 13:28:37.195,-0.7406836651262423
2025-03-27 13:28:37.195,-1.3200317126802958
2025-03-27 13:28:37.195,0.06940207731790854
2025-03-27 13:28:37.195,1.6739937019024156
2025-03-27 13:28:37.195,1.4694792209613727
2025-03-27 13:28:37.204,-0.4461240212205083
2025-03-27 13:28:37.205,-2.1349656262063696
2025-03-27 13:28:37.205,-1.856479314747731
2025-03-27 13:28:37.205,0.377899691543138
2025-03-27 13:28:37.205,2.645842447801306
2025-03-27 13:28:37.214,2.5061290182577434
2025-03-27 13:28:37.215,-0.5291555549670727
2025-03-27 13:28:37.215,-3.7299084370510656
2025-03-27 13:28:37.215,-3.4290874195294
2025-03-27 13:28:37.215,0.7688587543843648
2025-03-27 13:28:37.225,4.8240425422597415
2025-03-27 13:28:37.225,4.283123969949135
2025-03-27 13:28:37.225,-0.6877594040117485
2025-03-27 13:28:37.225,-5.139898571179555
2025-03-27 13:28:37.225,-4.524719520834287
2025-03-27 13:28:37.234,0.446731573915666
2025-03-27 13:28:37.235,4.6324645022081645
2025-03-27 13:28:37.235,3.9880940204254673
2025-03-27 13:28:37.235,-0.3479312151569195
2025-03-27 13:28:37.235,-3.7156669822489437
2025-03-27 13:28:37.245,-3.0722269607021637
2025-03-27 13:28:37.245,0.24844188394543024
2025-03-27 13:28:37.245,2.679741848193027
2025-03-27 13:28:37.245,2.295258974805582
2025-03-27 13:28:37.245,0.09986877178298312
2025-03-27 13:28:37.253,-1.7014804702302473
2025-03-27 13:28:37.253,-1.768714964140927
2025-03-27 13:28:37.253,-0.31775320352894904
2025-03-27 13:28:37.253,1.1987483004985326
2025-03-27 13:28:37.263,1.1415162444503897
2025-03-27 13:28:37.263,-0.5616594081394932
2025-03-27 13:28:37.263,-1.7214960502343064
2025-03-27 13:28:37.263,-0.2352991412802627
2025-03-27 13:28:37.263,2.6586679010326724
2025-03-27 13:28:37.273,3.126225538410898
2025-03-27 13:28:37.273,-0.3578769139243443
2025-03-27 13:28:37.273,-4.3444998570748465
2025-03-27 13:28:37.273,-4.2320499536861735
2025-03-27 13:28:37.273,0.04639191617076374
2025-03-27 13:28:37.283,3.9290191336141573
2025-03-27 13:28:37.283,3.7437720167723105
2025-03-27 13:28:37.283,0.6478306921342889
2025-03-27 13:28:37.283,-1.601435423630117
2025-03-27 13:28:37.283,-1.4774764706473722
2025-03-27 13:28:37.293,-0.7714931738149915
2025-03-27 13:28:37.293,-1.1379169459111032
2025-03-27 13:28:37.293,-1.416097300938103
2025-03-27 13:28:37.293,0.3234415104025628
2025-03-27 13:28:37.293,3.056202430144029
2025-03-27 13:28:37.303,3.318759272555608
2025-03-27 13:28:37.303,-0.05897163834443886
2025-03-27 13:28:37.303,-3.659176949173314
2025-03-27 13:28:37.303,-3.4167161756389146
2025-03-27 13:28:37.303,0.2659576958113335
2025-03-27 13:28:37.311,3.138175773033747
2025-03-27 13:28:37.311,2.386165725725592
2025-03-27 13:28:37.311,-0.508613575890545
2025-03-27 13:28:37.312,-2.295663082518599
2025-03-27 13:28:37.312,-1.6292208092634588
2025-03-27 13:28:37.321,0.40771724962818545
2025-03-27 13:28:37.321,2.011268833588826
2025-03-27 13:28:37.321,1.878589473802824
2025-03-27 13:28:37.322,-0.17450770510528785
2025-03-27 13:28:37.322,-2.5559034694487264
2025-03-27 13:28:37.331,-2.6483846750734674
2025-03-27 13:28:37.331,0.26955128489556524
2025-03-27 13:28:37.331,3.275339272218483
2025-03-27 13:28:37.332,2.7504973782685957
2025-03-27 13:28:37.332,-0.8306298477527688
2025-03-27 13:28:37.341,-3.0485318924687745
2025-03-27 13:28:37.341,-1.2845300125801116
2025-03-27 13:28:37.341,1.6780501471844778
2025-03-27 13:28:37.341,1.5487865981024291
2025-03-27 13:28:37.351,-1.4112481912556145
2025-03-27 13:28:37.351,-2.73250994125959
2025-03-27 13:28:37.351,0.06837784221803983
2025-03-27 13:28:37.351,3.9812439162351745
2025-03-27 13:28:37.351,4.114486210632425
2025-03-27 13:28:37.361,-0.44350455040244713
2025-03-27 13:28:37.361,-5.411381085272115
2025-03-27 13:28:37.361,-5.662438506209359
2025-03-27 13:28:37.361,-0.4275851706604573
2025-03-27 13:28:37.361,5.626938166749845
2025-03-27 13:28:37.371,6.627750419679094
2025-03-27 13:28:37.371,1.3759989418617402
2025-03-27 13:28:37.371,-5.03035315173068
2025-03-27 13:28:37.371,-6.188915007458117
2025-03-27 13:28:37.371,-1.1850068105201197
2025-03-27 13:28:37.380,4.33867685125237
2025-03-27 13:28:37.381,4.369211149302877
2025-03-27 13:28:37.381,-0.7437690938406245
2025-03-27 13:28:37.381,-4.596941274551595
2025-03-27 13:28:37.381,-2.068415455882981
2025-03-27 13:28:37.389,4.263013241734897
2025-03-27 13:28:37.389,6.3298494531182925
2025-03-27 13:28:37.389,0.05864463786907653
2025-03-27 13:28:37.389,-8.448059669436068
2025-03-27 13:28:37.390,-8.689295730193066
2025-03-27 13:28:37.399,1.5302139419279146
2025-03-27 13:28:37.399,11.761760403709841
2025-03-27 13:28:37.399,10.041867002752
2025-03-27 13:28:37.399,-2.685905282393807
2025-03-27 13:28:37.409,-12.771894736546152
2025-03-27 13:28:37.409,-9.353705856735552
2025-03-27 13:28:37.409,3.2855028829629953
2025-03-27 13:28:37.409,11.153391508707475
2025-03-27 13:28:37.409,6.698273024020921
2025-03-27 13:28:37.419,-3.5921183226755584
2025-03-27 13:28:37.419,-7.981300213336778
2025-03-27 13:28:37.419,-3.0029030193988824
2025-03-27 13:28:37.419,4.036128023769643
2025-03-27 13:28:37.419,4.915724379346931
2025-03-27 13:28:37.429,-0.17421544143600326
2025-03-27 13:28:37.429,-4.353127651325276
2025-03-27 13:28:37.429,-3.028949812484082
2025-03-27 13:28:37.429,1.4298513070851349
2025-03-27 13:28:37.429,3.8050129195230302
2025-03-27 13:28:37.439,2.304590394408067
2025-03-27 13:28:37.439,-0.6152544448600668
2025-03-27 13:28:37.439,-2.2064065163882276
2025-03-27 13:28:37.439,-2.08590659296112
2025-03-27 13:28:37.439,-1.1097240310392866
2025-03-27 13:28:37.449,0.30210167110869557
2025-03-27 13:28:37.449,1.7216797065840879
2025-03-27 13:28:37.449,2.035494542722784
2025-03-27 13:28:37.449,0.7213998533099215
2025-03-27 13:28:37.449,-0.8918530777364717
2025-03-27 13:28:37.457,-1.0959282121739646
2025-03-27 13:28:37.457,-0.19209744489618102
2025-03-27 13:28:37.457,0.008844345503029052
2025-03-27 13:28:37.457,-0.9800513628014836
2025-03-27 13:28:37.467,-1.4493055110141089
2025-03-27 13:28:37.467,0.04074304663074407
2025-03-27 13:28:37.467,2.3894782001668715
2025-03-27 13:28:37.468,3.0096366243592905
2025-03-27 13:28:37.468,0.8080722783047958
2025-03-27 13:28:37.468,-2.4209587990294184
2025-03-27 13:28:37.477,-3.57746928738471
2025-03-27 13:28:37.477,-1.3142965298043559
2025-03-27 13:28:37.477,2.2047087750087515
2025-03-27 13:28:37.478,3.081474643715912
2025-03-27 13:28:37.487,0.11983022900477566
2025-03-27 13:28:37.487,-3.0270722879161713
2025-03-27 13:28:37.487,-1.869626840951397
2025-03-27 13:28:37.487,2.7140438094254065
2025-03-27 13:28:37.488,4.656128960471089
2025-03-27 13:28:37.497,0.38778464048443595
2025-03-27 13:28:37.497,-5.6919419323425675
2025-03-27 13:28:37.497,-5.946319901662827
2025-03-27 13:28:37.497,0.894559419269533
2025-03-27 13:28:37.498,7.470465397706887
2025-03-27 13:28:37.507,6.152167734391193
2025-03-27 13:28:37.507,-1.8755554172455535
2025-03-27 13:28:37.507,-7.7570539907961376
2025-03-27 13:28:37.507,-5.123042757571258
2025-03-27 13:28:37.507,2.7112577393070216
2025-03-27 13:28:37.517,6.890287558482039
2025-03-27 13:28:37.517,3.252500601491051
2025-03-27 13:28:37.517,-3.458219273656654
2025-03-27 13:28:37.517,-5.607507794328507
2025-03-27 13:28:37.517,-1.2197844695897655
2025-03-27 13:28:37.527,4.361363335041994
2025-03-27 13:28:37.527,4.701561725786911
2025-03-27 13:28:37.527,-0.6430931363427382
2025-03-27 13:28:37.527,-5.592147967885341
2025-03-27 13:28:37.527,-4.260107851234043
2025-03-27 13:28:37.537,2.1752590640201985
2025-03-27 13:28:37.537,6.485851223315084
2025-03-27 13:28:37.537,3.6991171022354177
2025-03-27 13:28:37.537,-2.997031015839486
2025-03-27 13:28:37.537,-6.055898657762791
2025-03-27 13:28:37.547,-2.480603468354367
2025-03-27 13:28:37.547,3.0338895600648232
2025-03-27 13:28:37.547,4.178835505784802
2025-03-27 13:28:37.547,0.48306908412268157
2025-03-27 13:28:37.547,-2.7953125337974885
2025-03-27 13:28:37.557,-1.6078322167575796
2025-03-27 13:28:37.557,1.9600942638285763
2025-03-27 13:28:37.557,2.6903042175770127
2025-03-27 13:28:37.557,-0.8577464357978462
2025-03-27 13:28:37.557,-4.2762937633542535
2025-03-27 13:28:37.567,-2.724767422819399
2025-03-27 13:28:37.567,2.814580998519827
2025-03-27 13:28:37.567,6.163455134089233
2025-03-27 13:28:37.567,2.9339439623799537
2025-03-27 13:28:37.567,-4.1363673177896505
2025-03-27 13:28:37.577,-7.655391755242437
2025-03-27 13:28:37.577,-3.385193908419623
2025-03-27 13:28:37.577,4.856287264636226
2025-03-27 13:28:37.577,8.616321172588508
2025-03-27 13:28:37.577,3.5659687901099577
2025-03-27 13:28:37.585,-5.345605422975948
2025-03-27 13:28:37.585,-8.562193271048338
2025-03-27 13:28:37.585,-2.4246308214426846
2025-03-27 13:28:37.586,6.152183160460387
2025-03-27 13:28:37.586,7.246065800418502
2025-03-27 13:28:37.595,-0.3315795432017803
2025-03-27 13:28:37.595,-7.382745962500548
2025-03-27 13:28:37.595,-5.319363307441929
2025-03-27 13:28:37.595,3.462163872900139
2025-03-27 13:28:37.605,8.525729056250716
2025-03-27 13:28:37.605,3.8606893804005127
2025-03-27 13:28:37.605,-5.281444754937194
2025-03-27 13:28:37.605,-8.823771931602222
2025-03-27 13:28:37.606,-3.2708032380356244
2025-03-27 13:28:37.615,5.092078514774172
2025-03-27 13:28:37.615,7.823590287319238
2025-03-27 13:28:37.615,3.195800879829574
2025-03-27 13:28:37.615,-3.2980465643414907
2025-03-27 13:28:37.615,-5.798860693957027
2025-03-27 13:28:37.625,-3.4740502819410075
2025-03-27 13:28:37.625,0.6707965770353401
2025-03-27 13:28:37.625,3.772954976904753
2025-03-27 13:28:37.625,4.398922189027062
2025-03-27 13:28:37.625,1.872047573476437
2025-03-27 13:28:37.635,-2.8003847600988983
2025-03-27 13:28:37.635,-5.811147788812602
2025-03-27 13:28:37.635,-3.4384373292105055
2025-03-27 13:28:37.635,2.9247673746516307
2025-03-27 13:28:37.636,6.86096129353709
2025-03-27 13:28:37.645,3.8225578196138095
2025-03-27 13:28:37.645,-3.205819907659286
2025-03-27 13:28:37.645,-6.775564739863628
2025-03-27 13:28:37.645,-3.4093059925566855
2025-03-27 13:28:37.645,2.737081612924717
2025-03-27 13:28:37.655,5.138650350129556
2025-03-27 13:28:37.655,2.3666556926397084
2025-03-27 13:28:37.655,-1.2496380514830445
2025-03-27 13:28:37.655,-1.8829576650365625
2025-03-27 13:28:37.655,-0.7321694586761466
2025-03-27 13:28:37.665,-0.9709920586287514
2025-03-27 13:28:37.665,-2.1590029342489054
2025-03-27 13:28:37.665,-0.8540922095962316
2025-03-27 13:28:37.665,3.227260830378766
2025-03-27 13:28:37.665,5.1955234979575575
2025-03-27 13:28:37.675,1.3501553810076108
2025-03-27 13:28:37.675,-4.70751685492908
2025-03-27 13:28:37.675,-5.762706431869097
2025-03-27 13:28:37.675,-0.37526984776901834
2025-03-27 13:28:37.675,4.923051926204287
2025-03-27 13:28:37.685,4.006719717293404
2025-03-27 13:28:37.685,-1.1806536386318869
2025-03-27 13:28:37.685,-3.825921794451966
2025-03-27 13:28:37.685,-1.3581984696219174
2025-03-27 13:28:37.685,1.9781637229248519
2025-03-27 13:28:37.695,1.6948873551426207
2025-03-27 13:28:37.695,-0.9921572628788422
2025-03-27 13:28:37.695,-1.6481725158936007
2025-03-27 13:28:37.695,0.7975027759919167
2025-03-27 13:28:37.695,2.7294050993764207
2025-03-27 13:28:37.703,1.097199999749691
2025-03-27 13:28:37.703,-2.424803474995082
2025-03-27 13:28:37.704,-3.7803028912273455
2025-03-27 13:28:37.704,-1.5579567549495237
2025-03-27 13:28:37.704,1.9653101309612786
2025-03-27 13:28:37.713,3.9571104247105606
2025-03-27 13:28:37.713,3.3593930870078554
2025-03-27 13:28:37.713,0.530941799226483
2025-03-27 13:28:37.714,-3.20348897912017
2025-03-27 13:28:37.714,-5.293944263252808
2025-03-27 13:28:37.723,-3.4196320982655086
2025-03-27 13:28:37.723,1.585783857792794
2025-03-27 13:28:37.723,5.5645840897995065
2025-03-27 13:28:37.724,4.998184116697001
2025-03-27 13:28:37.724,0.5654902377119513
2025-03-27 13:28:37.733,-3.82106193614807
2025-03-27 13:28:37.733,-4.847333739647116
2025-03-27 13:28:37.733,-2.2761497005562616
2025-03-27 13:28:37.733,1.4910292512724832
2025-03-27 13:28:37.743,3.545577268232155
2025-03-27 13:28:37.743,2.6483551201207463
2025-03-27 13:28:37.743,0.05899271195820263
2025-03-27 13:28:37.743,-1.8198001982217489
2025-03-27 13:28:37.743,-1.8627774201965817
2025-03-27 13:28:37.753,-0.93738527680841
2025-03-27 13:28:37.753,-0.07415652844516644
2025-03-27 13:28:37.753,0.9462564014447254
2025-03-27 13:28:37.753,2.1750968596277973
2025-03-27 13:28:37.754,1.974992440429327
2025-03-27 13:28:37.763,-0.8349658777054998
2025-03-27 13:28:37.763,-3.851269750479776
2025-03-27 13:28:37.763,-3.06218626686822
2025-03-27 13:28:37.763,1.4243343829748913
2025-03-27 13:28:37.764,4.5438859072240785
2025-03-27 13:28:37.773,2.69547845652191
2025-03-27 13:28:37.773,-1.5391544975611378
2025-03-27 13:28:37.773,-3.2302095689446357
2025-03-27 13:28:37.773,-1.5441863040779917
2025-03-27 13:28:37.773,0.3865716676693824
2025-03-27 13:28:37.783,0.6882656288919005
2025-03-27 13:28:37.783,0.6434426600374493
2025-03-27 13:28:37.783,1.3950089100154894
2025-03-27 13:28:37.783,1.6273624757104344
2025-03-27 13:28:37.783,-0.15101871530418565
2025-03-27 13:28:37.793,-2.638220461957201
2025-03-27 13:28:37.793,-2.881233558269858
2025-03-27 13:28:37.793,-0.1690314201431062
2025-03-27 13:28:37.793,2.715264775906718
2025-03-27 13:28:37.793,2.780016388463777
2025-03-27 13:28:37.803,0.368897038188959
2025-03-27 13:28:37.803,-1.6688706042464514
2025-03-27 13:28:37.803,-1.6920450697017326
2025-03-27 13:28:37.803,-0.5928030078612152
2025-03-27 13:28:37.803,0.3718154819840808
2025-03-27 13:28:37.813,1.0449484617090254
2025-03-27 13:28:37.813,1.1389494682596033
2025-03-27 13:28:37.813,-0.2408334300676503
2025-03-27 13:28:37.813,-2.3653852003363034
2025-03-27 13:28:37.813,-2.160367791756457
2025-03-27 13:28:37.821,1.7680777600673148
2025-03-27 13:28:37.821,5.4951751520962535
2025-03-27 13:28:37.822,3.4637512583159413
2025-03-27 13:28:37.822,-3.7255517745679176
2025-03-27 13:28:37.822,-8.358390672306856
2025-03-27 13:28:37.831,-4.458874421477679
2025-03-27 13:28:37.831,4.425413150269357
2025-03-27 13:28:37.832,8.959448965492797
2025-03-27 13:28:37.832,4.721498915358047
2025-03-27 13:28:37.841,-3.40031343500221
2025-03-27 13:28:37.841,-7.4197859508864115
2025-03-27 13:28:37.841,-4.481550302196906
2025-03-27 13:28:37.841,1.6485592343106636
2025-03-27 13:28:37.842,5.298000772459803
2025-03-27 13:28:37.851,3.9404994089752643
2025-03-27 13:28:37.851,-0.34954339765765
2025-03-27 13:28:37.851,-3.3621044280851673
2025-03-27 13:28:37.851,-2.82235996890186
2025-03-27 13:28:37.851,-0.25089015498643025
2025-03-27 13:28:37.861,1.3309679821624298
2025-03-27 13:28:37.861,1.0069538131130753
2025-03-27 13:28:37.861,0.3922992683864047
2025-03-27 13:28:37.861,0.7472843211510429
2025-03-27 13:28:37.861,1.0741783054773169
2025-03-27 13:28:37.871,-0.16088545230081833
2025-03-27 13:28:37.871,-2.24600057830745
2025-03-27 13:28:37.871,-2.5504281115335456
2025-03-27 13:28:37.871,-0.00138722909529794
2025-03-27 13:28:37.871,2.835621807752071
2025-03-27 13:28:37.881,2.4692662767735407
2025-03-27 13:28:37.881,-0.8444685267334179
2025-03-27 13:28:37.881,-2.7985946643235815
2025-03-27 13:28:37.881,-0.4981827256387883
2025-03-27 13:28:37.881,3.0801163845698367
2025-03-27 13:28:37.891,2.437038830274963
2025-03-27 13:28:37.891,-2.6586861055051703
2025-03-27 13:28:37.891,-5.693574369961786
2025-03-27 13:28:37.891,-1.6697908320440746
2025-03-27 13:28:37.891,5.408805455274182
2025-03-27 13:28:37.901,6.826533824459113
2025-03-27 13:28:37.901,0.4455288379896235
2025-03-27 13:28:37.901,-6.18630528356764
2025-03-27 13:28:37.901,-5.410575554302905
2025-03-27 13:28:37.901,1.0408511749572924
2025-03-27 13:28:37.911,4.940465021618252
2025-03-27 13:28:37.911,2.245910000965201
2025-03-27 13:28:37.911,-2.600995230840325
2025-03-27 13:28:37.911,-3.2607604014552476
2025-03-27 13:28:37.911,0.6143172079462227
2025-03-27 13:28:37.921,3.857169927243521
2025-03-27 13:28:37.921,2.6163138378416666
2025-03-27 13:28:37.921,-1.5161255459758882
2025-03-27 13:28:37.921,-4.118857706355008
2025-03-27 13:28:37.921,-2.9446441989883523
2025-03-27 13:28:37.931,0.4174465849234382
2025-03-27 13:28:37.931,2.9165838733554077
2025-03-27 13:28:37.931,3.0511718836117803
2025-03-27 13:28:37.931,1.5414065839727846
2025-03-27 13:28:37.931,-0.30337661227176427
2025-03-27 13:28:37.941,-2.047318072212037
2025-03-27 13:28:37.941,-3.4580330558705983
2025-03-27 13:28:37.941,-3.159150044097507
2025-03-27 13:28:37.941,0.20859127392351282
2025-03-27 13:28:37.941,4.9395543366804535
2025-03-27 13:28:37.949,6.314463670577834
2025-03-27 13:28:37.949,1.631951299596513
2025-03-27 13:28:37.949,-5.492942621814134
2025-03-27 13:28:37.950,-7.942849514011919
2025-03-27 13:28:37.950,-2.817871995448914
2025-03-27 13:28:37.959,4.891571977297888
2025-03-27 13:28:37.959,7.440536566863457
2025-03-27 13:28:37.959,2.727760381148195
2025-03-27 13:28:37.960,-3.6479792639901962
2025-03-27 13:28:37.960,-5.012203932463779
2025-03-27 13:28:37.969,-1.049834141036129
2025-03-27 13:28:37.969,2.6307146826255625
2025-03-27 13:28:37.969,1.7643228629724015
2025-03-27 13:28:37.970,-1.6552544915027585
2025-03-27 13:28:37.970,-2.4862243844347023
2025-03-27 13:28:37.979,0.870982997386878
2025-03-27 13:28:37.979,4.4447332862916475
2025-03-27 13:28:37.979,3.361299192755553
2025-03-27 13:28:37.980,-2.3107979263683562
2025-03-27 13:28:37.989,-6.906487779431397
2025-03-27 13:28:37.989,-4.789913276425512
2025-03-27 13:28:37.989,3.016258875815341
2025-03-27 13:28:37.989,8.697193410190701
2025-03-27 13:28:37.990,5.704152972954591
2025-03-27 13:28:37.999,-3.324574243138643
2025-03-27 13:28:37.999,-8.830424009361977
2025-03-27 13:28:37.999,-5.123473103807139
2025-03-27 13:28:38.000,3.165371615897475
2025-03-27 13:28:38.000,6.834963036495448
2025-03-27 13:28:38.009,2.804632779230161
2025-03-27 13:28:38.009,-3.0689575605780095
2025-03-27 13:28:38.009,-3.683028065659898
2025-03-27 13:28:38.010,0.830508583364054
2025-03-27 13:28:38.010,3.8058461223623254
2025-03-27 13:28:38.019,0.7489729194602104
2025-03-27 13:28:38.019,-4.703624466960546
2025-03-27 13:28:38.019,-5.146736281225762
2025-03-27 13:28:38.019,1.0921307797920705
2025-03-27 13:28:38.019,7.305620874154319
2025-03-27 13:28:38.029,6.209490143498821
2025-03-27 13:28:38.029,-1.4180241339871849
2025-03-27 13:28:38.029,-7.69681485507205
2025-03-27 13:28:38.029,-6.496353024590135
2025-03-27 13:28:38.030,0.45174009543132776
2025-03-27 13:28:38.039,6.240974257013702
2025-03-27 13:28:38.039,5.988988373411599
2025-03-27 13:28:38.039,0.8002540181858588
2025-03-27 13:28:38.039,-4.2174752793774015
2025-03-27 13:28:38.039,-4.8221841992217405
2025-03-27 13:28:38.049,-1.0917407911597266
2025-03-27 13:28:38.049,2.9262133605233003
2025-03-27 13:28:38.049,3.139928230268582
2025-03-27 13:28:38.049,-0.29467707464081777
2025-03-27 13:28:38.049,-2.9487723290762644
2025-03-27 13:28:38.059,-1.2641247078849167
2025-03-27 13:28:38.059,2.8144318100034846
2025-03-27 13:28:38.059,3.8991443609633287
2025-03-27 13:28:38.059,-0.08509170381335701
2025-03-27 13:28:38.059,-4.93110577964039
2025-03-27 13:28:38.069,-4.9142491896286025
2025-03-27 13:28:38.069,0.4536544060848544
2025-03-27 13:28:38.069,5.670961699429243
2025-03-27 13:28:38.069,5.227273646218608
2025-03-27 13:28:38.069,-0.392866322864792
2025-03-27 13:28:38.079,-5.193170232729178
2025-03-27 13:28:38.079,-4.221332776537233
2025-03-27 13:28:38.079,0.8943130932627636
2025-03-27 13:28:38.079,3.9185514658716056
2025-03-27 13:28:38.079,1.5862893455430793
2025-03-27 13:28:38.087,-2.378087323958317
2025-03-27 13:28:38.087,-2.225868440355971
2025-03-27 13:28:38.087,1.9804604301748658
2025-03-27 13:28:38.088,4.187557285952738
2025-03-27 13:28:38.088,0.5679159035957007
2025-03-27 13:28:38.097,-4.768164574598243
2025-03-27 13:28:38.097,-4.760342471445686
2025-03-27 13:28:38.097,1.0722875817777462
2025-03-27 13:28:38.098,5.484291506896156
2025-03-27 13:28:38.098,2.877231850036074
2025-03-27 13:28:38.107,-3.130691247184049
2025-03-27 13:28:38.107,-4.407190826792446
2025-03-27 13:28:38.108,0.7729493000943
2025-03-27 13:28:38.108,5.352904135741131
2025-03-27 13:28:38.108,2.9041962295054833
2025-03-27 13:28:38.117,-3.879757516926649
2025-03-27 13:28:38.117,-6.701479737889036
2025-03-27 13:28:38.117,-2.0762918250099522
2025-03-27 13:28:38.118,4.768060139402844
2025-03-27 13:28:38.127,6.507571613987689
2025-03-27 13:28:38.127,1.908910799915911
2025-03-27 13:28:38.127,-3.7125856997061932
2025-03-27 13:28:38.127,-4.941091839689854
2025-03-27 13:28:38.128,-1.6488906843069404
2025-03-27 13:28:38.137,1.9882328555337865
2025-03-27 13:28:38.137,2.6211735725228285
2025-03-27 13:28:38.137,0.8549147978091063
2025-03-27 13:28:38.137,-0.5900811014803062
2025-03-27 13:28:38.138,-0.5278830124789625
2025-03-27 13:28:38.147,-0.0011112511766981775
2025-03-27 13:28:38.147,0.034077282127049274
2025-03-27 13:28:38.147,-0.05207563061717445
2025-03-27 13:28:38.147,0.02756481312639669
2025-03-27 13:28:38.147,-0.4217414326984971
2025-03-27 13:28:38.157,-1.4486388310380978
2025-03-27 13:28:38.157,-1.3423717450015182
2025-03-27 13:28:38.157,1.0982197365827857
2025-03-27 13:28:38.157,3.8879483101813435
2025-03-27 13:28:38.157,3.4561396085026086
2025-03-27 13:28:38.167,-0.8283775111289111
2025-03-27 13:28:38.167,-5.233801402419811
2025-03-27 13:28:38.167,-5.442278680408429
2025-03-27 13:28:38.167,-0.9886276260071134
2025-03-27 13:28:38.167,4.432035932215719
2025-03-27 13:28:38.175,6.426093822287875
2025-03-27 13:28:38.175,3.4694012387547675
2025-03-27 13:28:38.175,-2.094874418976114
2025-03-27 13:28:38.176,-5.941062991597937
2025-03-27 13:28:38.176,-5.100494505755083
2025-03-27 13:28:38.187,-0.34615635165649244
2025-03-27 13:28:38.187,4.3555080077992026
2025-03-27 13:28:38.187,5.127956277903076
2025-03-27 13:28:38.187,1.5942301218351342
2025-03-27 13:28:38.187,-2.7160456041500916
2025-03-27 13:28:38.195,-3.751873698119325
2025-03-27 13:28:38.195,-1.059756658850898
2025-03-27 13:28:38.196,1.8634602728097747
2025-03-27 13:28:38.196,1.711854932198021
2025-03-27 13:28:38.196,-0.7486220534650664
2025-03-27 13:28:38.205,-1.8697302792521528
2025-03-27 13:28:38.205,0.06202023745904994
2025-03-27 13:28:38.205,2.5366379615154373
2025-03-27 13:28:38.206,2.073278272743406
2025-03-27 13:28:38.206,-1.1080808991037245
2025-03-27 13:28:38.215,-3.1397060821928555
2025-03-27 13:28:38.215,-1.4783063241374461
2025-03-27 13:28:38.216,1.6511766720975216
2025-03-27 13:28:38.216,2.1758873020180296
2025-03-27 13:28:38.216,-0.2616202058242969
2025-03-27 13:28:38.225,-1.8562825172080661
2025-03-27 13:28:38.225,-0.17781801753601972
2025-03-27 13:28:38.225,2.1554840795631733
2025-03-27 13:28:38.226,1.2488213283156515
2025-03-27 13:28:38.235,-2.0199708461456414
2025-03-27 13:28:38.235,-2.716465981355311
2025-03-27 13:28:38.235,0.9635912293310639
2025-03-27 13:28:38.235,4.179022508611858
2025-03-27 13:28:38.236,1.5399071040784245
2025-03-27 13:28:38.245,-4.775296712161891
2025-03-27 13:28:38.245,-6.514331989568732
2025-03-27 13:28:38.245,0.18434064469022143
2025-03-27 13:28:38.245,8.655669789612245
2025-03-27 13:28:38.246,8.70208191290658
2025-03-27 13:28:38.253,-1.0513340446202226
2025-03-27 13:28:38.253,-10.596328653516885
2025-03-27 13:28:38.253,-9.509969885278819
2025-03-27 13:28:38.254,1.1200248322563389
2025-03-27 13:28:38.263,9.837958722560987
2025-03-27 13:28:38.263,7.813626187226072
2025-03-27 13:28:38.263,-1.5117085903511691
2025-03-27 13:28:38.263,-7.268966234053802
2025-03-27 13:28:38.264,-4.117844355227493
2025-03-27 13:28:38.273,2.5476094771736983
2025-03-27 13:28:38.273,4.521825884076071
2025-03-27 13:28:38.273,0.6837457493873583
2025-03-27 13:28:38.273,-3.229165179676934
2025-03-27 13:28:38.273,-2.7555205381951984
2025-03-27 13:28:38.283,0.5565301601315781
2025-03-27 13:28:38.283,2.496430975002132
2025-03-27 13:28:38.283,1.643791017755633
2025-03-27 13:28:38.283,0.09416392528603049
2025-03-27 13:28:38.284,-0.1644786569579741
2025-03-27 13:28:38.293,0.12285993897675737
2025-03-27 13:28:38.293,-0.9182053302001868
2025-03-27 13:28:38.293,-2.894023497456514
2025-03-27 13:28:38.293,-2.883177157426737
2025-03-27 13:28:38.294,0.6957123054170123
2025-03-27 13:28:38.303,5.014638706598885
2025-03-27 13:28:38.303,5.309266917850361
2025-03-27 13:28:38.303,0.5414707162138789
2025-03-27 13:28:38.303,-4.880344167041288
2025-03-27 13:28:38.303,-5.823943775282367
2025-03-27 13:28:38.313,-1.9022104817988683
2025-03-27 13:28:38.313,2.7141577240039636
2025-03-27 13:28:38.313,4.189511029156919
2025-03-27 13:28:38.313,2.44225983992939
2025-03-27 13:28:38.313,-0.08545622430297396
2025-03-27 13:28:38.323,-1.5565953820801925
2025-03-27 13:28:38.323,-1.8647668002446198
2025-03-27 13:28:38.323,-1.49076126116706
2025-03-27 13:28:38.323,-0.5558640686170271
2025-03-27 13:28:38.323,0.7155660657907836
2025-03-27 13:28:38.331,1.499303529041363
2025-03-27 13:28:38.331,1.1551051026617052
2025-03-27 13:28:38.331,0.19410780813671483
2025-03-27 13:28:38.332,-0.3342438434218816
2025-03-27 13:28:38.332,-0.30505556180299365
2025-03-27 13:28:38.341,-0.505278415553736
2025-03-27 13:28:38.341,-1.1067751666554722
2025-03-27 13:28:38.342,-1.1243766570319906
2025-03-27 13:28:38.342,0.17285703180858517
2025-03-27 13:28:38.351,1.9798708219765426
2025-03-27 13:28:38.351,2.5676517053262256
2025-03-27 13:28:38.351,0.9379266691177784
2025-03-27 13:28:38.351,-2.0991618710721625
2025-03-27 13:28:38.352,-4.098286635128929
2025-03-27 13:28:38.361,-2.6688625872304685
2025-03-27 13:28:38.361,1.8814195580553603
2025-03-27 13:28:38.361,5.610337181929989
2025-03-27 13:28:38.361,4.192866607919916
2025-03-27 13:28:38.361,-1.9070976010944425
2025-03-27 13:28:38.371,-6.61958995022858
2025-03-27 13:28:38.371,-4.420574405571182
2025-03-27 13:28:38.371,2.7440979774187424
2025-03-27 13:28:38.371,6.739129173534002
2025-03-27 13:28:38.372,2.6860896363948563
2025-03-27 13:28:38.381,-4.552637149227558
2025-03-27 13:28:38.381,-5.870113301215721
2025-03-27 13:28:38.381,0.5856697219515341
2025-03-27 13:28:38.382,6.676354395261564
2025-03-27 13:28:38.382,4.441319613047206
2025-03-27 13:28:38.391,-3.721443854369834
2025-03-27 13:28:38.391,-8.027639634297321
2025-03-27 13:28:38.391,-3.3813566942492357
2025-03-27 13:28:38.391,4.877846380563182
2025-03-27 13:28:38.391,7.884914748482112
2025-03-27 13:28:38.401,3.196147896983494
2025-03-27 13:28:38.401,-3.7412777385342504
2025-03-27 13:28:38.401,-6.342258403849784
2025-03-27 13:28:38.401,-3.172355209195837
2025-03-27 13:28:38.402,1.8755833638214692
2025-03-27 13:28:38.411,4.045941873051477
2025-03-27 13:28:38.411,2.1100438642501325
2025-03-27 13:28:38.411,-1.0295852255784097
2025-03-27 13:28:38.411,-1.8216762796118304
2025-03-27 13:28:38.412,0.041847631472535896
2025-03-27 13:28:38.421,1.633671845018906
2025-03-27 13:28:38.421,0.5727571050736483
2025-03-27 13:28:38.421,-2.025006632037038
2025-03-27 13:28:38.421,-2.885387481459045
2025-03-27 13:28:38.421,-0.5239037078223474
2025-03-27 13:28:38.431,2.800900317348282
2025-03-27 13:28:38.431,3.469614304689407
2025-03-27 13:28:38.431,0.6744745005732453
2025-03-27 13:28:38.431,-2.4965954000580086
2025-03-27 13:28:38.431,-2.6310117527191426
2025-03-27 13:28:38.439,-0.02403551582915983
2025-03-27 13:28:38.439,1.9104987906667754
2025-03-27 13:28:38.440,1.052032585466752
2025-03-27 13:28:38.440,-1.0223173047423642
2025-03-27 13:28:38.440,-1.5492707037799027
2025-03-27 13:28:38.451,-0.16356869593780488
2025-03-27 13:28:38.451,1.2248144828106815
2025-03-27 13:28:38.451,1.3095416052718085
2025-03-27 13:28:38.451,0.568025921731496
2025-03-27 13:28:38.451,-0.24131921341275864
2025-03-27 13:28:38.459,-1.0713870280655755
2025-03-27 13:28:38.459,-1.6066547818988468
2025-03-27 13:28:38.460,-0.8619097860495208
2025-03-27 13:28:38.460,1.1024711021035951
2025-03-27 13:28:38.460,2.2270815781428337
2025-03-27 13:28:38.469,0.8530476046118449
2025-03-27 13:28:38.469,-1.5184720364068753
2025-03-27 13:28:38.470,-1.7958478914886922
2025-03-27 13:28:38.470,0.3641572871625912
2025-03-27 13:28:38.470,1.8843403699108292
2025-03-27 13:28:38.479,0.6367262787759345
2025-03-27 13:28:38.479,-1.5736658781475183
2025-03-27 13:28:38.480,-1.8277058565462816
2025-03-27 13:28:38.480,-0.16125678658810752
2025-03-27 13:28:38.489,1.2059618474592406
2025-03-27 13:28:38.489,1.4536569438829419
2025-03-27 13:28:38.489,1.4662030164839424
2025-03-27 13:28:38.490,1.140506907387565
2025-03-27 13:28:38.490,-0.7553631354496202
2025-03-27 13:28:38.490,-3.5597981864016335
2025-03-27 13:28:38.499,-4.1225615120105354
2025-03-27 13:28:38.499,-0.6934093536109065
2025-03-27 13:28:38.500,4.115073277932258
2025-03-27 13:28:38.500,5.82446558443533
2025-03-27 13:28:38.500,2.8992511643671195
2025-03-27 13:28:38.509,-2.034247849825497
2025-03-27 13:28:38.509,-5.19803302665506
2025-03-27 13:28:38.510,-4.775227555644507
2025-03-27 13:28:38.510,-1.466173808928792
2025-03-27 13:28:38.519,2.556784967139419
2025-03-27 13:28:38.519,4.848393244663851
2025-03-27 13:28:38.519,3.98057486588678
2025-03-27 13:28:38.519,0.6521824259933547
2025-03-27 13:28:38.519,-2.664925051188127
2025-03-27 13:28:38.529,-3.8009300320421495
2025-03-27 13:28:38.529,-2.6624089201298755
2025-03-27 13:28:38.529,-0.7015607821829686
2025-03-27 13:28:38.529,1.050209354804155
2025-03-27 13:28:38.530,2.6316596837197554
2025-03-27 13:28:38.539,3.73598171603124
2025-03-27 13:28:38.539,2.7937594508104024
2025-03-27 13:28:38.539,-1.1724530643285507
2025-03-27 13:28:38.539,-5.813664221533466
2025-03-27 13:28:38.540,-6.268135937347343
2025-03-27 13:28:38.549,-0.39900228252162323
2025-03-27 13:28:38.549,7.140890744026017
2025-03-27 13:28:38.549,8.384441989112688
2025-03-27 13:28:38.549,1.0187794658615366
2025-03-27 13:28:38.549,-7.683249079121507
2025-03-27 13:28:38.559,-8.331800952241789
2025-03-27 13:28:38.559,-0.38682013437835194
2025-03-27 13:28:38.559,7.039839127366358
2025-03-27 13:28:38.559,5.99169730093878
2025-03-27 13:28:38.560,-1.2234968151301522
2025-03-27 13:28:38.569,-5.537068341820493
2025-03-27 13:28:38.569,-2.2801143118918845
2025-03-27 13:28:38.569,3.647360443889674
2025-03-27 13:28:38.569,4.229696242960531
2025-03-27 13:28:38.569,-1.6672967994371604
2025-03-27 13:28:38.579,-6.615222728371992
2025-03-27 13:28:38.579,-3.5174380068940088
2025-03-27 13:28:38.579,5.115965447700686
2025-03-27 13:28:38.579,9.103705773120096
2025-03-27 13:28:38.579,2.6579626538181294
2025-03-27 13:28:38.589,-7.654107078392649
2025-03-27 13:28:38.589,-9.86349808460814
2025-03-27 13:28:38.589,-1.0210424951095949
2025-03-27 13:28:38.589,8.845621271983038
2025-03-27 13:28:38.589,8.656866403960082
2025-03-27 13:28:38.597,-0.7337112408451167
2025-03-27 13:28:38.597,-8.351619449757722
2025-03-27 13:28:38.598,-6.40319683934108
2025-03-27 13:28:38.598,1.6563722267689398
2025-03-27 13:28:38.598,6.595173802669699
2025-03-27 13:28:38.607,4.045690224912955
2025-03-27 13:28:38.607,-1.9817714351002498
2025-03-27 13:28:38.608,-4.770422677136104
2025-03-27 13:28:38.608,-2.0591424027793743
2025-03-27 13:28:38.617,2.519478702000328
2025-03-27 13:28:38.617,3.870156635686666
2025-03-27 13:28:38.617,0.6677579441803128
2025-03-27 13:28:38.618,-3.44434740944889
2025-03-27 13:28:38.618,-3.676839178218335
2025-03-27 13:28:38.627,0.5583130591192627
2025-03-27 13:28:38.627,4.431964800126509
2025-03-27 13:28:38.627,2.958275069756807
2025-03-27 13:28:38.627,-2.5339817871752985
2025-03-27 13:28:38.628,-5.164580503355284
2025-03-27 13:28:38.637,-0.9933189589319134
2025-03-27 13:28:38.637,5.168588712868417
2025-03-27 13:28:38.637,5.209424708661582
2025-03-27 13:28:38.637,-1.6336319953629195
2025-03-27 13:28:38.638,-7.063552051477173
2025-03-27 13:28:38.647,-4.038173630542307
2025-03-27 13:28:38.647,4.005031489447215
2025-03-27 13:28:38.647,7.220911542376082
2025-03-27 13:28:38.647,1.692918457223393
2025-03-27 13:28:38.648,-5.685096302263322
2025-03-27 13:28:38.657,-5.891006385212595
2025-03-27 13:28:38.657,1.0164242469022322
2025-03-27 13:28:38.657,6.228578190146249
2025-03-27 13:28:38.657,3.48745058323069
2025-03-27 13:28:38.658,-3.152140894426452
2025-03-27 13:28:38.667,-5.008942908576986
2025-03-27 13:28:38.667,-0.2153172164599444
2025-03-27 13:28:38.667,4.2648295853787594
2025-03-27 13:28:38.667,2.3364995306896703
2025-03-27 13:28:38.668,-3.1770836157495737
2025-03-27 13:28:38.677,-4.641725378419351
2025-03-27 13:28:38.677,0.23345072786662213
2025-03-27 13:28:38.677,5.605123614584033
2025-03-27 13:28:38.677,4.926439337550229
2025-03-27 13:28:38.678,-1.3113035514126454
2025-03-27 13:28:38.687,-6.480972666446398
2025-03-27 13:28:38.687,-5.305348187884428
2025-03-27 13:28:38.687,0.8306670429188874
2025-03-27 13:28:38.687,5.833316147966967
2025-03-27 13:28:38.687,5.240023978005673
2025-03-27 13:28:38.697,0.25769383103080634
2025-03-27 13:28:38.697,-4.09238146745184
2025-03-27 13:28:38.697,-4.1962681958185835
2025-03-27 13:28:38.697,-0.9540210401734106
2025-03-27 13:28:38.697,1.957216098069183
2025-03-27 13:28:38.707,2.2248609525546583
2025-03-27 13:28:38.707,0.8295257721732152
2025-03-27 13:28:38.707,0.02396239737616098
2025-03-27 13:28:38.707,0.2684066965932043
2025-03-27 13:28:38.708,0.02997801992791875
2025-03-27 13:28:38.717,-1.5285142925560697
2025-03-27 13:28:38.717,-2.7731514072664982
2025-03-27 13:28:38.717,-1.3844241239135033
2025-03-27 13:28:38.717,2.2757853915813366
2025-03-27 13:28:38.718,4.599157228098274
2025-03-27 13:28:38.727,2.5004847335805973
2025-03-27 13:28:38.727,-2.3983425058810024
2025-03-27 13:28:38.727,-4.82617929479826
2025-03-27 13:28:38.727,-2.0606769456719993
2025-03-27 13:28:38.727,2.335905328031076
2025-03-27 13:28:38.737,2.9631814899331648
2025-03-27 13:28:38.737,-0.20246296878777847
2025-03-27 13:28:38.737,-2.053972363142973
2025-03-27 13:28:38.737,0.04498024107240836
2025-03-27 13:28:38.737,2.490034465360137
2025-03-27 13:28:38.747,1.137537561126682
2025-03-27 13:28:38.747,-2.254037716623573
2025-03-27 13:28:38.747,-2.67613551095545
2025-03-27 13:28:38.747,0.4955062839297767
2025-03-27 13:28:38.747,2.5162653655619023
2025-03-27 13:28:38.755,0.39909354200718994
2025-03-27 13:28:38.755,-2.522859565147917
2025-03-27 13:28:38.756,-1.3885595916268656
2025-03-27 13:28:38.756,2.9204027967642414
2025-03-27 13:28:38.756,4.478636371946829
2025-03-27 13:28:38.765,0.26846154338772354
2025-03-27 13:28:38.765,-5.353146490760252
2025-03-27 13:28:38.766,-5.742077884217248
2025-03-27 13:28:38.766,-0.0694265805420256
2025-03-27 13:28:38.775,5.724648398106088
2025-03-27 13:28:38.775,5.832837146569563
2025-03-27 13:28:38.775,0.6640255753381219
2025-03-27 13:28:38.776,-4.393973316613082
2025-03-27 13:28:38.776,-4.9145131990396385
2025-03-27 13:28:38.785,-1.254382746429357
2025-03-27 13:28:38.785,2.7231622511240166
2025-03-27 13:28:38.785,3.613536261310398
2025-03-27 13:28:38.786,1.2530346758658804
2025-03-27 13:28:38.786,-1.63617347366156
2025-03-27 13:28:38.795,-2.2835748056627123
2025-03-27 13:28:38.795,-0.5908364198063191
2025-03-27 13:28:38.795,1.0251916515403154
2025-03-27 13:28:38.795,0.6861964816765841
2025-03-27 13:28:38.796,-0.5984932849483985
2025-03-27 13:28:38.805,-0.4806293644452926
2025-03-27 13:28:38.805,1.2181757336288528
2025-03-27 13:28:38.805,2.0233840185857703
2025-03-27 13:28:38.805,0.22486161489021944
2025-03-27 13:28:38.806,-2.5924004137718453
2025-03-27 13:28:38.815,-3.3644283413919873
2025-03-27 13:28:38.815,-1.030671908202289
2025-03-27 13:28:38.815,2.6029012970603604
2025-03-27 13:28:38.815,4.666890336511266
2025-03-27 13:28:38.816,3.2105475997025565
2025-03-27 13:28:38.825,-1.4136696488224667
2025-03-27 13:28:38.825,-5.906147683786309
2025-03-27 13:28:38.825,-5.864780538543283
2025-03-27 13:28:38.825,-0.22997047749766478
2025-03-27 13:28:38.826,6.315495334601348
2025-03-27 13:28:38.835,7.303583118122117
2025-03-27 13:28:38.835,1.5180412830383103
2025-03-27 13:28:38.835,-5.204894904866864
2025-03-27 13:28:38.835,-6.257185622347588
2025-03-27 13:28:38.836,-1.5480763413062713
2025-03-27 13:28:38.845,2.957169966532028
2025-03-27 13:28:38.845,2.8050949943605614
2025-03-27 13:28:38.845,0.053883368976119006
2025-03-27 13:28:38.845,-0.5623546367934237
2025-03-27 13:28:38.846,1.4156901640470776
2025-03-27 13:28:38.855,1.968840847856477
2025-03-27 13:28:38.855,-0.9532847445197449
2025-03-27 13:28:38.855,-4.0741477836281295
2025-03-27 13:28:38.855,-3.292744285568132
2025-03-27 13:28:38.856,0.8135419480459483
2025-03-27 13:28:38.865,4.015912764731449
2025-03-27 13:28:38.865,3.589344963095462
2025-03-27 13:28:38.865,0.5506676360333962
2025-03-27 13:28:38.865,-2.3494081029165064
2025-03-27 13:28:38.865,-3.090377410604994
2025-03-27 13:28:38.875,-1.3800289078976298
2025-03-27 13:28:38.875,1.1528155492401784
2025-03-27 13:28:38.875,1.9789649134750926
2025-03-27 13:28:38.875,0.3236615596675158
2025-03-27 13:28:38.875,-1.381265867379731
2025-03-27 13:28:38.883,-0.3197111767508144
2025-03-27 13:28:38.883,2.393854738441097
2025-03-27 13:28:38.884,2.392722220582588
2025-03-27 13:28:38.884,-1.8145903949155513
2025-03-27 13:28:38.884,-5.487274395180053
2025-03-27 13:28:38.893,-3.0565209446918526
2025-03-27 13:28:38.893,3.898846522647263
2025-03-27 13:28:38.894,7.410573992457467
2025-03-27 13:28:38.894,2.872255668407286
2025-03-27 13:28:38.894,-4.810429394579397
2025-03-27 13:28:38.903,-7.129882923431755
2025-03-27 13:28:38.904,-2.215334843931141
2025-03-27 13:28:38.904,3.8088563002013953
2025-03-27 13:28:38.904,4.9829058829132835
2025-03-27 13:28:38.904,1.7529288742115905
2025-03-27 13:28:38.913,-1.536531121086607
2025-03-27 13:28:38.913,-2.4077304917758964
2025-03-27 13:28:38.913,-1.6065255265741436
2025-03-27 13:28:38.914,-0.49367084804560524
2025-03-27 13:28:38.923,0.5091094274575849
2025-03-27 13:28:38.923,1.2050093826901345
2025-03-27 13:28:38.923,1.2027762778204918
2025-03-27 13:28:38.923,0.5895907888160762
2025-03-27 13:28:38.924,-0.038715086379449336
2025-03-27 13:28:38.933,-0.5149201393300543
2025-03-27 13:28:38.933,-1.1620795027874535
2025-03-27 13:28:38.933,-1.6221168159307617
2025-03-27 13:28:38.934,-0.7506754521308193
2025-03-27 13:28:38.934,1.4543402027347623
2025-03-27 13:28:38.943,2.788871692317511
2025-03-27 13:28:38.943,1.267801235629819
2025-03-27 13:28:38.943,-1.6810594226503024
2025-03-27 13:28:38.943,-2.40939280105135
2025-03-27 13:28:38.944,-0.04811192817663773
2025-03-27 13:28:38.953,1.7815016512536204
2025-03-27 13:28:38.953,0.05570653758016683
2025-03-27 13:28:38.953,-2.6139282952758403
2025-03-27 13:28:38.953,-1.2604982601615506
2025-03-27 13:28:38.954,3.539055089032582
2025-03-27 13:28:38.963,5.132092793044131
2025-03-27 13:28:38.963,-0.09040686185635946
2025-03-27 13:28:38.963,-6.531189664466412
2025-03-27 13:28:38.963,-5.9373955942443075
2025-03-27 13:28:38.964,1.5533459956589655
2025-03-27 13:28:38.973,7.145010697787376
2025-03-27 13:28:38.973,4.561917996149671
2025-03-27 13:28:38.973,-2.277010809530624
2025-03-27 13:28:38.973,-4.965220463870548
2025-03-27 13:28:38.973,-1.4903602034667025
2025-03-27 13:28:38.981,2.182082290986802
2025-03-27 13:28:38.982,1.104453977802445
2025-03-27 13:28:38.982,-1.9928660387018047
2025-03-27 13:28:38.982,-1.440955831231841
2025-03-27 13:28:38.982,2.495607387595597
2025-03-27 13:28:38.991,3.8118475292999148
2025-03-27 13:28:38.992,-0.10286266590461912
2025-03-27 13:28:38.992,-4.081023837728896
2025-03-27 13:28:38.992,-2.5158707154937416
2025-03-27 13:28:38.992,2.2765171429050386
2025-03-27 13:28:39.001,3.283273352608047
2025-03-27 13:28:39.001,-0.9639963443741844
2025-03-27 13:28:39.002,-4.174119702897214
2025-03-27 13:28:39.002,-1.3260450650342865
2025-03-27 13:28:39.011,4.098443545270886
2025-03-27 13:28:39.011,4.835242749095369
2025-03-27 13:28:39.011,-0.3325764952522547
2025-03-27 13:28:39.012,-5.122884142853932
2025-03-27 13:28:39.012,-4.068201785563511
2025-03-27 13:28:39.021,0.9881724658526334
2025-03-27 13:28:39.021,4.137479253034509
2025-03-27 13:28:39.021,2.7747310400512175
2025-03-27 13:28:39.022,-0.5794698616595214
2025-03-27 13:28:39.022,-2.518271447825692
2025-03-27 13:28:39.031,-2.141197377799593
2025-03-27 13:28:39.031,-0.38778680498204265
2025-03-27 13:28:39.032,1.5366723925534596
2025-03-27 13:28:39.032,2.3191191642945017
2025-03-27 13:28:39.032,1.0064033142188729
2025-03-27 13:28:39.041,-1.458051374731093
2025-03-27 13:28:39.041,-2.4360032256043143
2025-03-27 13:28:39.041,-0.687698601740569
2025-03-27 13:28:39.042,1.6662938090870212
2025-03-27 13:28:39.042,1.7702181040696898
2025-03-27 13:28:39.051,-0.12201891382585525
2025-03-27 13:28:39.051,-1.2648288298393529
2025-03-27 13:28:39.052,-0.5196114900974992
2025-03-27 13:28:39.052,0.3612274300453746
2025-03-27 13:28:39.052,-0.0717476511140063
2025-03-27 13:28:39.061,-0.6550930987695152
2025-03-27 13:28:39.061,0.23192997315365974
2025-03-27 13:28:39.061,1.7199938226874227
2025-03-27 13:28:39.061,1.4804064663084926
2025-03-27 13:28:39.062,-0.7874946487856617
2025-03-27 13:28:39.071,-2.6321007994611443
2025-03-27 13:28:39.071,-1.9537711237486777
2025-03-27 13:28:39.071,0.44705541705224716
2025-03-27 13:28:39.072,2.1519544884426893
2025-03-27 13:28:39.072,1.9944014186199994
2025-03-27 13:28:39.081,0.6610176888660105
2025-03-27 13:28:39.081,-0.7979852562216286
2025-03-27 13:28:39.081,-1.7016282735266302
2025-03-27 13:28:39.081,-1.42177288832624
2025-03-27 13:28:39.082,0.05765016798786398
2025-03-27 13:28:39.091,1.2950083773539498
2025-03-27 13:28:39.091,0.7536052966150024
2025-03-27 13:28:39.091,-0.7651182235164332
2025-03-27 13:28:39.092,-0.8116995685258412
2025-03-27 13:28:39.092,1.0449261941943715
2025-03-27 13:28:39.101,2.149286288761638
2025-03-27 13:28:39.101,0.48778936956986746
2025-03-27 13:28:39.101,-2.2339794570955434
2025-03-27 13:28:39.101,-2.8899794106659265
2025-03-27 13:28:39.102,-1.0200240023036797
2025-03-27 13:28:39.111,1.2735735049241417
2025-03-27 13:28:39.111,2.5113732893974277
2025-03-27 13:28:39.111,2.669183087017966
2025-03-27 13:28:39.111,1.4498879747225801
2025-03-27 13:28:39.112,-1.4880425844750218
2025-03-27 13:28:39.121,-4.276459543416984
2025-03-27 13:28:39.121,-3.6686350958817466
2025-03-27 13:28:39.121,0.5200011931859987
2025-03-27 13:28:39.121,4.068515237563858
2025-03-27 13:28:39.121,3.3422215828966735
2025-03-27 13:28:39.131,-0.04403412012675273
2025-03-27 13:28:39.131,-1.750312136692222
2025-03-27 13:28:39.131,-0.6877817585825368
2025-03-27 13:28:39.131,0.22744156844576985
2025-03-27 13:28:39.131,-0.9597387430910788
2025-03-27 13:28:39.141,-2.3116443286165094
2025-03-27 13:28:39.141,-1.067067030627639
2025-03-27 13:28:39.141,2.202316100120916
2025-03-27 13:28:39.141,4.065754062692303
2025-03-27 13:28:39.142,2.2646094394513323
2025-03-27 13:28:39.151,-1.7727685356962235
2025-03-27 13:28:39.151,-4.348700627360064
2025-03-27 13:28:39.151,-3.0507014446996426
2025-03-27 13:28:39.152,0.8622230706999475
2025-03-27 13:28:39.152,3.5336969282247552
2025-03-27 13:28:39.159,2.484483515015678
2025-03-27 13:28:39.159,-0.5438202065149471
2025-03-27 13:28:39.159,-1.7309895145831196
2025-03-27 13:28:39.160,-0.2305545373495239
2025-03-27 13:28:39.160,0.7422098883847106
2025-03-27 13:28:39.169,-1.0517494516847135
2025-03-27 13:28:39.169,-2.851347162753214
2025-03-27 13:28:39.170,-0.639054563704825
2025-03-27 13:28:39.170,4.104835675205768
2025-03-27 13:28:39.170,5.144892582331413
2025-03-27 13:28:39.179,-0.06376049382113178
2025-03-27 13:28:39.179,-5.998968184060863
2025-03-27 13:28:39.180,-5.608339100859496
2025-03-27 13:28:39.180,0.7614586671616068
2025-03-27 13:28:39.189,5.90724092935377
2025-03-27 13:28:39.189,4.576822185469321
2025-03-27 13:28:39.189,-0.9677920020724857
2025-03-27 13:28:39.190,-4.537342919014123
2025-03-27 13:28:39.190,-3.0659878652327777
2025-03-27 13:28:39.199,0.9909790524268429
2025-03-27 13:28:39.199,3.1717306495954563
2025-03-27 13:28:39.199,1.6766375823181503
2025-03-27 13:28:39.200,-1.3482627708426556
2025-03-27 13:28:39.200,-2.4573711659309168
2025-03-27 13:28:39.209,-0.5243725349898838
2025-03-27 13:28:39.209,2.1987620604644467
2025-03-27 13:28:39.209,2.5345089973321198
2025-03-27 13:28:39.210,-0.20085963774024224
2025-03-27 13:28:39.210,-3.3293363105888836
2025-03-27 13:28:39.219,-3.402145660958211
2025-03-27 13:28:39.219,0.24423424031786553
2025-03-27 13:28:39.219,4.3703460141852055
2025-03-27 13:28:39.220,4.576762693591016
2025-03-27 13:28:39.220,-0.04898860316424927
2025-03-27 13:28:39.229,-5.053721631107782
2025-03-27 13:28:39.229,-4.797328882924101
2025-03-27 13:28:39.229,0.7607959457216188
2025-03-27 13:28:39.230,5.13980543329047
2025-03-27 13:28:39.230,2.973824471767095
2025-03-27 13:28:39.239,-2.828795686126543
2025-03-27 13:28:39.239,-4.468336961065552
2025-03-27 13:28:39.239,0.42451592144100614
2025-03-27 13:28:39.240,5.3114541836720495
2025-03-27 13:28:39.240,3.266312643535775
2025-03-27 13:28:39.249,-3.6745686043423214
2025-03-27 13:28:39.249,-6.858017762823663
2025-03-27 13:28:39.249,-2.0217667602261318
2025-03-27 13:28:39.250,5.335996908039024
2025-03-27 13:28:39.250,6.810802845468573
2025-03-27 13:28:39.259,1.0930816539654198
2025-03-27 13:28:39.259,-5.1155076514599545
2025-03-27 13:28:39.259,-5.401840977492238
2025-03-27 13:28:39.259,-0.4951242613950054
2025-03-27 13:28:39.260,3.7220570406773477
2025-03-27 13:28:39.269,3.302765945885411
2025-03-27 13:28:39.269,-0.10256319648609763
2025-03-27 13:28:39.269,-2.150539527279007
2025-03-27 13:28:39.269,-1.003642329994714
2025-03-27 13:28:39.270,1.0368221491083478
2025-03-27 13:28:39.279,0.8628118816168432
2025-03-27 13:28:39.279,-1.3015064136105274
2025-03-27 13:28:39.279,-2.142564110544313
2025-03-27 13:28:39.280,0.19543778644337484
2025-03-27 13:28:39.280,3.180699216289194
2025-03-27 13:28:39.289,2.847244642584591
2025-03-27 13:28:39.289,-0.9631936074222043
2025-03-27 13:28:39.289,-4.027879445383832
2025-03-27 13:28:39.289,-2.7545932759943415
2025-03-27 13:28:39.290,1.4732069605624367
2025-03-27 13:28:39.297,3.873993479400292
2025-03-27 13:28:39.297,1.807769695394793
2025-03-27 13:28:39.298,-2.189106735835133
2025-03-27 13:28:39.298,-3.3760286782507247
2025-03-27 13:28:39.298,-0.379631780093859
2025-03-27 13:28:39.307,3.1875951379777456
2025-03-27 13:28:39.307,3.0558640726307678
2025-03-27 13:28:39.308,-0.6362532128194822
2025-03-27 13:28:39.308,-3.6685432255619124
2025-03-27 13:28:39.308,-2.8538771523527804
2025-03-27 13:28:39.317,0.49670519244210665
2025-03-27 13:28:39.318,2.728091401150992
2025-03-27 13:28:39.318,2.2951164710297887
2025-03-27 13:28:39.318,0.7378985495588615
2025-03-27 13:28:39.318,-0.3019085648383371
2025-03-27 13:28:39.327,-1.1389431933514698
2025-03-27 13:28:39.327,-2.361060174607489
2025-03-27 13:28:39.328,-2.662955303863458
2025-03-27 13:28:39.328,-0.28180053380810755
2025-03-27 13:28:39.337,3.606268862349166
2025-03-27 13:28:39.337,4.908307899040458
2025-03-27 13:28:39.337,1.274389531623501
2025-03-27 13:28:39.338,-4.178107687374522
2025-03-27 13:28:39.338,-5.585927544937226
2025-03-27 13:28:39.347,-1.1604732940392877
2025-03-27 13:28:39.347,4.199935839337837
2025-03-27 13:28:39.347,4.439355789350918
2025-03-27 13:28:39.348,-0.29065380367704724
2025-03-27 13:28:39.348,-3.7820484049082537
2025-03-27 13:28:39.357,-1.70296488017898
2025-03-27 13:28:39.357,2.7079723648504213
2025-03-27 13:28:39.357,2.9152641224859783
2025-03-27 13:28:39.358,-1.9123209378417376
2025-03-27 13:28:39.358,-5.263486164130562
2025-03-27 13:28:39.367,-1.7872186315285439
2025-03-27 13:28:39.367,5.109231881201833
2025-03-27 13:28:39.367,6.988925598335048
2025-03-27 13:28:39.368,0.9633543369853642
2025-03-27 13:28:39.368,-6.490545410139323
2025-03-27 13:28:39.377,-7.234996903132374
2025-03-27 13:28:39.377,-0.8525874450433213
2025-03-27 13:28:39.377,5.512726742289823
2025-03-27 13:28:39.378,5.743152959309056
2025-03-27 13:28:39.378,1.0461080098511804
2025-03-27 13:28:39.387,-2.7477413041101824
2025-03-27 13:28:39.387,-2.4900930946197404
2025-03-27 13:28:39.387,-0.5661799867610832
2025-03-27 13:28:39.387,-0.5511535757749784
2025-03-27 13:28:39.388,-1.9542856266121778
2025-03-27 13:28:39.397,-1.1268047731969464
2025-03-27 13:28:39.397,2.9385431001241717
2025-03-27 13:28:39.397,6.0269537589485624
2025-03-27 13:28:39.397,3.4968702626384895
2025-03-27 13:28:39.398,-3.369192494452429
2025-03-27 13:28:39.407,-7.899616970897988
2025-03-27 13:28:39.407,-5.31050832859568
2025-03-27 13:28:39.407,1.9337411359713932
2025-03-27 13:28:39.407,6.866550865150183
2025-03-27 13:28:39.408,5.390671399201977
2025-03-27 13:28:39.415,0.002055819715217233
2025-03-27 13:28:39.416,-3.655923987062469
2025-03-27 13:28:39.416,-3.0304517252658383
2025-03-27 13:28:39.416,-0.7128250242298848
2025-03-27 13:28:39.416,-0.3253414476215722
2025-03-27 13:28:39.425,-1.5358553309474292
2025-03-27 13:28:39.426,-0.7171826688799817
2025-03-27 13:28:39.426,3.3754815635106628
2025-03-27 13:28:39.426,6.591893789965476
2025-03-27 13:28:39.426,3.859231308137074
2025-03-27 13:28:39.435,-3.945604514330871
2025-03-27 13:28:39.435,-9.63927635684367
2025-03-27 13:28:39.436,-7.083735367146237
2025-03-27 13:28:39.436,1.9859262109518598
2025-03-27 13:28:39.445,9.360656266258768
2025-03-27 13:28:39.445,8.45772747885649
2025-03-27 13:28:39.445,0.6151325450809655
2025-03-27 13:28:39.446,-6.633376679165455
2025-03-27 13:28:39.446,-7.163233988930884
2025-03-27 13:28:39.455,-1.8329857275582824
2025-03-27 13:28:39.455,3.4079985235739105
2025-03-27 13:28:39.455,4.176250880727058
2025-03-27 13:28:39.456,1.4593861231768392
2025-03-27 13:28:39.456,-1.0037554847870822
2025-03-27 13:28:39.465,-1.4256503774919902
2025-03-27 13:28:39.465,-0.8344448110066851
2025-03-27 13:28:39.465,-0.3752499994637272
2025-03-27 13:28:39.466,0.1610530006978351
2025-03-27 13:28:39.466,0.9803283364123344
2025-03-27 13:28:39.475,1.2170618317626414
2025-03-27 13:28:39.475,0.10157185779495384
2025-03-27 13:28:39.475,-1.6589373889738905
2025-03-27 13:28:39.476,-2.3540542108629254
2025-03-27 13:28:39.476,-0.8675887758855468
2025-03-27 13:28:39.485,2.1457695609849785
2025-03-27 13:28:39.485,4.228356008504756
2025-03-27 13:28:39.485,2.8006011751788904
2025-03-27 13:28:39.485,-1.9491124472940342
2025-03-27 13:28:39.486,-6.032889670414962
2025-03-27 13:28:39.495,-5.0363461293692815
2025-03-27 13:28:39.495,0.8743056220018456
2025-03-27 13:28:39.495,6.355135555275727
2025-03-27 13:28:39.496,6.178036999267316
2025-03-27 13:28:39.496,0.6787340368436622
2025-03-27 13:28:39.505,-4.778447358511116
2025-03-27 13:28:39.505,-5.482419207505141
2025-03-27 13:28:39.505,-1.7517646617109148
2025-03-27 13:28:39.505,2.3033543037143955
2025-03-27 13:28:39.506,3.3843874550959328
2025-03-27 13:28:39.515,1.6964631926614637
2025-03-27 13:28:39.515,-0.3640484775884523
2025-03-27 13:28:39.515,-1.0719256661211838
2025-03-27 13:28:39.515,-0.6333559661063455
2025-03-27 13:28:39.516,-0.2707870784649532
2025-03-27 13:28:39.525,-0.6173589224159066
2025-03-27 13:28:39.525,-0.9938634014625756
2025-03-27 13:28:39.525,-0.23511781416555222
2025-03-27 13:28:39.526,1.6320878266499856
2025-03-27 13:28:39.526,2.800492067892339
2025-03-27 13:28:39.533,1.4254421167233067
2025-03-27 13:28:39.533,-1.9279063809886028
2025-03-27 13:28:39.534,-4.27777441121069
2025-03-27 13:28:39.534,-3.1496207283769966
2025-03-27 13:28:39.534,0.848787622229791
2025-03-27 13:28:39.543,4.650136855381371
2025-03-27 13:28:39.544,5.3723962061293005
2025-03-27 13:28:39.544,2.124653358355778
2025-03-27 13:28:39.544,-3.530643444905243
2025-03-27 13:28:39.544,-7.705626042643295
2025-03-27 13:28:39.553,-6.101248179324602
2025-03-27 13:28:39.554,1.5886297995775587
2025-03-27 13:28:39.554,9.187711960971129
2025-03-27 13:28:39.554,8.884555641931795
2025-03-27 13:28:39.554,0.08300732589732507
2025-03-27 13:28:39.563,-8.675461403543096
2025-03-27 13:28:39.564,-8.723536730842712
2025-03-27 13:28:39.564,-0.9131360698162466
2025-03-27 13:28:39.564,5.996181400311119
2025-03-27 13:28:39.573,5.782608419446565
2025-03-27 13:28:39.573,0.8450083809752069
2025-03-27 13:28:39.574,-2.4749662666446386
2025-03-27 13:28:39.574,-1.8407466505321772
2025-03-27 13:28:39.574,-0.1410341705814241
2025-03-27 13:28:39.583,-0.1842763400596581
2025-03-27 13:28:39.583,-1.07705159760799
2025-03-27 13:28:39.583,-0.5821370858982712
2025-03-27 13:28:39.584,1.0792229584967783
2025-03-27 13:28:39.584,1.7449053403361827
2025-03-27 13:28:39.593,0.7820814691351073
2025-03-27 13:28:39.593,-0.18408837607316442
2025-03-27 13:28:39.593,-0.19757374662929886
2025-03-27 13:28:39.594,-0.47435802652014125
2025-03-27 13:28:39.594,-1.8450829730643696
2025-03-27 13:28:39.603,-2.4530963949455638
2025-03-27 13:28:39.603,-0.08429821215232519
2025-03-27 13:28:39.603,3.854464041909451
2025-03-27 13:28:39.604,4.952273593733337
2025-03-27 13:28:39.604,1.0130699157987015
2025-03-27 13:28:39.613,-4.725620449130047
2025-03-27 13:28:39.613,-6.6102292780787435
2025-03-27 13:28:39.614,-2.4814207702038176
2025-03-27 13:28:39.614,3.9584375646376486
2025-03-27 13:28:39.614,6.778655282342158
2025-03-27 13:28:39.623,3.753271474816056
2025-03-27 13:28:39.623,-1.6442745031930004
2025-03-27 13:28:39.623,-4.4400900035250945
2025-03-27 13:28:39.624,-3.5629580717466682
2025-03-27 13:28:39.624,-1.752053901805341
2025-03-27 13:28:39.633,-0.6295489245691956
2025-03-27 13:28:39.633,1.447883220188067
2025-03-27 13:28:39.634,5.260556185494953
2025-03-27 13:28:39.634,6.926122463211562
2025-03-27 13:28:39.634,1.8367004986271929
2025-03-27 13:28:39.641,-7.590703331800116
2025-03-27 13:28:39.642,-11.876534124164829
2025-03-27 13:28:39.642,-4.843105993555603
2025-03-27 13:28:39.642,7.7658267918548445
2025-03-27 13:28:39.642,13.341174308833818
2025-03-27 13:28:39.651,6.2460663672799
2025-03-27 13:28:39.651,-5.9546317342595305
2025-03-27 13:28:39.652,-11.086171832467407
2025-03-27 13:28:39.652,-5.358773731066288
2025-03-27 13:28:39.661,3.769054768741467
2025-03-27 13:28:39.661,6.805203169352731
2025-03-27 13:28:39.662,2.331077976150988
2025-03-27 13:28:39.662,-2.865386482138523
2025-03-27 13:28:39.662,-2.645544444030152
2025-03-27 13:28:39.671,1.5203352350030128
2025-03-27 13:28:39.671,3.3731755258647644
2025-03-27 13:28:39.671,0.15119625580441676
2025-03-27 13:28:39.671,-4.224422948908302
2025-03-27 13:28:39.672,-4.358489861817499
2025-03-27 13:28:39.681,0.18655823554648202
2025-03-27 13:28:39.681,4.7335659127083565
2025-03-27 13:28:39.681,4.847077082961823
2025-03-27 13:28:39.682,0.8020812224057355
2025-03-27 13:28:39.682,-3.2478591873259726
2025-03-27 13:28:39.691,-3.9504317389316594
2025-03-27 13:28:39.691,-1.8917487783308429
2025-03-27 13:28:39.691,0.22601610513273088
2025-03-27 13:28:39.692,1.4023595345692135
2025-03-27 13:28:39.692,2.583211843303905
2025-03-27 13:28:39.701,3.4835892062584763
2025-03-27 13:28:39.701,1.8804480474506493
2025-03-27 13:28:39.701,-2.61976872790768
2025-03-27 13:28:39.701,-6.20761879939387
2025-03-27 13:28:39.702,-4.6095584401904866
2025-03-27 13:28:39.711,1.4574895413646562
2025-03-27 13:28:39.711,6.5500707416255315
2025-03-27 13:28:39.711,6.203133336230748
2025-03-27 13:28:39.712,1.0076019189068626
2025-03-27 13:28:39.712,-4.744285043301346
2025-03-27 13:28:39.721,-6.856816227305334
2025-03-27 13:28:39.721,-3.7979650029445904
2025-03-27 13:28:39.721,2.3714497335355675
2025-03-27 13:28:39.722,6.796285086044384
2025-03-27 13:28:39.722,5.388375425193341
2025-03-27 13:28:39.731,-0.8185581445640098
2025-03-27 13:28:39.731,-5.830840477306878
2025-03-27 13:28:39.731,-4.810524379879395
2025-03-27 13:28:39.731,0.4491825120960925
2025-03-27 13:28:39.732,3.7947260525504243
2025-03-27 13:28:39.741,2.2515744562783
2025-03-27 13:28:39.741,-0.8509625722022037
2025-03-27 13:28:39.741,-1.0771576774829015
2025-03-27 13:28:39.741,1.023840050307316
2025-03-27 13:28:39.742,1.3174674966653062
2025-03-27 13:28:39.749,-1.4588834487372766
2025-03-27 13:28:39.750,-3.6009616842937016
2025-03-27 13:28:39.750,-1.5461697165777786
2025-03-27 13:28:39.750,3.068466407818633
2025-03-27 13:28:39.750,5.115017734098602
2025-03-27 13:28:39.759,1.9710440466952632
2025-03-27 13:28:39.760,-3.5111833369689625
2025-03-27 13:28:39.760,-5.978384606516601
2025-03-27 13:28:39.760,-2.9104567276119204
2025-03-27 13:28:39.769,2.91898440266769
2025-03-27 13:28:39.769,6.041882456411544
2025-03-27 13:28:39.770,3.6310961215726767
2025-03-27 13:28:39.770,-1.6332896237549481
2025-03-27 13:28:39.770,-4.510825411503623
2025-03-27 13:28:39.779,-2.972646870807
2025-03-27 13:28:39.779,0.07862681790659559
2025-03-27 13:28:39.780,1.2087054888358186
2025-03-27 13:28:39.780,0.8018037874205257
2025-03-27 13:28:39.780,1.3396657149411766
2025-03-27 13:28:39.789,2.656363112044013
2025-03-27 13:28:39.789,1.8029331589952085
2025-03-27 13:28:39.789,-2.025740943838627
2025-03-27 13:28:39.790,-5.137821409028047
2025-03-27 13:28:39.790,-3.6562015623664093
2025-03-27 13:28:39.799,1.316556429524178
2025-03-27 13:28:39.799,4.895955755244963
2025-03-27 13:28:39.799,4.204611097059558
2025-03-27 13:28:39.800,0.9186031578766698
2025-03-27 13:28:39.800,-1.9847900334597195
2025-03-27 13:28:39.809,-3.616763998388328
2025-03-27 13:28:39.809,-4.075896015809112
2025-03-27 13:28:39.810,-2.2094269871923355
2025-03-27 13:28:39.810,2.59386770186785
2025-03-27 13:28:39.810,7.004721561473407
2025-03-27 13:28:39.819,5.674393859101864
2025-03-27 13:28:39.819,-1.8671324393932758
2025-03-27 13:28:39.819,-8.586992694603468
2025-03-27 13:28:39.819,-6.964510900734084
2025-03-27 13:28:39.820,1.8795681590680822
2025-03-27 13:28:39.827,8.605893025197418
2025-03-27 13:28:39.827,6.038749137506227
2025-03-27 13:28:39.828,-2.6442248714959566
2025-03-27 13:28:39.828,-7.71729692614327
2025-03-27 13:28:39.828,-4.058571031857723
2025-03-27 13:28:39.837,3.542085617665604
2025-03-27 13:28:39.838,6.559428685166605
2025-03-27 13:28:39.838,2.378531168470028
2025-03-27 13:28:39.838,-3.7123289567245883
2025-03-27 13:28:39.838,-5.310435632814423
2025-03-27 13:28:39.849,-1.668205172485936
2025-03-27 13:28:39.849,2.7967326475607734
2025-03-27 13:28:39.849,4.053509707446037
2025-03-27 13:28:39.849,1.9335358532109521
2025-03-27 13:28:39.850,-1.1943246471229356
2025-03-27 13:28:39.857,-3.1393560543529824
2025-03-27 13:28:39.858,-2.82243206720202
2025-03-27 13:28:39.858,-0.29266489126803286
2025-03-27 13:28:39.858,2.8048068925768774
2025-03-27 13:28:39.858,3.7186716466487804
2025-03-27 13:28:39.867,1.1657496744092113
2025-03-27 13:28:39.868,-2.677330552908291
2025-03-27 13:28:39.868,-4.01480740331908
2025-03-27 13:28:39.868,-1.5474036014452204
2025-03-27 13:28:39.877,2.1020175291524765
2025-03-27 13:28:39.877,3.401535608679684
2025-03-27 13:28:39.877,1.6414739785013879
2025-03-27 13:28:39.878,-0.861149434411012
2025-03-27 13:28:39.878,-1.799069491491595
2025-03-27 13:28:39.887,-1.240476721143397
2025-03-27 13:28:39.887,-0.7066477966595136
2025-03-27 13:28:39.887,-0.625548316779991
2025-03-27 13:28:39.888,0.15038199862755203
2025-03-27 13:28:39.888,2.039219657002188
2025-03-27 13:28:39.897,3.165147070708934
2025-03-27 13:28:39.897,1.38074345710536
2025-03-27 13:28:39.897,-2.5024186486306843
2025-03-27 13:28:39.898,-4.856080718471009
2025-03-27 13:28:39.898,-3.0103883712712243
2025-03-27 13:28:39.907,1.7539448369346393
2025-03-27 13:28:39.907,5.260254371579333
2025-03-27 13:28:39.907,4.283357718351365
2025-03-27 13:28:39.908,-0.39954314848053185
2025-03-27 13:28:39.908,-4.482099553465989
2025-03-27 13:28:39.917,-4.174347757972214
2025-03-27 13:28:39.917,-0.2533786232555598
2025-03-27 13:28:39.917,2.7049417532846065
2025-03-27 13:28:39.917,1.8488447255914005
2025-03-27 13:28:39.918,-0.4490854262194822
2025-03-27 13:28:39.927,-0.25728310747354466
2025-03-27 13:28:39.927,1.8971516280622263
2025-03-27 13:28:39.927,1.6681665795027123
2025-03-27 13:28:39.927,-2.1732762705800783
2025-03-27 13:28:39.928,-4.852538200205976
2025-03-27 13:28:39.937,-1.9197643778938651
2025-03-27 13:28:39.937,3.8327640790744377
2025-03-27 13:28:39.937,5.298374935317112
2025-03-27 13:28:39.937,0.5004306845554249
2025-03-27 13:28:39.938,-4.4562492938018865
2025-03-27 13:28:39.947,-3.3159243122988484
2025-03-27 13:28:39.947,2.089951111073725
2025-03-27 13:28:39.947,4.3412115699757186
2025-03-27 13:28:39.947,0.28447496054476606
2025-03-27 13:28:39.948,-4.7410210862237046
2025-03-27 13:28:39.957,-3.7610533086046427
2025-03-27 13:28:39.957,2.6532551453265625
2025-03-27 13:28:39.957,6.569332234829686
2025-03-27 13:28:39.957,2.4493112805932062
2025-03-27 13:28:39.958,-5.336701134622133
2025-03-27 13:28:39.965,-7.164332962187917
2025-03-27 13:28:39.966,-0.16411883186864257
2025-03-27 13:28:39.966,7.498191106275557
2025-03-27 13:28:39.966,6.429261707058583
2025-03-27 13:28:39.966,-2.167781782752362
2025-03-27 13:28:39.975,-8.071713527584793
2025-03-27 13:28:39.976,-4.833576984350029
2025-03-27 13:28:39.976,2.988447728170029
2025-03-27 13:28:39.976,6.528524352410877
2025-03-27 13:28:39.976,3.2071616992903813
2025-03-27 13:28:39.985,-1.9271618746581338
2025-03-27 13:28:39.986,-3.5887096347199345
2025-03-27 13:28:39.986,-1.8094941731368586
2025-03-27 13:28:39.986,0.0294884705176319
2025-03-27 13:28:39.995,0.24596160344976617
2025-03-27 13:28:39.996,0.25671546232556247
2025-03-27 13:28:39.996,1.5330245423629638
2025-03-27 13:28:39.996,2.8273065150410237
2025-03-27 13:28:39.996,1.5594273647780712
2025-03-27 13:28:39.996,-2.269772905238288
2025-03-27 13:28:40.006,-4.956136590098824
2025-03-27 13:28:40.006,-3.0439217508669003
2025-03-27 13:28:40.006,2.123801196906788
2025-03-27 13:28:40.006,5.355940531084602
2025-03-27 13:28:40.006,3.462185429982568
2025-03-27 13:28:40.015,-1.1784014591742187
2025-03-27 13:28:40.015,-3.7349887633801324
2025-03-27 13:28:40.016,-2.521277818448778
2025-03-27 13:28:40.016,-0.07775135646294484
2025-03-27 13:28:40.025,0.8423941681217344
2025-03-27 13:28:40.025,0.527300186608932
2025-03-27 13:28:40.026,0.8457802111996446
2025-03-27 13:28:40.026,1.8806610381541777
2025-03-27 13:28:40.026,1.6647577490148642
2025-03-27 13:28:40.035,-0.7293771802682052
2025-03-27 13:28:40.035,-3.2731287018268707
2025-03-27 13:28:40.035,-3.139666469520276
2025-03-27 13:28:40.036,-0.17855739256254816
2025-03-27 13:28:40.036,2.905008753397191
2025-03-27 13:28:40.045,3.675448893953703
2025-03-27 13:28:40.045,2.0232238817021635
2025-03-27 13:28:40.045,-0.8744159160307728
2025-03-27 13:28:40.046,-3.782193153509523
2025-03-27 13:28:40.046,-4.851470911833956
2025-03-27 13:28:40.055,-2.0623257362268776
2025-03-27 13:28:40.055,3.659796241788323
2025-03-27 13:28:40.055,7.246640871235323
2025-03-27 13:28:40.055,4.352384628080925
2025-03-27 13:28:40.056,-2.754155504555135
2025-03-27 13:28:40.065,-6.932393700482008
2025-03-27 13:28:40.065,-4.4502736485289045
2025-03-27 13:28:40.066,0.9360081513976288
2025-03-27 13:28:40.066,3.3887917108862164
2025-03-27 13:28:40.066,2.1044901596641936
2025-03-27 13:28:40.075,0.7291155094911184
2025-03-27 13:28:40.075,1.1830872656965958
2025-03-27 13:28:40.075,1.2929708854741628
2025-03-27 13:28:40.076,-1.038509798750541
2025-03-27 13:28:40.076,-3.9594961957873727
2025-03-27 13:28:40.085,-3.789841579643789
2025-03-27 13:28:40.085,0.01783778902924174
2025-03-27 13:28:40.085,3.8972808664626775
2025-03-27 13:28:40.086,4.2706562673287385
2025-03-27 13:28:40.086,1.2944581858020323
2025-03-27 13:28:40.095,-2.0027596908946426
2025-03-27 13:28:40.095,-3.155541146194549
2025-03-27 13:28:40.095,-1.9399578294772384
2025-03-27 13:28:40.095,0.33149735920781126
2025-03-27 13:28:40.096,1.8389991652448998
2025-03-27 13:28:40.105,1.27300832369404
2025-03-27 13:28:40.105,-0.6645631124415843
2025-03-27 13:28:40.105,-1.2846109575417377
2025-03-27 13:28:40.106,0.8520006898930053
2025-03-27 13:28:40.106,3.1282360064622563
2025-03-27 13:28:40.113,1.5737053143591366
2025-03-27 13:28:40.114,-3.3329041954867766
2025-03-27 13:28:40.114,-6.0478560973739635
2025-03-27 13:28:40.114,-2.543829404080721
2025-03-27 13:28:40.114,4.242025837389875
2025-03-27 13:28:40.123,7.422377389593963
2025-03-27 13:28:40.124,3.874805771544164
2025-03-27 13:28:40.124,-2.707767469710436
2025-03-27 13:28:40.124,-6.315400237395021
2025-03-27 13:28:40.133,-4.690069986260187
2025-03-27 13:28:40.134,-0.3776604259291435
2025-03-27 13:28:40.134,3.086094686510669
2025-03-27 13:28:40.134,4.39438487454344
2025-03-27 13:28:40.134,3.730886340921425
2025-03-27 13:28:40.134,0.8763441976949748
2025-03-27 13:28:40.143,-3.728585595221868
2025-03-27 13:28:40.144,-6.722578996429329
2025-03-27 13:28:40.144,-3.9028165997711626
2025-03-27 13:28:40.144,3.811625596450768
2025-03-27 13:28:40.153,8.924699989189799
2025-03-27 13:28:40.153,5.030915814710539
2025-03-27 13:28:40.153,-4.62951179913122
2025-03-27 13:28:40.154,-9.576714679346983
2025-03-27 13:28:40.154,-4.156215236918909
2025-03-27 13:28:40.163,5.375846502184726
2025-03-27 13:28:40.163,8.14014854897081
2025-03-27 13:28:40.164,1.6350948136830592
2025-03-27 13:28:40.164,-5.650603361069494
2025-03-27 13:28:40.164,-5.063660609082969
2025-03-27 13:28:40.173,1.7291303845650052
2025-03-27 13:28:40.173,5.529852291658169
2025-03-27 13:28:40.173,1.556762857803806
2025-03-27 13:28:40.174,-4.768086615647664
2025-03-27 13:28:40.174,-5.056235780671069
2025-03-27 13:28:40.183,1.384223327611913
2025-03-27 13:28:40.183,6.70897987269064
2025-03-27 13:28:40.183,4.184741809034334
2025-03-27 13:28:40.183,-3.556463055515372
2025-03-27 13:28:40.184,-7.4970213837260005
2025-03-27 13:28:40.193,-2.919115357507494
2025-03-27 13:28:40.193,4.899335968670455
2025-03-27 13:28:40.193,6.997737127931283
2025-03-27 13:28:40.194,1.5050052214413754
2025-03-27 13:28:40.194,-4.592937658698509
2025-03-27 13:28:40.203,-4.737738475571121
2025-03-27 13:28:40.203,-0.5499878923610919
2025-03-27 13:28:40.203,1.9490277308912056
2025-03-27 13:28:40.204,1.0740047560918589
2025-03-27 13:28:40.204,0.37288009882704043
2025-03-27 13:28:40.213,1.7643818739282449
2025-03-27 13:28:40.213,2.392948311598135
2025-03-27 13:28:40.213,-0.36531467457984446
2025-03-27 13:28:40.213,-4.1308468217392535
2025-03-27 13:28:40.214,-4.219487446150506
2025-03-27 13:28:40.221,0.21101545975835312
2025-03-27 13:28:40.222,4.661851701192703
2025-03-27 13:28:40.222,4.067059160485569
2025-03-27 13:28:40.222,-1.344095733268286
2025-03-27 13:28:40.222,-5.341741341907156
