timestamp,bandpass_and_notch
2025-03-27 13:38:17.353,-0.28878307211753995
2025-03-27 13:38:17.353,3.8574792027207114
2025-03-27 13:38:17.353,4.852433001107632
2025-03-27 13:38:17.353,-4.071008334443118
2025-03-27 13:38:17.363,-19.650266706730186
2025-03-27 13:38:17.363,-21.119945956960663
2025-03-27 13:38:17.363,5.75299483043357
2025-03-27 13:38:17.363,39.99149172218017
2025-03-27 13:38:17.363,40.381058154580586
2025-03-27 13:38:17.371,-3.8836959654124867
2025-03-27 13:38:17.371,-51.893677653063094
2025-03-27 13:38:17.371,-53.159229662326105
2025-03-27 13:38:17.371,-4.924418052174104
2025-03-27 13:38:17.379,44.9660167747829
2025-03-27 13:38:17.380,51.249073687733606
2025-03-27 13:38:17.380,15.989428544965648
2025-03-27 13:38:17.380,-22.295286656069866
2025-03-27 13:38:17.380,-33.193244318313205
2025-03-27 13:38:17.389,-19.02536684190529
2025-03-27 13:38:17.389,-0.42020242210353875
2025-03-27 13:38:17.389,9.683784517296466
2025-03-27 13:38:17.389,12.762699511962653
2025-03-27 13:38:17.397,13.0807122982952
2025-03-27 13:38:17.397,9.221128879606612
2025-03-27 13:38:17.397,-1.0297404778699786
2025-03-27 13:38:17.397,-12.961099834265022
2025-03-27 13:38:17.397,-17.113297461304832
2025-03-27 13:38:17.407,-9.169290228187382
2025-03-27 13:38:17.407,4.771372010169413
2025-03-27 13:38:17.407,13.708892858693176
2025-03-27 13:38:17.407,11.737756673988793
2025-03-27 13:38:17.417,2.3755842364764304
2025-03-27 13:38:17.417,-5.909305626373243
2025-03-27 13:38:17.417,-7.549583757782834
2025-03-27 13:38:17.417,-3.731388858315127
2025-03-27 13:38:17.417,0.33440716477980686
2025-03-27 13:38:17.427,1.1242177949674572
2025-03-27 13:38:17.427,-0.22789997104548265
2025-03-27 13:38:17.427,-0.14264644005790603
2025-03-27 13:38:17.427,2.7612522671501267
2025-03-27 13:38:17.427,5.587133469220713
2025-03-27 13:38:17.427,4.059143790944293
2025-03-27 13:38:17.437,-2.3179158002201805
2025-03-27 13:38:17.437,-8.49038230747634
2025-03-27 13:38:17.437,-8.221140805547185
2025-03-27 13:38:17.437,-0.634685640066104
2025-03-27 13:38:17.447,8.114436707571242
2025-03-27 13:38:17.447,10.321868878103576
2025-03-27 13:38:17.447,4.0029333023934965
2025-03-27 13:38:17.447,-5.292734689231882
2025-03-27 13:38:17.447,-9.715994038024522
2025-03-27 13:38:17.457,-6.152356811453405
2025-03-27 13:38:17.457,1.5162862184566273
2025-03-27 13:38:17.457,6.615252569145255
2025-03-27 13:38:17.457,5.889340291662848
2025-03-27 13:38:17.457,1.63060473206028
2025-03-27 13:38:17.466,-1.8556720715037032
2025-03-27 13:38:17.466,-2.914179900314681
2025-03-27 13:38:17.466,-2.9800646540775393
2025-03-27 13:38:17.466,-3.108975629284304
2025-03-27 13:38:17.466,-1.954924407862258
2025-03-27 13:38:17.476,1.7820639353737997
2025-03-27 13:38:17.476,6.029567141291932
2025-03-27 13:38:17.476,6.429030578055437
2025-03-27 13:38:17.477,1.3275921477539732
2025-03-27 13:38:17.477,-5.4442247838157805
2025-03-27 13:38:17.486,-7.9485331274249145
2025-03-27 13:38:17.486,-4.160311062751236
2025-03-27 13:38:17.486,2.194535802681804
2025-03-27 13:38:17.487,5.791050282693442
2025-03-27 13:38:17.487,4.740271771967558
2025-03-27 13:38:17.495,1.1975874788267413
2025-03-27 13:38:17.495,-1.8253311430319124
2025-03-27 13:38:17.495,-3.0003017952067874
2025-03-27 13:38:17.495,-2.5239854433330633
2025-03-27 13:38:17.506,-1.0371190544922102
2025-03-27 13:38:17.506,0.6339521230007368
2025-03-27 13:38:17.506,1.5199000827667677
2025-03-27 13:38:17.507,1.2461276016375886
2025-03-27 13:38:17.507,0.5854988824104962
2025-03-27 13:38:17.507,0.5541557435929069
2025-03-27 13:38:17.515,0.8582369013870519
2025-03-27 13:38:17.515,0.004295086432455721
2025-03-27 13:38:17.515,-2.4179668948792155
2025-03-27 13:38:17.515,-4.099513206321152
2025-03-27 13:38:17.525,-2.0085048145273663
2025-03-27 13:38:17.525,3.4042435015132613
2025-03-27 13:38:17.525,7.1357076022626025
2025-03-27 13:38:17.525,4.415562393308578
2025-03-27 13:38:17.525,-3.3080452972891345
2025-03-27 13:38:17.535,-8.696916226910947
2025-03-27 13:38:17.535,-6.014477523004194
2025-03-27 13:38:17.535,2.3203502122794846
2025-03-27 13:38:17.535,8.012801864484771
2025-03-27 13:38:17.535,5.824567866791294
2025-03-27 13:38:17.545,-1.0315469893262554
2025-03-27 13:38:17.545,-5.145705618344552
2025-03-27 13:38:17.545,-3.454960161983343
2025-03-27 13:38:17.545,0.18217179008547235
2025-03-27 13:38:17.545,0.9398757528519717
2025-03-27 13:38:17.555,-0.6482741131850223
2025-03-27 13:38:17.555,-0.2783374945424301
2025-03-27 13:38:17.555,3.1201128520192367
2025-03-27 13:38:17.555,5.000030807364931
2025-03-27 13:38:17.555,1.2495192641960782
2025-03-27 13:38:17.565,-5.3883867974760165
2025-03-27 13:38:17.565,-7.6565198130862235
2025-03-27 13:38:17.565,-2.420227416201387
2025-03-27 13:38:17.565,5.2909453883201945
2025-03-27 13:38:17.565,7.795714785936642
2025-03-27 13:38:17.575,3.0127836653706837
2025-03-27 13:38:17.575,-3.8619359025286775
2025-03-27 13:38:17.575,-6.245340810883063
2025-03-27 13:38:17.575,-2.6819284669131243
2025-03-27 13:38:17.575,2.4670727654385263
2025-03-27 13:38:17.585,4.088189079947463
2025-03-27 13:38:17.585,1.5139023075678046
2025-03-27 13:38:17.585,-1.5102436139021453
2025-03-27 13:38:17.585,-1.6611942094284482
2025-03-27 13:38:17.585,0.2021811269915424
2025-03-27 13:38:17.594,0.7971131350965631
2025-03-27 13:38:17.595,-0.8757648866204358
2025-03-27 13:38:17.595,-2.139461315615248
2025-03-27 13:38:17.595,-0.36625285441378413
2025-03-27 13:38:17.595,3.0773558830011947
2025-03-27 13:38:17.604,3.9513630984303587
2025-03-27 13:38:17.604,0.33681675839555636
2025-03-27 13:38:17.604,-4.406769620440747
2025-03-27 13:38:17.605,-5.041126504919284
2025-03-27 13:38:17.605,-0.6078078852602311
2025-03-27 13:38:17.614,4.243971047185627
2025-03-27 13:38:17.614,4.691807587384605
2025-03-27 13:38:17.614,1.1165951746228033
2025-03-27 13:38:17.615,-2.2521491371850204
2025-03-27 13:38:17.615,-2.8571819298618735
2025-03-27 13:38:17.625,-1.8041260191395643
2025-03-27 13:38:17.625,-0.7408484272513012
2025-03-27 13:38:17.625,0.5292838800853759
2025-03-27 13:38:17.625,2.310200029998091
2025-03-27 13:38:17.625,3.0555783797715144
2025-03-27 13:38:17.633,1.134407625456743
2025-03-27 13:38:17.633,-2.283843472467098
2025-03-27 13:38:17.633,-3.891375202469565
2025-03-27 13:38:17.633,-1.8779325864551417
2025-03-27 13:38:17.633,1.9995512778010776
2025-03-27 13:38:17.643,4.061605508981547
2025-03-27 13:38:17.643,2.1277017841600965
2025-03-27 13:38:17.643,-2.2557062263991523
2025-03-27 13:38:17.643,-4.70997685154706
2025-03-27 13:38:17.653,-2.095321744565719
2025-03-27 13:38:17.653,3.5028420132174487
2025-03-27 13:38:17.653,5.928975211910567
2025-03-27 13:38:17.653,1.6710412787193072
2025-03-27 13:38:17.653,-5.1793950114035
2025-03-27 13:38:17.663,-6.818346657465351
2025-03-27 13:38:17.663,-0.9332216124735941
2025-03-27 13:38:17.663,6.100383736562112
2025-03-27 13:38:17.663,6.540269183634925
2025-03-27 13:38:17.663,0.24562879369246765
2025-03-27 13:38:17.673,-5.619692549659442
2025-03-27 13:38:17.673,-5.152719586674543
2025-03-27 13:38:17.673,0.17703250132931425
2025-03-27 13:38:17.673,4.2712409810776295
2025-03-27 13:38:17.673,3.435447831567066
2025-03-27 13:38:17.684,-0.46807467267961006
2025-03-27 13:38:17.684,-3.016940275862268
2025-03-27 13:38:17.684,-2.057775888535305
2025-03-27 13:38:17.684,0.667629475448549
2025-03-27 13:38:17.684,2.0716658275454063
2025-03-27 13:38:17.695,1.1612670639538738
2025-03-27 13:38:17.695,-0.44897674972563506
2025-03-27 13:38:17.695,-1.0262496480797882
2025-03-27 13:38:17.695,-0.6487680617353819
2025-03-27 13:38:17.695,-0.3040512679008258
2025-03-27 13:38:17.703,-0.13838630448501746
2025-03-27 13:38:17.703,0.37219441128429104
2025-03-27 13:38:17.703,1.048328935048798
2025-03-27 13:38:17.703,0.9883148632852251
2025-03-27 13:38:17.703,-0.051508879717442856
2025-03-27 13:38:17.712,-1.1513004855626188
2025-03-27 13:38:17.713,-1.3342720846498972
2025-03-27 13:38:17.713,-0.5709037697481185
2025-03-27 13:38:17.713,0.5064521278071908
2025-03-27 13:38:17.713,1.3045421338916272
2025-03-27 13:38:17.721,1.4036611503058856
2025-03-27 13:38:17.721,0.5612138864019157
2025-03-27 13:38:17.721,-0.8778929710826203
2025-03-27 13:38:17.721,-1.853219469239231
2025-03-27 13:38:17.721,-1.4644209196182327
2025-03-27 13:38:17.731,-0.011186543246303637
2025-03-27 13:38:17.731,1.249063842464822
2025-03-27 13:38:17.731,1.4585126015123935
2025-03-27 13:38:17.731,0.8964490122590174
2025-03-27 13:38:17.731,0.25301782052322824
2025-03-27 13:38:17.741,-0.31671689864325736
2025-03-27 13:38:17.741,-0.9835179260168446
2025-03-27 13:38:17.741,-1.4740461191875964
2025-03-27 13:38:17.741,-1.1871549660403078
2025-03-27 13:38:17.751,-0.027418146524260723
2025-03-27 13:38:17.751,1.3937021154244482
2025-03-27 13:38:17.751,2.254006609579451
2025-03-27 13:38:17.751,1.7587369083281765
2025-03-27 13:38:17.751,-0.4830652891161568
2025-03-27 13:38:17.761,-3.219023670790313
2025-03-27 13:38:17.761,-3.451054095934672
2025-03-27 13:38:17.761,0.30507247357883743
2025-03-27 13:38:17.761,4.713538865507096
2025-03-27 13:38:17.761,4.288219694890837
2025-03-27 13:38:17.771,-1.5010083600900366
2025-03-27 13:38:17.771,-6.271542433514721
2025-03-27 13:38:17.771,-4.0424527725540536
2025-03-27 13:38:17.771,3.0505058285238196
2025-03-27 13:38:17.771,6.957860561837793
2025-03-27 13:38:17.781,3.2542814325466134
2025-03-27 13:38:17.781,-3.858058122163552
2025-03-27 13:38:17.781,-6.656762115474059
2025-03-27 13:38:17.781,-2.45871126342489
2025-03-27 13:38:17.781,3.949442427132776
2025-03-27 13:38:17.791,5.8549515231968545
2025-03-27 13:38:17.791,1.689146816320146
2025-03-27 13:38:17.791,-3.7241688396288595
2025-03-27 13:38:17.791,-4.737030175104007
2025-03-27 13:38:17.791,-0.9628368497547435
2025-03-27 13:38:17.801,2.952559178592192
2025-03-27 13:38:17.801,3.1723046701122746
2025-03-27 13:38:17.801,0.6473786848859555
2025-03-27 13:38:17.801,-1.262402758815862
2025-03-27 13:38:17.801,-1.3300934242203943
2025-03-27 13:38:17.811,-0.8912110188520956
2025-03-27 13:38:17.811,-0.7851836920823977
2025-03-27 13:38:17.811,-0.23423981906115512
2025-03-27 13:38:17.811,1.0827291575389373
2025-03-27 13:38:17.811,1.89814425336901
2025-03-27 13:38:17.819,1.1691853733536053
2025-03-27 13:38:17.819,-0.35898824272660734
2025-03-27 13:38:17.819,-1.335408438339631
2025-03-27 13:38:17.819,-1.4952269942188945
2025-03-27 13:38:17.819,-1.2308028808420715
2025-03-27 13:38:17.830,-0.4221296441909819
2025-03-27 13:38:17.831,1.0782699520843873
2025-03-27 13:38:17.831,2.336040409304233
2025-03-27 13:38:17.831,2.0365662584027002
2025-03-27 13:38:17.831,0.2599238702635195
2025-03-27 13:38:17.839,-1.5036717866304061
2025-03-27 13:38:17.839,-2.181767504846601
2025-03-27 13:38:17.839,-1.9565866598765003
2025-03-27 13:38:17.839,-1.1448817433749787
2025-03-27 13:38:17.849,0.5193016460038165
2025-03-27 13:38:17.849,2.7823191178395557
2025-03-27 13:38:17.849,3.9596448936992585
2025-03-27 13:38:17.849,2.24694815256372
2025-03-27 13:38:17.849,-1.9916463947284
2025-03-27 13:38:17.859,-5.688782939245368
2025-03-27 13:38:17.859,-5.242402716694704
2025-03-27 13:38:17.859,0.07010234632356016
2025-03-27 13:38:17.859,6.364175068438046
2025-03-27 13:38:17.859,7.715757251867163
2025-03-27 13:38:17.869,1.9442915318060487
2025-03-27 13:38:17.869,-6.168087091955557
2025-03-27 13:38:17.869,-8.891070548517536
2025-03-27 13:38:17.869,-3.453054416857119
2025-03-27 13:38:17.869,4.8976651530336826
2025-03-27 13:38:17.879,8.326400346295207
2025-03-27 13:38:17.879,4.2770053455221015
2025-03-27 13:38:17.879,-2.6472981132228917
2025-03-27 13:38:17.879,-6.06681962162907
2025-03-27 13:38:17.879,-4.116262093989152
2025-03-27 13:38:17.889,-0.13431394554362158
2025-03-27 13:38:17.889,2.1384599692181
2025-03-27 13:38:17.889,2.5798672885451217
2025-03-27 13:38:17.889,3.0305082812099173
2025-03-27 13:38:17.889,3.0295833564395958
2025-03-27 13:38:17.899,0.082394517420455
2025-03-27 13:38:17.899,-5.216336572320299
2025-03-27 13:38:17.899,-7.457074247720328
2025-03-27 13:38:17.899,-2.6229654781600917
2025-03-27 13:38:17.899,5.485894929690974
2025-03-27 13:38:17.909,8.528238474372865
2025-03-27 13:38:17.909,3.5438595714827157
2025-03-27 13:38:17.909,-3.5109061688686762
2025-03-27 13:38:17.909,-5.447813849419482
2025-03-27 13:38:17.909,-2.3177567478831698
2025-03-27 13:38:17.918,0.35260949899294614
2025-03-27 13:38:17.919,-0.036356595394860386
2025-03-27 13:38:17.919,-0.34592157224355846
2025-03-27 13:38:17.919,2.2958346121308884
2025-03-27 13:38:17.919,5.17405207286315
2025-03-27 13:38:17.927,3.3133532288234875
2025-03-27 13:38:17.927,-3.152164583514064
2025-03-27 13:38:17.927,-7.871538478167119
2025-03-27 13:38:17.927,-5.410031728230248
2025-03-27 13:38:17.927,2.1515148814200864
2025-03-27 13:38:17.937,7.328706774923359
2025-03-27 13:38:17.937,5.514505862546825
2025-03-27 13:38:17.937,-0.4173970567469417
2025-03-27 13:38:17.937,-4.190035163416043
2025-03-27 13:38:17.948,-3.3144366818298154
2025-03-27 13:38:17.949,-0.6998032824222049
2025-03-27 13:38:17.949,0.26854521160988315
2025-03-27 13:38:17.949,-0.06308815673241125
2025-03-27 13:38:17.949,0.5969154527348677
2025-03-27 13:38:17.949,2.2567004312583037
2025-03-27 13:38:17.957,2.5451256977440835
2025-03-27 13:38:17.957,0.5236868794024556
2025-03-27 13:38:17.957,-1.811936311444666
2025-03-27 13:38:17.957,-2.5386566387392815
2025-03-27 13:38:17.967,-2.1731201233881605
2025-03-27 13:38:17.967,-1.6423933529207517
2025-03-27 13:38:17.967,0.0859517388339629
2025-03-27 13:38:17.967,3.7739949145605896
2025-03-27 13:38:17.967,6.388123587966394
2025-03-27 13:38:17.967,3.34577958895199
2025-03-27 13:38:17.977,-4.681976519912652
2025-03-27 13:38:17.977,-10.068357093740591
2025-03-27 13:38:17.977,-6.048944371478308
2025-03-27 13:38:17.977,4.569608659083133
2025-03-27 13:38:17.987,11.2208296229739
2025-03-27 13:38:17.987,6.954264918398437
2025-03-27 13:38:17.987,-3.6967646888660517
2025-03-27 13:38:17.987,-9.742980496153297
2025-03-27 13:38:17.987,-5.8228403886847175
2025-03-27 13:38:17.997,2.6316246099242426
2025-03-27 13:38:17.997,6.471788351484824
2025-03-27 13:38:17.997,3.080226863622066
2025-03-27 13:38:17.997,-1.9987616871078047
2025-03-27 13:38:17.997,-2.7059799584343276
2025-03-27 13:38:18.007,0.520873939296509
2025-03-27 13:38:18.007,2.2975036820221977
2025-03-27 13:38:18.007,-0.34945133200577405
2025-03-27 13:38:18.007,-4.060455888473307
2025-03-27 13:38:18.007,-3.390493283435408
2025-03-27 13:38:18.017,2.0051280083150242
2025-03-27 13:38:18.017,6.316631394345074
2025-03-27 13:38:18.017,4.371720481518976
2025-03-27 13:38:18.017,-2.0290126477297235
2025-03-27 13:38:18.017,-6.203505184404627
2025-03-27 13:38:18.027,-4.34001709181656
2025-03-27 13:38:18.027,0.7743452964927399
2025-03-27 13:38:18.027,3.86785123513811
2025-03-27 13:38:18.027,3.0611613093393215
2025-03-27 13:38:18.027,0.6103829336179816
2025-03-27 13:38:18.035,-0.8305273296712444
2025-03-27 13:38:18.035,-0.9592870771318616
2025-03-27 13:38:18.035,-0.9571655512796544
2025-03-27 13:38:18.035,-1.2590379176971338
2025-03-27 13:38:18.035,-1.0535930032231806
2025-03-27 13:38:18.046,0.23215111327474192
2025-03-27 13:38:18.047,1.7271950971422336
2025-03-27 13:38:18.047,1.9472496705521074
2025-03-27 13:38:18.047,0.6273580967284471
2025-03-27 13:38:18.047,-0.9393076620845463
2025-03-27 13:38:18.055,-1.46665152678277
2025-03-27 13:38:18.055,-0.9234870339767428
2025-03-27 13:38:18.055,-0.07300141186170675
2025-03-27 13:38:18.055,0.49681168820688465
2025-03-27 13:38:18.067,0.5825675562757836
2025-03-27 13:38:18.067,0.26542490938890395
2025-03-27 13:38:18.067,-0.030714231301036635
2025-03-27 13:38:18.067,0.12518240343018192
2025-03-27 13:38:18.067,0.4970813811534896
2025-03-27 13:38:18.067,0.30406911927389063
2025-03-27 13:38:18.075,-0.6708969981690885
2025-03-27 13:38:18.075,-1.47378923456188
2025-03-27 13:38:18.075,-0.9406462506263691
2025-03-27 13:38:18.075,0.7811727640607813
2025-03-27 13:38:18.075,2.0479927922801484
2025-03-27 13:38:18.085,1.3401964382931768
2025-03-27 13:38:18.085,-0.9059462303395209
2025-03-27 13:38:18.085,-2.345048141072444
2025-03-27 13:38:18.085,-1.0748830286493676
2025-03-27 13:38:18.095,1.8479343542831856
2025-03-27 13:38:18.095,2.8887071257111567
2025-03-27 13:38:18.095,0.027681679582197083
2025-03-27 13:38:18.095,-3.939879865669569
2025-03-27 13:38:18.095,-3.7782274146523953
2025-03-27 13:38:18.105,1.5830720369594773
2025-03-27 13:38:18.105,6.403995910827576
2025-03-27 13:38:18.105,4.343837113412753
2025-03-27 13:38:18.105,-3.1474754461124834
2025-03-27 13:38:18.105,-7.567806074937247
2025-03-27 13:38:18.115,-3.6341260296855213
2025-03-27 13:38:18.115,3.8767284382743705
2025-03-27 13:38:18.115,6.167367664276368
2025-03-27 13:38:18.115,1.5188527116975026
2025-03-27 13:38:18.115,-3.346914401962129
2025-03-27 13:38:18.125,-2.7675773357341718
2025-03-27 13:38:18.125,0.994298757989987
2025-03-27 13:38:18.125,2.072030021178994
2025-03-27 13:38:18.125,-0.7551814773939693
2025-03-27 13:38:18.125,-3.0444013762352706
2025-03-27 13:38:18.135,-1.0383717668813937
2025-03-27 13:38:18.135,3.393466995600113
2025-03-27 13:38:18.135,4.795040053276466
2025-03-27 13:38:18.135,0.4343555156537787
2025-03-27 13:38:18.135,-5.82918808264717
2025-03-27 13:38:18.145,-6.686213228762487
2025-03-27 13:38:18.145,0.45145434083918823
2025-03-27 13:38:18.145,8.847088040969874
2025-03-27 13:38:18.145,8.505177046181519
2025-03-27 13:38:18.145,-1.9198758520801398
2025-03-27 13:38:18.153,-11.652978752036537
2025-03-27 13:38:18.153,-9.226072195259706
2025-03-27 13:38:18.153,3.4468504054367055
2025-03-27 13:38:18.153,12.214264143088984
2025-03-27 13:38:18.153,7.274067600735202
2025-03-27 13:38:18.163,-4.793360053067766
2025-03-27 13:38:18.163,-9.234949000612248
2025-03-27 13:38:18.163,-1.7346984200486708
2025-03-27 13:38:18.163,6.498385865602962
2025-03-27 13:38:18.173,3.9213023374707863
2025-03-27 13:38:18.173,-5.8656659793840245
2025-03-27 13:38:18.173,-8.872749731635814
2025-03-27 13:38:18.173,0.5773647275061171
2025-03-27 13:38:18.173,11.815109948730978
2025-03-27 13:38:18.181,10.893394776497123
2025-03-27 13:38:18.181,-2.070157920013838
2025-03-27 13:38:18.181,-12.997936993428171
2025-03-27 13:38:18.181,-10.617131053322243
2025-03-27 13:38:18.181,1.1462299330942294
2025-03-27 13:38:18.191,9.31300591787807
2025-03-27 13:38:18.191,7.235813748555244
2025-03-27 13:38:18.191,0.1524738842637362
2025-03-27 13:38:18.191,-3.6084324784055988
2025-03-27 13:38:18.201,-2.425956803914295
2025-03-27 13:38:18.201,-0.4979192464653213
2025-03-27 13:38:18.201,-0.4839004938038132
2025-03-27 13:38:18.201,-0.9253823896999224
2025-03-27 13:38:18.201,-0.19598521485192694
2025-03-27 13:38:18.211,0.8637129127075737
2025-03-27 13:38:18.211,1.2490515223595755
2025-03-27 13:38:18.211,1.629089760750004
2025-03-27 13:38:18.211,2.0669702701130603
2025-03-27 13:38:18.211,0.548266581422149
2025-03-27 13:38:18.221,-3.4719628880973086
2025-03-27 13:38:18.221,-5.963578844429124
2025-03-27 13:38:18.221,-2.47505318925559
2025-03-27 13:38:18.221,4.900664743342826
2025-03-27 13:38:18.221,8.357271359500224
2025-03-27 13:38:18.232,3.481703067203818
2025-03-27 13:38:18.232,-4.976709887410306
2025-03-27 13:38:18.232,-8.355500535579782
2025-03-27 13:38:18.232,-3.693991508676241
2025-03-27 13:38:18.232,3.762409969031355
2025-03-27 13:38:18.241,6.866532856730033
2025-03-27 13:38:18.241,3.511149447829795
2025-03-27 13:38:18.241,-2.470669750484196
2025-03-27 13:38:18.241,-5.525767309875148
2025-03-27 13:38:18.241,-3.135651562418272
2025-03-27 13:38:18.251,2.2352538112876954
2025-03-27 13:38:18.251,5.255596936993811
2025-03-27 13:38:18.251,2.715452160829938
2025-03-27 13:38:18.251,-2.9238002010729005
2025-03-27 13:38:18.251,-5.6676414800409765
2025-03-27 13:38:18.261,-2.3932525890016634
2025-03-27 13:38:18.261,3.4835801298602895
2025-03-27 13:38:18.261,5.704395481382689
2025-03-27 13:38:18.261,2.160976945031957
2025-03-27 13:38:18.261,-3.0711494393330905
2025-03-27 13:38:18.271,-4.754711502872876
2025-03-27 13:38:18.271,-2.059810720841316
2025-03-27 13:38:18.271,1.6242090213905442
2025-03-27 13:38:18.271,3.0858158920528864
2025-03-27 13:38:18.271,2.0347847127641874
2025-03-27 13:38:18.279,0.09856101869435742
2025-03-27 13:38:18.279,-1.242413016911883
2025-03-27 13:38:18.279,-1.4681848990746964
2025-03-27 13:38:18.279,-0.9055432965223255
2025-03-27 13:38:18.279,-0.324572003489019
2025-03-27 13:38:18.291,-0.1188948724162842
2025-03-27 13:38:18.291,0.23236187218809096
2025-03-27 13:38:18.291,1.2202079982680851
2025-03-27 13:38:18.291,1.9075102549480185
2025-03-27 13:38:18.291,0.7778689145349663
2025-03-27 13:38:18.301,-1.5716875290111383
2025-03-27 13:38:18.301,-2.258611707806505
2025-03-27 13:38:18.301,-0.020691018706625902
2025-03-27 13:38:18.301,2.158731577883957
2025-03-27 13:38:18.301,0.6373471724036396
2025-03-27 13:38:18.310,-3.2336161473502143
2025-03-27 13:38:18.311,-3.7908941617228473
2025-03-27 13:38:18.311,1.6094038057486475
2025-03-27 13:38:18.311,7.807673185463881
2025-03-27 13:38:18.311,6.627889968274078
2025-03-27 13:38:18.319,-3.114233907530045
2025-03-27 13:38:18.319,-12.080859094338964
2025-03-27 13:38:18.319,-9.442322678424643
2025-03-27 13:38:18.319,3.9869373737981713
2025-03-27 13:38:18.328,14.495881965823406
2025-03-27 13:38:18.329,10.194460610543047
2025-03-27 13:38:18.329,-4.620918259725894
2025-03-27 13:38:18.329,-13.81156198295578
2025-03-27 13:38:18.329,-8.155954025749415
2025-03-27 13:38:18.339,4.580911401238133
2025-03-27 13:38:18.339,10.212365575026105
2025-03-27 13:38:18.339,4.7711032442743715
2025-03-27 13:38:18.339,-3.353046902674297
2025-03-27 13:38:18.339,-5.592812618524386
2025-03-27 13:38:18.349,-2.21949767707366
2025-03-27 13:38:18.349,1.3093572915966498
2025-03-27 13:38:18.349,2.20140028550319
2025-03-27 13:38:18.349,1.568638720705556
2025-03-27 13:38:18.349,0.5522864433631285
2025-03-27 13:38:18.359,-0.9718725155794725
2025-03-27 13:38:18.359,-2.2851241761855423
2025-03-27 13:38:18.359,-1.6046376488535425
2025-03-27 13:38:18.359,1.1217499331535632
2025-03-27 13:38:18.359,3.1642086691892963
2025-03-27 13:38:18.367,2.025825407721971
2025-03-27 13:38:18.367,-1.3963269235603712
2025-03-27 13:38:18.367,-3.6279588778740726
2025-03-27 13:38:18.367,-2.256522209424157
2025-03-27 13:38:18.367,1.6321737575534094
2025-03-27 13:38:18.377,4.280879669342365
2025-03-27 13:38:18.377,2.55959809261895
2025-03-27 13:38:18.377,-2.638979498688221
2025-03-27 13:38:18.377,-6.151143894260757
2025-03-27 13:38:18.387,-3.2128104084820395
2025-03-27 13:38:18.387,4.510357163323706
2025-03-27 13:38:18.387,8.991940622497486
2025-03-27 13:38:18.387,4.216104933354947
2025-03-27 13:38:18.387,-5.889801194908507
2025-03-27 13:38:18.397,-10.635550002916654
2025-03-27 13:38:18.397,-4.686343007326818
2025-03-27 13:38:18.397,5.402293271698724
2025-03-27 13:38:18.397,8.9043316993456
2025-03-27 13:38:18.397,3.4951492433746827
2025-03-27 13:38:18.407,-3.125694637351554
2025-03-27 13:38:18.407,-3.896524030096731
2025-03-27 13:38:18.407,-0.687996485333984
2025-03-27 13:38:18.407,0.23096797833056237
2025-03-27 13:38:18.407,-2.0673111026593203
2025-03-27 13:38:18.417,-2.361606507974804
2025-03-27 13:38:18.417,2.056143491597073
2025-03-27 13:38:18.417,6.3549190963883255
2025-03-27 13:38:18.417,4.288515375915981
2025-03-27 13:38:18.417,-3.041269198938018
2025-03-27 13:38:18.427,-7.842660193318322
2025-03-27 13:38:18.427,-4.821789334893605
2025-03-27 13:38:18.427,2.809524460997088
2025-03-27 13:38:18.427,7.2774127685059495
2025-03-27 13:38:18.427,4.607642982092316
2025-03-27 13:38:18.437,-1.9915828561174487
2025-03-27 13:38:18.437,-6.113204527219179
2025-03-27 13:38:18.437,-4.304356310072025
2025-03-27 13:38:18.437,1.3190170525362976
2025-03-27 13:38:18.437,5.368358123698593
2025-03-27 13:38:18.447,4.025470350964939
2025-03-27 13:38:18.447,-1.3926215438439882
2025-03-27 13:38:18.447,-5.405556340469742
2025-03-27 13:38:18.447,-3.6973861557497467
2025-03-27 13:38:18.447,2.162798459945325
2025-03-27 13:38:18.457,6.010635859390955
2025-03-27 13:38:18.457,3.5808164547484935
2025-03-27 13:38:18.457,-2.783291376096805
2025-03-27 13:38:18.457,-6.510380697099543
2025-03-27 13:38:18.457,-3.7381164131906277
2025-03-27 13:38:18.466,2.6551693615228538
2025-03-27 13:38:18.467,6.150313884135363
2025-03-27 13:38:18.467,3.4573015272533527
2025-03-27 13:38:18.467,-2.1704104113859475
2025-03-27 13:38:18.467,-4.711756085498703
2025-03-27 13:38:18.475,-2.033672427293519
2025-03-27 13:38:18.475,2.0592507876784567
2025-03-27 13:38:18.475,2.6416468648083167
2025-03-27 13:38:18.475,-0.3858756292563046
2025-03-27 13:38:18.475,-2.3784557622536338
2025-03-27 13:38:18.485,-0.15014221244806267
2025-03-27 13:38:18.485,3.2927057629495455
2025-03-27 13:38:18.485,2.1944861211816136
2025-03-27 13:38:18.485,-3.5601079348565943
2025-03-27 13:38:18.485,-6.366509791134405
2025-03-27 13:38:18.497,-0.27122715014897364
2025-03-27 13:38:18.497,9.077615115535265
2025-03-27 13:38:18.497,9.084549767800043
2025-03-27 13:38:18.497,-3.347995127075124
2025-03-27 13:38:18.505,-14.91242667371832
2025-03-27 13:38:18.505,-10.564038306324674
2025-03-27 13:38:18.505,6.8725094225851855
2025-03-27 13:38:18.505,18.075445017129866
2025-03-27 13:38:18.505,9.899135975207466
2025-03-27 13:38:18.513,-8.468509339482223
2025-03-27 13:38:18.513,-16.4845273398883
2025-03-27 13:38:18.513,-6.719600760065287
2025-03-27 13:38:18.513,7.685241826750247
2025-03-27 13:38:18.523,10.642423993128531
2025-03-27 13:38:18.523,2.0591534538091163
2025-03-27 13:38:18.523,-5.22251408965356
2025-03-27 13:38:18.523,-3.5136299057228304
2025-03-27 13:38:18.523,1.7241316463238507
2025-03-27 13:38:18.533,2.2500115733661463
2025-03-27 13:38:18.533,-1.3690723426333473
2025-03-27 13:38:18.533,-2.6968304142544244
2025-03-27 13:38:18.533,0.046702788588909167
2025-03-27 13:38:18.533,2.232086329191866
2025-03-27 13:38:18.543,0.9009096381644774
2025-03-27 13:38:18.543,-0.9387161681280558
2025-03-27 13:38:18.543,0.03529715792036732
2025-03-27 13:38:18.543,1.796837332189627
2025-03-27 13:38:18.543,0.5493512213074428
2025-03-27 13:38:18.553,-2.594080158890989
2025-03-27 13:38:18.553,-2.9707260337876153
2025-03-27 13:38:18.553,0.270085944124135
2025-03-27 13:38:18.553,2.6564404484681092
2025-03-27 13:38:18.553,1.2470663145526333
2025-03-27 13:38:18.563,-0.9457442444716666
2025-03-27 13:38:18.563,0.09647761928627546
2025-03-27 13:38:18.563,2.7665506302589047
2025-03-27 13:38:18.563,1.8688846482147936
2025-03-27 13:38:18.563,-3.3465401920845674
2025-03-27 13:38:18.573,-6.915684451444564
2025-03-27 13:38:18.573,-3.469318108452635
2025-03-27 13:38:18.573,4.457649735671601
2025-03-27 13:38:18.573,8.842918101002356
2025-03-27 13:38:18.573,5.2537898983092575
2025-03-27 13:38:18.583,-2.609132247159652
2025-03-27 13:38:18.583,-7.556386444544661
2025-03-27 13:38:18.583,-6.188933399152454
2025-03-27 13:38:18.583,-0.8044050984106
2025-03-27 13:38:18.583,4.148390835307953
2025-03-27 13:38:18.593,5.705948830300234
2025-03-27 13:38:18.593,3.3832866712568235
2025-03-27 13:38:18.593,-1.0481047230639664
2025-03-27 13:38:18.593,-4.2238062364999545
2025-03-27 13:38:18.593,-3.496056868349152
2025-03-27 13:38:18.603,0.15512989656267281
2025-03-27 13:38:18.603,2.6394332313032107
2025-03-27 13:38:18.603,1.4513158397857029
2025-03-27 13:38:18.603,-1.1544798748608094
2025-03-27 13:38:18.603,-1.3185988145006136
2025-03-27 13:38:18.611,0.937224748786597
2025-03-27 13:38:18.611,1.8590858834240944
2025-03-27 13:38:18.611,-0.2407993662531387
2025-03-27 13:38:18.611,-2.1785120123610406
2025-03-27 13:38:18.611,-0.6156742123991338
2025-03-27 13:38:18.621,2.522600831544916
2025-03-27 13:38:18.621,2.293951473846694
2025-03-27 13:38:18.621,-2.031482224807788
2025-03-27 13:38:18.621,-5.079743839861189
2025-03-27 13:38:18.631,-2.117801449540761
2025-03-27 13:38:18.631,4.287513928040751
2025-03-27 13:38:18.631,6.78159625665972
2025-03-27 13:38:18.631,2.100199675437965
2025-03-27 13:38:18.631,-4.827904641552481
2025-03-27 13:38:18.641,-6.652719480035445
2025-03-27 13:38:18.641,-2.005109488636197
2025-03-27 13:38:18.641,3.554696443748137
2025-03-27 13:38:18.641,4.491195664871998
2025-03-27 13:38:18.641,1.2482116425022833
2025-03-27 13:38:18.651,-1.5009676054231107
2025-03-27 13:38:18.651,-1.1252656913172148
2025-03-27 13:38:18.651,0.3272648617646422
2025-03-27 13:38:18.651,-0.12697610412389077
2025-03-27 13:38:18.651,-1.9103587542491351
2025-03-27 13:38:18.661,-1.863030321255219
2025-03-27 13:38:18.661,0.8812110865531243
2025-03-27 13:38:18.661,3.2429100972728238
2025-03-27 13:38:18.661,2.281023600490916
2025-03-27 13:38:18.661,-0.7941672952336023
2025-03-27 13:38:18.671,-2.4068468347368315
2025-03-27 13:38:18.671,-1.4583412570467753
2025-03-27 13:38:18.671,-0.15428866906334612
2025-03-27 13:38:18.671,-0.042183957842034665
2025-03-27 13:38:18.671,0.20225961945445414
2025-03-27 13:38:18.681,1.7674087154553624
2025-03-27 13:38:18.681,2.7211450477945913
2025-03-27 13:38:18.681,0.5722703906924381
2025-03-27 13:38:18.681,-3.198425438422682
2025-03-27 13:38:18.681,-4.120742263415824
2025-03-27 13:38:18.691,-0.6172500865556301
2025-03-27 13:38:18.691,3.523899300163869
2025-03-27 13:38:18.691,3.7481238261122294
2025-03-27 13:38:18.691,0.2217058381713206
2025-03-27 13:38:18.691,-2.77242682279902
2025-03-27 13:38:18.701,-2.188102746095748
2025-03-27 13:38:18.701,0.5301794753651212
2025-03-27 13:38:18.701,1.7441066807166539
2025-03-27 13:38:18.701,0.18666438294778281
2025-03-27 13:38:18.701,-1.6882694812335926
2025-03-27 13:38:18.709,-1.0079597590417895
2025-03-27 13:38:18.709,1.6797072314366888
2025-03-27 13:38:18.709,2.894499151595256
2025-03-27 13:38:18.709,0.6243873077570343
2025-03-27 13:38:18.709,-2.870574196991991
2025-03-27 13:38:18.719,-3.575176515778449
2025-03-27 13:38:18.719,-0.5516990081813026
2025-03-27 13:38:18.719,2.9479395274274376
2025-03-27 13:38:18.719,3.4323200529663382
2025-03-27 13:38:18.719,1.0634284892818648
2025-03-27 13:38:18.729,-1.3957548994166324
2025-03-27 13:38:18.729,-2.532854485780713
2025-03-27 13:38:18.729,-3.00680035078871
2025-03-27 13:38:18.729,-2.3870107947542114
2025-03-27 13:38:18.739,1.3360036848930619
2025-03-27 13:38:18.739,6.933259617573873
2025-03-27 13:38:18.739,7.859234636889742
2025-03-27 13:38:18.739,-0.3259413272264564
2025-03-27 13:38:18.739,-11.394311376184662
2025-03-27 13:38:18.749,-12.788668324690523
2025-03-27 13:38:18.749,-0.5925634974021697
2025-03-27 13:38:18.749,13.669922552383404
2025-03-27 13:38:18.749,14.836451108310506
2025-03-27 13:38:18.749,1.3959882035599063
2025-03-27 13:38:18.757,-12.494569893713077
2025-03-27 13:38:18.757,-12.90196515756512
2025-03-27 13:38:18.757,-1.2733125717829825
2025-03-27 13:38:18.757,8.607567925967915
2025-03-27 13:38:18.767,7.3642029792323624
2025-03-27 13:38:18.767,-0.19875452451384257
2025-03-27 13:38:18.767,-3.415694210604497
2025-03-27 13:38:18.767,-0.07543678160765455
2025-03-27 13:38:18.767,2.223793748114188
2025-03-27 13:38:18.777,-1.6717749920543687
2025-03-27 13:38:18.777,-6.414166469799386
2025-03-27 13:38:18.777,-3.6549506303815162
2025-03-27 13:38:18.777,5.4537380374957705
2025-03-27 13:38:18.777,10.30800009732015
2025-03-27 13:38:18.787,3.9745415955918197
2025-03-27 13:38:18.787,-7.503053167673474
2025-03-27 13:38:18.787,-11.539552400650784
2025-03-27 13:38:18.787,-3.423258121326639
2025-03-27 13:38:18.787,8.286648535645831
2025-03-27 13:38:18.795,11.245233693277724
2025-03-27 13:38:18.795,2.6530396870154225
2025-03-27 13:38:18.795,-8.168175857850516
2025-03-27 13:38:18.795,-10.169803327419633
2025-03-27 13:38:18.805,-2.1614917120146404
2025-03-27 13:38:18.805,6.8250305725520475
2025-03-27 13:38:18.805,7.97540473281244
2025-03-27 13:38:18.805,1.7600590076805995
2025-03-27 13:38:18.805,-4.108381572023718
2025-03-27 13:38:18.815,-4.23986202843417
2025-03-27 13:38:18.815,-0.82703299500709
2025-03-27 13:38:18.815,0.8550748173895654
2025-03-27 13:38:18.815,-0.2784214020978167
2025-03-27 13:38:18.815,-0.7164079982577197
2025-03-27 13:38:18.825,1.5628554793777214
2025-03-27 13:38:18.825,3.681801773567
2025-03-27 13:38:18.825,1.9873044339763792
2025-03-27 13:38:18.825,-2.3605715009284243
2025-03-27 13:38:18.825,-4.432914478358259
2025-03-27 13:38:18.835,-1.8939728922996486
2025-03-27 13:38:18.835,1.9968561399557676
2025-03-27 13:38:18.835,2.7066483085700153
2025-03-27 13:38:18.835,0.17149274473711718
2025-03-27 13:38:18.835,-1.5665717103560945
2025-03-27 13:38:18.845,-0.041524853344342916
2025-03-27 13:38:18.845,2.3212393757561554
2025-03-27 13:38:18.845,1.5813212358138042
2025-03-27 13:38:18.845,-2.153741706482811
2025-03-27 13:38:18.845,-4.335508417586311
2025-03-27 13:38:18.855,-1.5763766772881078
2025-03-27 13:38:18.855,3.6130360177610172
2025-03-27 13:38:18.855,5.206438561835457
2025-03-27 13:38:18.855,0.8791752510885478
2025-03-27 13:38:18.855,-4.688352355149002
2025-03-27 13:38:18.865,-5.035234463877301
2025-03-27 13:38:18.865,0.32020204660128426
2025-03-27 13:38:18.865,5.229158632904638
2025-03-27 13:38:18.865,4.2547939650126825
2025-03-27 13:38:18.865,-1.1271381893131303
2025-03-27 13:38:18.875,-4.774610330651381
2025-03-27 13:38:18.875,-3.156488001375842
2025-03-27 13:38:18.875,1.214748189533687
2025-03-27 13:38:18.875,3.430177802623657
2025-03-27 13:38:18.875,1.7800290575396822
2025-03-27 13:38:18.885,-1.0670009446587672
2025-03-27 13:38:18.885,-1.805847564919091
2025-03-27 13:38:18.885,-0.2540540378494956
2025-03-27 13:38:18.885,1.0656592346930809
2025-03-27 13:38:18.885,0.4427208766209112
2025-03-27 13:38:18.893,-0.9816425173657582
2025-03-27 13:38:18.893,-1.0286797102550584
2025-03-27 13:38:18.893,0.449516713240121
2025-03-27 13:38:18.893,1.3663312785492767
2025-03-27 13:38:18.903,0.3605393720013738
2025-03-27 13:38:18.903,-1.0967997438729704
2025-03-27 13:38:18.903,-0.594994104849556
2025-03-27 13:38:18.903,1.542998794685405
2025-03-27 13:38:18.904,2.0241804535814287
2025-03-27 13:38:18.913,-1.0394591830183293
2025-03-27 13:38:18.913,-4.594438584508028
2025-03-27 13:38:18.913,-3.501380515917647
2025-03-27 13:38:18.913,2.6667214178015
2025-03-27 13:38:18.913,7.6211851974325615
2025-03-27 13:38:18.923,5.056037396350816
2025-03-27 13:38:18.923,-3.332577220552519
2025-03-27 13:38:18.923,-8.883101754974046
2025-03-27 13:38:18.923,-5.698840468541436
2025-03-27 13:38:18.923,2.6107383861270943
2025-03-27 13:38:18.936,7.409648091648948
2025-03-27 13:38:18.936,4.838337259990316
2025-03-27 13:38:18.936,-1.0073114891245394
2025-03-27 13:38:18.936,-4.078072858779819
2025-03-27 13:38:18.936,-2.9134198745291604
2025-03-27 13:38:18.943,-0.3831026213060591
2025-03-27 13:38:18.943,0.9502908053427753
2025-03-27 13:38:18.943,1.108721708662281
2025-03-27 13:38:18.943,0.9547980660675502
2025-03-27 13:38:18.943,0.42111068580253874
2025-03-27 13:38:18.953,-0.6020756704854116
2025-03-27 13:38:18.953,-1.0073456630557316
2025-03-27 13:38:18.953,0.24261913305101585
2025-03-27 13:38:18.953,1.899285476819279
2025-03-27 13:38:18.953,1.2495185673661344
2025-03-27 13:38:18.963,-2.146279735810211
2025-03-27 13:38:18.963,-4.7354237244264255
2025-03-27 13:38:18.963,-2.4512288482400066
2025-03-27 13:38:18.963,3.96850419564045
2025-03-27 13:38:18.963,8.294567719118595
2025-03-27 13:38:18.971,4.815870181354669
2025-03-27 13:38:18.971,-4.640732139114731
2025-03-27 13:38:18.971,-11.051223430356828
2025-03-27 13:38:18.971,-7.212134966805228
2025-03-27 13:38:18.971,3.838853568426147
2025-03-27 13:38:18.981,11.266942816352222
2025-03-27 13:38:18.981,7.929153783342251
2025-03-27 13:38:18.981,-2.0994622154510307
2025-03-27 13:38:18.981,-8.562312215735814
2025-03-27 13:38:18.991,-6.2558733706807015
2025-03-27 13:38:18.991,0.5798416509196662
2025-03-27 13:38:18.991,4.488396616489953
2025-03-27 13:38:18.991,2.98763295201524
2025-03-27 13:38:18.991,-0.3816035699342939
2025-03-27 13:38:19.001,-1.4096171589497533
2025-03-27 13:38:19.001,0.31809283050517423
2025-03-27 13:38:19.001,1.9699766444526938
2025-03-27 13:38:19.001,0.9410171855460973
2025-03-27 13:38:19.001,-2.469627108562756
2025-03-27 13:38:19.011,-4.95211008246056
2025-03-27 13:38:19.011,-2.9370451259851147
2025-03-27 13:38:19.011,3.2293217791534423
2025-03-27 13:38:19.011,8.003870701256933
2025-03-27 13:38:19.011,5.630019905219175
2025-03-27 13:38:19.021,-2.801298925799582
2025-03-27 13:38:19.021,-9.274090151888794
2025-03-27 13:38:19.021,-7.288864023445481
2025-03-27 13:38:19.021,1.0855337807840306
2025-03-27 13:38:19.021,7.945343971038567
2025-03-27 13:38:19.031,7.8147577522284
2025-03-27 13:38:19.031,1.738785446607372
2025-03-27 13:38:19.031,-5.123772309857274
2025-03-27 13:38:19.031,-7.802181941397025
2025-03-27 13:38:19.031,-4.490442864461891
2025-03-27 13:38:19.041,2.2294827365276007
2025-03-27 13:38:19.041,6.927040371742941
2025-03-27 13:38:19.041,5.778345314205497
2025-03-27 13:38:19.041,0.18576928166980666
2025-03-27 13:38:19.041,-4.6609230315825245
2025-03-27 13:38:19.051,-4.988153222240276
2025-03-27 13:38:19.051,-1.6692661825917054
2025-03-27 13:38:19.051,1.630285880142622
2025-03-27 13:38:19.051,2.5564155499881043
2025-03-27 13:38:19.051,1.7238519822616183
2025-03-27 13:38:19.059,0.8327370978900543
2025-03-27 13:38:19.059,0.27955667537466655
2025-03-27 13:38:19.059,-0.6914568845477992
2025-03-27 13:38:19.059,-1.9879914328098391
2025-03-27 13:38:19.059,-2.148861786500916
2025-03-27 13:38:19.073,-0.3985264425822481
2025-03-27 13:38:19.073,1.783518715149794
2025-03-27 13:38:19.073,2.265837361648816
2025-03-27 13:38:19.073,0.9330393735286358
2025-03-27 13:38:19.073,-0.4295429651686914
2025-03-27 13:38:19.079,-0.6972276370944512
2025-03-27 13:38:19.079,-0.6296547826413736
2025-03-27 13:38:19.079,-1.2924265910473112
2025-03-27 13:38:19.079,-2.1103698729505074
2025-03-27 13:38:19.089,-1.170471801021347
2025-03-27 13:38:19.089,2.2620467361103387
2025-03-27 13:38:19.089,5.608993223120492
2025-03-27 13:38:19.089,4.4981805866223565
2025-03-27 13:38:19.089,-2.072551174105167
2025-03-27 13:38:19.099,-8.611732938786522
2025-03-27 13:38:19.099,-7.712116171066369
2025-03-27 13:38:19.099,1.1876143795211078
2025-03-27 13:38:19.099,9.653558872584135
2025-03-27 13:38:19.099,8.884495482051475
2025-03-27 13:38:19.109,-0.38327160473268196
2025-03-27 13:38:19.109,-8.54557459997796
2025-03-27 13:38:19.109,-7.626942404815911
2025-03-27 13:38:19.109,0.46653493868525553
2025-03-27 13:38:19.109,6.69145088692015
2025-03-27 13:38:19.119,4.8876173530682525
2025-03-27 13:38:19.119,-1.9184355220337794
2025-03-27 13:38:19.119,-5.440488407939077
2025-03-27 13:38:19.119,-1.783807945434266
2025-03-27 13:38:19.119,4.152040099427807
2025-03-27 13:38:19.129,4.812574605188654
2025-03-27 13:38:19.129,-0.6665601674855004
2025-03-27 13:38:19.129,-5.552926737679221
2025-03-27 13:38:19.129,-4.077658104708417
2025-03-27 13:38:19.129,1.6782133326443032
2025-03-27 13:38:19.143,5.015756648181219
2025-03-27 13:38:19.143,2.896142624106856
2025-03-27 13:38:19.143,-1.39826345547266
2025-03-27 13:38:19.143,-3.208573842741526
2025-03-27 13:38:19.143,-1.623972151055995
2025-03-27 13:38:19.149,0.8153250490338284
2025-03-27 13:38:19.149,1.6534864304454828
2025-03-27 13:38:19.149,0.6290620477285035
2025-03-27 13:38:19.149,-0.7718690030848789
2025-03-27 13:38:19.149,-0.8793150323693872
2025-03-27 13:38:19.159,0.5203229402313887
2025-03-27 13:38:19.159,1.5653672715536606
2025-03-27 13:38:19.159,0.2051192868820127
2025-03-27 13:38:19.159,-2.6245646901589126
2025-03-27 13:38:19.159,-3.0604028137796058
2025-03-27 13:38:19.169,0.8595563604946826
2025-03-27 13:38:19.169,5.430073671420662
2025-03-27 13:38:19.169,4.774698795224153
2025-03-27 13:38:19.169,-1.6844520217077952
2025-03-27 13:38:19.169,-7.4880914765148425
2025-03-27 13:38:19.179,-6.139240701801054
2025-03-27 13:38:19.179,1.3682025960623054
2025-03-27 13:38:19.179,7.506883187214629
2025-03-27 13:38:19.179,6.444951082185359
2025-03-27 13:38:19.179,0.023962644025878777
2025-03-27 13:38:19.189,-5.02213935462605
2025-03-27 13:38:19.189,-4.8197014630519766
2025-03-27 13:38:19.189,-1.6948777955191094
2025-03-27 13:38:19.189,0.3596921842794944
2025-03-27 13:38:19.189,1.1678178946056397
2025-03-27 13:38:19.199,2.98970562894541
2025-03-27 13:38:19.199,5.000516763521837
2025-03-27 13:38:19.199,3.10183975552919
2025-03-27 13:38:19.199,-3.475513436049019
2025-03-27 13:38:19.199,-8.68619475114892
2025-03-27 13:38:19.209,-6.011616755163818
2025-03-27 13:38:19.209,2.8796143295725987
2025-03-27 13:38:19.209,9.071646396791055
2025-03-27 13:38:19.209,6.455347722826199
2025-03-27 13:38:19.209,-1.5769750617509366
2025-03-27 13:38:19.219,-6.6279164448036845
2025-03-27 13:38:19.219,-4.703241625809082
2025-03-27 13:38:19.219,0.6213250911384373
2025-03-27 13:38:19.219,3.5122852937193247
2025-03-27 13:38:19.219,2.1681350903273318
2025-03-27 13:38:19.229,-0.6525183166563305
2025-03-27 13:38:19.229,-1.7275586721676635
2025-03-27 13:38:19.229,-0.5621263928642801
2025-03-27 13:38:19.229,1.0775165539597464
2025-03-27 13:38:19.229,1.4967651046608992
2025-03-27 13:38:19.237,0.5120699109399725
2025-03-27 13:38:19.237,-0.8386729125086981
2025-03-27 13:38:19.237,-1.4865451091532749
2025-03-27 13:38:19.238,-1.202832888778399
2025-03-27 13:38:19.238,-0.41274771795186166
2025-03-27 13:38:19.249,0.5876270221981292
2025-03-27 13:38:19.249,1.69525660730109
2025-03-27 13:38:19.249,2.186688307952101
2025-03-27 13:38:19.249,0.8568862967631097
2025-03-27 13:38:19.249,-2.004332403060356
2025-03-27 13:38:19.259,-3.5812883104991378
2025-03-27 13:38:19.259,-1.4185442274100732
2025-03-27 13:38:19.259,2.6094461325107527
2025-03-27 13:38:19.259,3.5923314836042204
2025-03-27 13:38:19.259,0.013898893269595619
2025-03-27 13:38:19.267,-3.41796740115968
2025-03-27 13:38:19.267,-1.7654074343643313
2025-03-27 13:38:19.267,2.893153406990266
2025-03-27 13:38:19.267,3.72641785925166
2025-03-27 13:38:19.267,-1.258455435440099
2025-03-27 13:38:19.277,-5.659678685687947
2025-03-27 13:38:19.277,-2.9637309406148877
2025-03-27 13:38:19.277,4.1857771881822945
2025-03-27 13:38:19.277,6.78380500002032
2025-03-27 13:38:19.277,1.187940171351374
2025-03-27 13:38:19.287,-5.85137524507158
2025-03-27 13:38:19.287,-5.754317715389008
2025-03-27 13:38:19.287,0.9929181609110597
2025-03-27 13:38:19.287,5.788261425389856
2025-03-27 13:38:19.287,3.067520028844465
2025-03-27 13:38:19.297,-2.9902056796935153
2025-03-27 13:38:19.297,-4.418660671074954
2025-03-27 13:38:19.297,0.20310897418164192
2025-03-27 13:38:19.297,4.403804985980991
2025-03-27 13:38:19.307,2.6498705422372453
2025-03-27 13:38:19.307,-2.59719427663208
2025-03-27 13:38:19.307,-4.614418251983572
2025-03-27 13:38:19.307,-1.313429248394962
2025-03-27 13:38:19.307,2.729209637737714
2025-03-27 13:38:19.317,3.0147574961538903
2025-03-27 13:38:19.317,0.662084894503483
2025-03-27 13:38:19.317,-0.4519647081730537
2025-03-27 13:38:19.317,0.23549367473667487
2025-03-27 13:38:19.317,-0.209529337815086
2025-03-27 13:38:19.327,-2.7639066711254467
2025-03-27 13:38:19.327,-3.9969159442768682
2025-03-27 13:38:19.327,-0.6973311983653891
2025-03-27 13:38:19.327,4.861561646737831
2025-03-27 13:38:19.327,6.726240927838689
2025-03-27 13:38:19.337,2.2467511776114675
2025-03-27 13:38:19.337,-4.576795079148955
2025-03-27 13:38:19.337,-7.380604551712359
2025-03-27 13:38:19.337,-3.9692170770797146
2025-03-27 13:38:19.337,2.1449770773188823
2025-03-27 13:38:19.347,5.8351742169093965
2025-03-27 13:38:19.347,4.911374335303303
2025-03-27 13:38:19.347,0.9908369288771087
2025-03-27 13:38:19.347,-2.7749145628880205
2025-03-27 13:38:19.347,-4.206169139280713
2025-03-27 13:38:19.357,-3.0556602284736325
2025-03-27 13:38:19.357,-0.524016832325539
2025-03-27 13:38:19.357,1.8264304811436938
2025-03-27 13:38:19.357,2.967588403951923
2025-03-27 13:38:19.357,2.635273092904285
2025-03-27 13:38:19.365,1.0729288774487697
2025-03-27 13:38:19.365,-1.066648329919997
2025-03-27 13:38:19.365,-2.6510494729519074
2025-03-27 13:38:19.365,-2.6385351548326255
2025-03-27 13:38:19.377,-1.160357847311031
2025-03-27 13:38:19.377,0.5250380038702838
2025-03-27 13:38:19.377,1.5822043251293068
2025-03-27 13:38:19.377,2.3100447453480006
2025-03-27 13:38:19.377,2.713873253322042
2025-03-27 13:38:19.377,1.575142692195533
2025-03-27 13:38:19.385,-1.659526938292
2025-03-27 13:38:19.385,-4.857973638360044
2025-03-27 13:38:19.385,-4.845836557715523
2025-03-27 13:38:19.385,-1.0389843797555565
2025-03-27 13:38:19.395,3.8222645893195253
2025-03-27 13:38:19.395,6.407243838112107
2025-03-27 13:38:19.395,5.108255704880062
2025-03-27 13:38:19.395,0.2740610813461064
2025-03-27 13:38:19.395,-5.715042307124236
2025-03-27 13:38:19.405,-8.520130327596497
2025-03-27 13:38:19.405,-4.749066296181663
2025-03-27 13:38:19.405,3.5094926549488705
2025-03-27 13:38:19.405,8.954823234736937
2025-03-27 13:38:19.405,6.361468263659739
2025-03-27 13:38:19.415,-1.1551343642847578
2025-03-27 13:38:19.415,-5.627288059962641
2025-03-27 13:38:19.415,-3.7773380907690566
2025-03-27 13:38:19.415,-0.1711098945188811
2025-03-27 13:38:19.415,0.058681788584144946
2025-03-27 13:38:19.425,-1.5502770222541666
2025-03-27 13:38:19.425,0.09136791475138561
2025-03-27 13:38:19.425,4.897677609700444
2025-03-27 13:38:19.425,6.461577890691991
2025-03-27 13:38:19.425,0.889633251639827
2025-03-27 13:38:19.435,-6.794078734885508
2025-03-27 13:38:19.435,-8.223531710483122
2025-03-27 13:38:19.435,-2.0011667967215727
2025-03-27 13:38:19.435,4.999396087834727
2025-03-27 13:38:19.435,6.32398594387528
2025-03-27 13:38:19.443,2.6186841118542863
2025-03-27 13:38:19.443,-1.1887119090100573
2025-03-27 13:38:19.443,-2.4045747766799166
2025-03-27 13:38:19.443,-2.1113442285469732
2025-03-27 13:38:19.443,-1.8346663001684416
2025-03-27 13:38:19.454,-1.3300421252094115
2025-03-27 13:38:19.454,0.17645938446320922
2025-03-27 13:38:19.454,2.2518338873560655
2025-03-27 13:38:19.454,3.4772743588996393
2025-03-27 13:38:19.454,2.697226211370203
2025-03-27 13:38:19.463,-0.19847483872089042
2025-03-27 13:38:19.463,-3.8782562865825807
2025-03-27 13:38:19.463,-5.6116214778800195
2025-03-27 13:38:19.463,-2.965693609361266
2025-03-27 13:38:19.473,3.1713900916085556
2025-03-27 13:38:19.473,7.778456023976307
2025-03-27 13:38:19.473,5.801394408469465
2025-03-27 13:38:19.473,-2.046867932790635
2025-03-27 13:38:19.473,-8.672422727373487
2025-03-27 13:38:19.483,-7.298904546019108
2025-03-27 13:38:19.483,1.1039801189787224
2025-03-27 13:38:19.483,8.228118012526977
2025-03-27 13:38:19.483,6.9990464017253515
2025-03-27 13:38:19.483,-0.8728051110806085
2025-03-27 13:38:19.493,-6.9067468328690005
2025-03-27 13:38:19.493,-5.225666884382884
2025-03-27 13:38:19.493,1.3758718301289754
2025-03-27 13:38:19.493,5.313883676400524
2025-03-27 13:38:19.493,2.9826844693484897
2025-03-27 13:38:19.503,-1.9203681250813511
2025-03-27 13:38:19.503,-3.6681058157415993
2025-03-27 13:38:19.503,-1.2214031525496938
2025-03-27 13:38:19.503,1.623150400687815
2025-03-27 13:38:19.503,1.7742362498484687
2025-03-27 13:38:19.513,0.30633300509696215
2025-03-27 13:38:19.513,-0.1902812134089995
2025-03-27 13:38:19.513,0.31031478574242033
2025-03-27 13:38:19.513,-0.1427748185026485
2025-03-27 13:38:19.513,-1.6607809402067504
2025-03-27 13:38:19.523,-1.8597339765485634
2025-03-27 13:38:19.523,0.39063121610043405
2025-03-27 13:38:19.523,2.686334450626623
2025-03-27 13:38:19.523,2.1028113337669887
2025-03-27 13:38:19.523,-0.7039836809852491
2025-03-27 13:38:19.533,-2.280042618616745
2025-03-27 13:38:19.533,-0.9872683997254419
2025-03-27 13:38:19.533,0.994061064604078
2025-03-27 13:38:19.533,0.8982954339779318
2025-03-27 13:38:19.533,-0.8123215979511039
2025-03-27 13:38:19.543,-1.2752493382119243
2025-03-27 13:38:19.543,0.604380728981938
2025-03-27 13:38:19.543,2.4203171932583296
2025-03-27 13:38:19.543,1.4009962664571234
2025-03-27 13:38:19.543,-1.6651776082452305
2025-03-27 13:38:19.553,-3.0761670437224025
2025-03-27 13:38:19.553,-0.9794649215434286
2025-03-27 13:38:19.553,1.9861556743880369
2025-03-27 13:38:19.553,2.1017824131555893
2025-03-27 13:38:19.553,-0.3379112491654235
2025-03-27 13:38:19.563,-1.4765678380618132
2025-03-27 13:38:19.563,0.46691876379538316
2025-03-27 13:38:19.563,2.3935021731026422
2025-03-27 13:38:19.563,0.6508969786149235
2025-03-27 13:38:19.563,-3.3793936791487376
2025-03-27 13:38:19.571,-4.436316324838305
2025-03-27 13:38:19.571,-0.20706810427996183
2025-03-27 13:38:19.572,5.116719316444386
2025-03-27 13:38:19.572,5.5062605879055795
2025-03-27 13:38:19.572,0.29985504900159
2025-03-27 13:38:19.581,-5.028858169600865
2025-03-27 13:38:19.581,-5.246364691394602
2025-03-27 13:38:19.581,-0.8459178768457054
2025-03-27 13:38:19.581,3.4336325875436713
2025-03-27 13:38:19.591,4.116293260178786
2025-03-27 13:38:19.591,1.7281005624603676
2025-03-27 13:38:19.591,-1.112764792902616
2025-03-27 13:38:19.591,-2.57945219448824
2025-03-27 13:38:19.591,-2.3815640396991653
2025-03-27 13:38:19.603,-1.019565972985642
2025-03-27 13:38:19.603,0.7134384459381597
2025-03-27 13:38:19.603,1.9124325412291376
2025-03-27 13:38:19.603,2.034255853758076
2025-03-27 13:38:19.603,1.242748942965112
2025-03-27 13:38:19.614,0.014647725552766925
2025-03-27 13:38:19.614,-1.3638606065095185
2025-03-27 13:38:19.614,-2.525402605842312
2025-03-27 13:38:19.614,-2.573533758040317
2025-03-27 13:38:19.614,-0.7109717824620505
2025-03-27 13:38:19.621,2.401388580716667
2025-03-27 13:38:19.621,4.425259910533594
2025-03-27 13:38:19.621,3.1816891739065603
2025-03-27 13:38:19.621,-0.977426823653695
2025-03-27 13:38:19.621,-4.851379742420185
2025-03-27 13:38:19.631,-4.987088980579839
2025-03-27 13:38:19.631,-0.9727688458187255
2025-03-27 13:38:19.631,3.920058207754622
2025-03-27 13:38:19.631,5.590468645327814
2025-03-27 13:38:19.631,2.7255550900056034
2025-03-27 13:38:19.641,-2.174817481547393
2025-03-27 13:38:19.641,-5.0482909782011545
2025-03-27 13:38:19.641,-3.6785867285909037
2025-03-27 13:38:19.641,0.5252287927561861
2025-03-27 13:38:19.641,3.8250928880196717
2025-03-27 13:38:19.651,3.502145764029313
2025-03-27 13:38:19.651,0.2459776736842013
2025-03-27 13:38:19.651,-2.709750755691061
2025-03-27 13:38:19.651,-2.753863033102119
2025-03-27 13:38:19.651,-0.17868180584498075
2025-03-27 13:38:19.661,2.390594953038557
2025-03-27 13:38:19.661,2.517710930576828
2025-03-27 13:38:19.661,0.07320951016492194
2025-03-27 13:38:19.661,-2.721116180289761
2025-03-27 13:38:19.661,-3.2319730373192783
2025-03-27 13:38:19.671,-0.7125471825243043
2025-03-27 13:38:19.671,2.917053559577079
2025-03-27 13:38:19.671,4.484376924696711
2025-03-27 13:38:19.671,2.198098014514899
2025-03-27 13:38:19.671,-2.5012794940985317
2025-03-27 13:38:19.681,-5.662374045968225
2025-03-27 13:38:19.681,-4.093914514856032
2025-03-27 13:38:19.681,1.4245985263406415
2025-03-27 13:38:19.681,6.304853294923116
2025-03-27 13:38:19.681,6.0741985492639206
2025-03-27 13:38:19.691,0.49021411591880865
2025-03-27 13:38:19.691,-6.0794664821665245
2025-03-27 13:38:19.691,-8.180904970524223
2025-03-27 13:38:19.691,-3.538268017268676
2025-03-27 13:38:19.691,4.914184394025436
2025-03-27 13:38:19.699,10.453792853460596
2025-03-27 13:38:19.699,7.386628382490474
2025-03-27 13:38:19.699,-3.198735529071815
2025-03-27 13:38:19.699,-12.372480210483946
2025-03-27 13:38:19.709,-10.677846234419741
2025-03-27 13:38:19.709,1.624975865855466
2025-03-27 13:38:19.709,13.01254214667098
2025-03-27 13:38:19.709,11.848317098515533
2025-03-27 13:38:19.709,-0.8902800858831731
2025-03-27 13:38:19.719,-12.077988683733254
2025-03-27 13:38:19.719,-10.444003280998743
2025-03-27 13:38:19.719,1.4289945924913035
2025-03-27 13:38:19.719,10.466367914009359
2025-03-27 13:38:19.719,7.564267876905791
2025-03-27 13:38:19.728,-3.0994409630587687
2025-03-27 13:38:19.728,-9.464765405363663
2025-03-27 13:38:19.728,-4.911422171093091
2025-03-27 13:38:19.728,5.06500365198116
2025-03-27 13:38:19.728,9.40956103222204
2025-03-27 13:38:19.737,3.565855679702958
2025-03-27 13:38:19.737,-6.076923767620343
2025-03-27 13:38:19.737,-9.522601631136624
2025-03-27 13:38:19.737,-3.6262449923780826
2025-03-27 13:38:19.750,5.380936358273651
2025-03-27 13:38:19.750,8.86367105498897
2025-03-27 13:38:19.750,4.214814773355526
2025-03-27 13:38:19.750,-3.420628875447189
2025-03-27 13:38:19.750,-6.87083836140649
2025-03-27 13:38:19.757,-3.918807084058942
2025-03-27 13:38:19.757,1.3115051476831343
2025-03-27 13:38:19.757,3.5405888833398893
2025-03-27 13:38:19.757,2.035323237206315
2025-03-27 13:38:19.757,0.2414382609315885
2025-03-27 13:38:19.767,0.34731722477628507
2025-03-27 13:38:19.767,0.50485875480149
2025-03-27 13:38:19.767,-1.395161256421547
2025-03-27 13:38:19.767,-3.394465443005068
2025-03-27 13:38:19.767,-1.843436724206267
2025-03-27 13:38:19.777,2.554646007325346
2025-03-27 13:38:19.777,4.508528115841726
2025-03-27 13:38:19.777,1.0942659460986714
2025-03-27 13:38:19.777,-3.733273225816618
2025-03-27 13:38:19.777,-3.9060559069252196
2025-03-27 13:38:19.787,0.8336249791630743
2025-03-27 13:38:19.787,4.544918795016146
2025-03-27 13:38:19.787,2.730690880529438
2025-03-27 13:38:19.787,-2.1810064030705987
2025-03-27 13:38:19.787,-4.37759795908977
2025-03-27 13:38:19.797,-1.8918214687707862
2025-03-27 13:38:19.797,1.8846736961625543
2025-03-27 13:38:19.797,3.1179881447039097
2025-03-27 13:38:19.797,1.5365083802497859
2025-03-27 13:38:19.797,-0.6548159451395985
2025-03-27 13:38:19.807,-1.7042118899169403
2025-03-27 13:38:19.807,-1.2602695457339939
2025-03-27 13:38:19.807,0.11745413097385063
2025-03-27 13:38:19.807,1.2685135163242907
2025-03-27 13:38:19.807,1.024333508730196
2025-03-27 13:38:19.817,-0.595160814972449
2025-03-27 13:38:19.817,-2.0479561830272828
2025-03-27 13:38:19.817,-1.6492681465146064
2025-03-27 13:38:19.817,0.7010289576156911
2025-03-27 13:38:19.817,3.1987745834985217
2025-03-27 13:38:19.827,3.527107649201584
2025-03-27 13:38:19.827,0.8643426698667387
2025-03-27 13:38:19.827,-3.1647373142403645
2025-03-27 13:38:19.827,-5.545612565705019
2025-03-27 13:38:19.827,-4.091484426577939
2025-03-27 13:38:19.837,0.8821286148176499
2025-03-27 13:38:19.837,6.288503416321979
2025-03-27 13:38:19.837,7.718311101911771
2025-03-27 13:38:19.837,2.794328197603461
2025-03-27 13:38:19.837,-5.511591377016436
2025-03-27 13:38:19.847,-9.932845971814462
2025-03-27 13:38:19.847,-5.553161977304919
2025-03-27 13:38:19.847,4.1773840359965675
2025-03-27 13:38:19.847,9.837021315095699
2025-03-27 13:38:19.847,5.71131720031443
2025-03-27 13:38:19.857,-3.7031359350482274
2025-03-27 13:38:19.857,-8.294696151309177
2025-03-27 13:38:19.857,-3.473770576711838
2025-03-27 13:38:19.857,4.736921586871905
2025-03-27 13:38:19.857,6.768778454573754
2025-03-27 13:38:19.867,0.583230146808446
2025-03-27 13:38:19.867,-6.3207659672560945
2025-03-27 13:38:19.867,-5.988433728851169
2025-03-27 13:38:19.867,1.0528785432896357
2025-03-27 13:38:19.867,7.05856899336051
2025-03-27 13:38:19.875,5.869466743136576
2025-03-27 13:38:19.875,-1.012558336452281
2025-03-27 13:38:19.875,-6.6401971153381405
2025-03-27 13:38:19.875,-5.76995150129392
2025-03-27 13:38:19.875,0.27641317378859886
2025-03-27 13:38:19.885,5.392989999364231
2025-03-27 13:38:19.885,5.04369284648516
2025-03-27 13:38:19.885,0.4998369415853055
2025-03-27 13:38:19.885,-3.3904979100534276
2025-03-27 13:38:19.886,-3.6970089284423473
2025-03-27 13:38:19.897,-1.498861166380773
2025-03-27 13:38:19.897,0.8123618705478837
2025-03-27 13:38:19.897,2.220348648890242
2025-03-27 13:38:19.897,2.6054339062469847
2025-03-27 13:38:19.897,1.5443017544580897
2025-03-27 13:38:19.908,-0.8842331619261803
2025-03-27 13:38:19.908,-2.9941686394333433
2025-03-27 13:38:19.908,-2.784343074935051
2025-03-27 13:38:19.908,-0.3438061019614891
2025-03-27 13:38:19.908,2.0705216426578312
2025-03-27 13:38:19.915,2.5677460904548473
2025-03-27 13:38:19.915,1.421312495466897
2025-03-27 13:38:19.916,-0.011836726615937473
2025-03-27 13:38:19.916,-1.2209962191716792
2025-03-27 13:38:19.925,-2.303414385599588
2025-03-27 13:38:19.925,-2.3716895787124597
2025-03-27 13:38:19.925,-0.178947314742807
2025-03-27 13:38:19.925,3.0355266469185085
2025-03-27 13:38:19.925,3.535906638739788
2025-03-27 13:38:19.925,-0.01280769542786711
2025-03-27 13:38:19.935,-3.3652615016558007
2025-03-27 13:38:19.935,-1.7342613391212185
2025-03-27 13:38:19.935,2.72624727133972
2025-03-27 13:38:19.935,2.8789569903664645
2025-03-27 13:38:19.945,-2.8945329419863186
2025-03-27 13:38:19.945,-6.831148492536058
2025-03-27 13:38:19.945,-1.9068456788051122
2025-03-27 13:38:19.945,7.429542857433367
2025-03-27 13:38:19.945,9.746471523077682
2025-03-27 13:38:19.955,1.2650514642588395
2025-03-27 13:38:19.955,-8.846731273032493
2025-03-27 13:38:19.955,-9.522786698509682
2025-03-27 13:38:19.955,-0.8351976570632633
2025-03-27 13:38:19.955,6.9731917302817505
2025-03-27 13:38:19.965,6.136049466936539
2025-03-27 13:38:19.965,-0.3271339220663486
2025-03-27 13:38:19.965,-3.850223118533855
2025-03-27 13:38:19.965,-1.272523771697371
2025-03-27 13:38:19.965,2.3257245171655776
2025-03-27 13:38:19.975,1.3720046729319122
2025-03-27 13:38:19.975,-2.769170922537531
2025-03-27 13:38:19.975,-4.105564304214999
2025-03-27 13:38:19.975,-0.2463214444602341
2025-03-27 13:38:19.975,4.465553665140692
2025-03-27 13:38:19.985,4.560593231716026
2025-03-27 13:38:19.985,0.13986543205908886
2025-03-27 13:38:19.985,-3.6989849965830235
2025-03-27 13:38:19.985,-3.2927648020370657
2025-03-27 13:38:19.985,-0.24711616669225556
2025-03-27 13:38:19.995,1.5248112308412827
2025-03-27 13:38:19.995,0.8478619980576032
2025-03-27 13:38:19.995,-0.06789169974310835
2025-03-27 13:38:19.995,0.6264083910573386
2025-03-27 13:38:19.995,1.7096398512787876
2025-03-27 13:38:20.003,0.7098609733119566
2025-03-27 13:38:20.003,-2.214333832003382
2025-03-27 13:38:20.003,-3.591406394044063
2025-03-27 13:38:20.003,-0.7935274283218307
2025-03-27 13:38:20.003,3.754288652718289
2025-03-27 13:38:20.013,4.458381931597532
2025-03-27 13:38:20.013,-0.4635908001617663
2025-03-27 13:38:20.013,-5.614541879064279
2025-03-27 13:38:20.013,-4.282267491064663
2025-03-27 13:38:20.023,2.8172014991390766
2025-03-27 13:38:20.023,7.414621209738857
2025-03-27 13:38:20.023,3.4638322114567517
2025-03-27 13:38:20.023,-5.051918515404783
2025-03-27 13:38:20.023,-8.425452202875197
2025-03-27 13:38:20.033,-2.6643702518445367
2025-03-27 13:38:20.033,5.884941407994601
2025-03-27 13:38:20.033,8.059151277789608
2025-03-27 13:38:20.033,2.1432918356294355
2025-03-27 13:38:20.033,-4.994030046259327
2025-03-27 13:38:20.043,-6.19513413055857
2025-03-27 13:38:20.043,-1.4911776883177923
2025-03-27 13:38:20.043,3.182782416870107
2025-03-27 13:38:20.043,3.3016807982085687
2025-03-27 13:38:20.043,0.2485189257690426
2025-03-27 13:38:20.053,-1.487766930355478
2025-03-27 13:38:20.053,-0.19225172392650802
2025-03-27 13:38:20.053,1.4021083858916368
2025-03-27 13:38:20.053,0.3134949669384685
2025-03-27 13:38:20.053,-2.347601963854403
2025-03-27 13:38:20.063,-2.7219361370952795
2025-03-27 13:38:20.063,0.45063877858510226
2025-03-27 13:38:20.063,3.6800941526041266
2025-03-27 13:38:20.063,2.962912103994879
2025-03-27 13:38:20.063,-0.979419130345972
2025-03-27 13:38:20.078,-3.4612059261935078
2025-03-27 13:38:20.078,-1.7471260526182208
2025-03-27 13:38:20.078,1.5963232597284112
2025-03-27 13:38:20.078,2.2015275041684395
2025-03-27 13:38:20.078,-0.488589970140624
2025-03-27 13:38:20.083,-2.7168070542286014
2025-03-27 13:38:20.083,-1.319513943463009
2025-03-27 13:38:20.083,2.3440490214772147
2025-03-27 13:38:20.083,4.059033149678671
2025-03-27 13:38:20.083,1.663693646261016
2025-03-27 13:38:20.093,-2.5608453406672256
2025-03-27 13:38:20.093,-4.447252252878724
2025-03-27 13:38:20.093,-2.344750908855073
2025-03-27 13:38:20.093,1.4113090119158938
2025-03-27 13:38:20.093,3.223741976575983
2025-03-27 13:38:20.103,1.9081901421091283
2025-03-27 13:38:20.103,-0.5057182324788011
2025-03-27 13:38:20.103,-1.267955934490815
2025-03-27 13:38:20.103,0.10362448180979048
2025-03-27 13:38:20.103,1.314116727987983
2025-03-27 13:38:20.111,-0.06752299997129033
2025-03-27 13:38:20.111,-3.2373771175928385
2025-03-27 13:38:20.111,-4.095836297078402
2025-03-27 13:38:20.112,0.17209413379897018
2025-03-27 13:38:20.112,6.494105586500858
2025-03-27 13:38:20.121,7.780809255116178
2025-03-27 13:38:20.121,0.8664890056965622
2025-03-27 13:38:20.121,-8.423958345426236
2025-03-27 13:38:20.121,-10.391244316315015
2025-03-27 13:38:20.131,-2.223143698694278
2025-03-27 13:38:20.131,8.083265732461419
2025-03-27 13:38:20.131,10.106387603700917
2025-03-27 13:38:20.131,2.4669704987323873
2025-03-27 13:38:20.131,-6.065904152105628
2025-03-27 13:38:20.141,-6.935816006447816
2025-03-27 13:38:20.141,-0.9639895780406539
2025-03-27 13:38:20.141,4.096824245458758
2025-03-27 13:38:20.141,3.234147879426201
2025-03-27 13:38:20.141,-1.1123015936539529
2025-03-27 13:38:20.151,-3.4650645950560635
2025-03-27 13:38:20.151,-1.7126233099282224
2025-03-27 13:38:20.151,1.8181017075727655
2025-03-27 13:38:20.151,3.8017006905372197
2025-03-27 13:38:20.151,2.8251180705402694
2025-03-27 13:38:20.161,-0.30594593012209564
2025-03-27 13:38:20.161,-3.5205485319067367
2025-03-27 13:38:20.161,-4.593241401803689
2025-03-27 13:38:20.161,-2.4680326025282744
2025-03-27 13:38:20.161,1.6818065558116913
2025-03-27 13:38:20.171,4.886039728403904
2025-03-27 13:38:20.171,4.564334672315391
2025-03-27 13:38:20.171,0.8412648010802161
2025-03-27 13:38:20.171,-3.276707003415103
2025-03-27 13:38:20.171,-4.4669504566147245
2025-03-27 13:38:20.181,-2.195281341375087
2025-03-27 13:38:20.181,0.9097626680081942
2025-03-27 13:38:20.181,2.052619402122075
2025-03-27 13:38:20.181,1.2537604170604293
2025-03-27 13:38:20.181,0.6719401277581574
2025-03-27 13:38:20.191,1.2574414864778298
2025-03-27 13:38:20.191,1.4025447934533215
2025-03-27 13:38:20.191,-0.48037510465009203
2025-03-27 13:38:20.191,-3.1854226106541477
2025-03-27 13:38:20.191,-3.846773802018481
2025-03-27 13:38:20.201,-1.4538887993613936
2025-03-27 13:38:20.201,2.056075474043721
2025-03-27 13:38:20.201,4.159457582588548
2025-03-27 13:38:20.201,3.927809870775097
2025-03-27 13:38:20.201,1.7270076979374995
2025-03-27 13:38:20.211,-1.7153879511486647
2025-03-27 13:38:20.211,-4.999170372016046
2025-03-27 13:38:20.211,-5.826707652317776
2025-03-27 13:38:20.211,-2.5980088394184038
2025-03-27 13:38:20.211,3.4107032460720466
2025-03-27 13:38:20.221,8.020882912020154
2025-03-27 13:38:20.221,7.066909259286252
2025-03-27 13:38:20.221,0.20852247194287687
2025-03-27 13:38:20.221,-7.713430991663336
2025-03-27 13:38:20.221,-9.94975281612887
2025-03-27 13:38:20.229,-3.94726365516226
2025-03-27 13:38:20.229,5.47126931990479
2025-03-27 13:38:20.229,10.070238523322432
2025-03-27 13:38:20.229,6.090151058729265
2025-03-27 13:38:20.229,-2.210035195702438
2025-03-27 13:38:20.239,-7.242276594388531
2025-03-27 13:38:20.239,-5.701322852826138
2025-03-27 13:38:20.239,-0.8231050462314022
2025-03-27 13:38:20.239,2.3975541839278742
2025-03-27 13:38:20.249,2.695264850431311
2025-03-27 13:38:20.249,2.3450173577550704
2025-03-27 13:38:20.249,2.590438824956074
2025-03-27 13:38:20.250,1.6314288142213709
2025-03-27 13:38:20.250,-1.9011786502778039
2025-03-27 13:38:20.259,-5.445484063219491
2025-03-27 13:38:20.259,-4.882510255695466
2025-03-27 13:38:20.259,0.047062069286133545
2025-03-27 13:38:20.259,4.919909084455409
2025-03-27 13:38:20.260,5.535821912877069
2025-03-27 13:38:20.269,2.035047671241858
2025-03-27 13:38:20.269,-2.1559244937513187
2025-03-27 13:38:20.269,-3.9749289226055327
2025-03-27 13:38:20.269,-2.8427468037468584
2025-03-27 13:38:20.269,-0.36735984826096824
2025-03-27 13:38:20.279,1.350007418532637
2025-03-27 13:38:20.279,1.5721132117160934
2025-03-27 13:38:20.279,1.2475053084111536
2025-03-27 13:38:20.279,1.235057137406502
2025-03-27 13:38:20.279,0.8484022363970699
2025-03-27 13:38:20.289,-0.8205294577188135
2025-03-27 13:38:20.289,-2.652958481467237
2025-03-27 13:38:20.289,-2.3308342325814206
2025-03-27 13:38:20.289,0.22960058590138288
2025-03-27 13:38:20.289,2.0999444218050654
2025-03-27 13:38:20.299,1.2466402473481124
2025-03-27 13:38:20.299,-0.36078531780557266
2025-03-27 13:38:20.299,0.2893201063069703
2025-03-27 13:38:20.299,2.160297484882767
2025-03-27 13:38:20.299,1.1698572129712794
2025-03-27 13:38:20.309,-3.245251276746388
2025-03-27 13:38:20.309,-5.817981867802008
2025-03-27 13:38:20.309,-1.9732608741435151
2025-03-27 13:38:20.309,5.242246028214167
2025-03-27 13:38:20.309,7.7907823814037505
2025-03-27 13:38:20.319,2.2112135730827704
2025-03-27 13:38:20.319,-5.817219667283441
2025-03-27 13:38:20.319,-7.722643056997624
2025-03-27 13:38:20.319,-1.727881437020919
2025-03-27 13:38:20.319,5.372600362306904
2025-03-27 13:38:20.329,6.194552776974398
2025-03-27 13:38:20.329,0.8667606358073014
2025-03-27 13:38:20.329,-4.119100744189255
2025-03-27 13:38:20.329,-4.0123819933663585
2025-03-27 13:38:20.329,-0.40906306751447724
2025-03-27 13:38:20.339,2.287442688764865
2025-03-27 13:38:20.339,2.2880806115951144
2025-03-27 13:38:20.339,0.8269624959412224
2025-03-27 13:38:20.339,-0.7224448559018198
2025-03-27 13:38:20.339,-1.7697354189758245
2025-03-27 13:38:20.349,-1.5889303745338927
2025-03-27 13:38:20.349,0.10820000681445613
2025-03-27 13:38:20.349,1.8659731770499606
2025-03-27 13:38:20.349,1.7211438304836824
2025-03-27 13:38:20.349,-0.11050222367251963
2025-03-27 13:38:20.357,-1.391707682154115
2025-03-27 13:38:20.357,-0.9297554412098856
2025-03-27 13:38:20.357,0.061812165858007265
2025-03-27 13:38:20.357,0.15695789721172157
2025-03-27 13:38:20.357,-0.22176816394431853
2025-03-27 13:38:20.369,0.07573228539331585
2025-03-27 13:38:20.369,0.8702218133978588
2025-03-27 13:38:20.369,1.0406262118269551
2025-03-27 13:38:20.369,0.33230373632902543
2025-03-27 13:38:20.369,-0.5761469961343526
2025-03-27 13:38:20.377,-1.385571943349287
2025-03-27 13:38:20.377,-2.020783942951022
2025-03-27 13:38:20.377,-1.4175085825430807
2025-03-27 13:38:20.377,1.4626887678262612
2025-03-27 13:38:20.378,4.829540060928396
2025-03-27 13:38:20.387,4.4723699812764215
2025-03-27 13:38:20.387,-1.1433460767348609
2025-03-27 13:38:20.387,-7.332636553698265
2025-03-27 13:38:20.387,-7.2131775554164275
2025-03-27 13:38:20.397,0.26650441515584883
2025-03-27 13:38:20.397,8.076599568326188
2025-03-27 13:38:20.397,8.235303387750951
2025-03-27 13:38:20.397,0.5688612240487048
2025-03-27 13:38:20.397,-7.017643584905277
2025-03-27 13:38:20.407,-7.129407724671587
2025-03-27 13:38:20.407,-0.5311309530844581
2025-03-27 13:38:20.407,5.4250061490370785
2025-03-27 13:38:20.407,5.026802007702873
2025-03-27 13:38:20.407,-0.32543005551199133
2025-03-27 13:38:20.417,-4.536062792109348
2025-03-27 13:38:20.417,-3.479449839604359
2025-03-27 13:38:20.417,1.175983323692148
2025-03-27 13:38:20.417,4.2981091691781526
2025-03-27 13:38:20.417,2.869688607654301
2025-03-27 13:38:20.427,-1.1616879280359098
2025-03-27 13:38:20.427,-3.6093725740950178
2025-03-27 13:38:20.427,-2.7171247016959845
2025-03-27 13:38:20.427,-0.16615594893789237
2025-03-27 13:38:20.427,1.8360893966919372
2025-03-27 13:38:20.437,2.6761553739524433
2025-03-27 13:38:20.437,2.406932086645576
2025-03-27 13:38:20.437,0.6425574740875117
2025-03-27 13:38:20.437,-2.345255461326778
2025-03-27 13:38:20.437,-4.426429539756404
2025-03-27 13:38:20.447,-3.130388492065586
2025-03-27 13:38:20.447,1.322465631995574
2025-03-27 13:38:20.447,5.305718040136385
2025-03-27 13:38:20.447,4.905710241995329
2025-03-27 13:38:20.447,0.02923599428789242
2025-03-27 13:38:20.457,-4.945892113604986
2025-03-27 13:38:20.457,-5.282274389714259
2025-03-27 13:38:20.457,-0.8364015053724007
2025-03-27 13:38:20.457,3.6998421585828325
2025-03-27 13:38:20.457,3.9776223300529807
2025-03-27 13:38:20.467,0.7284731718671931
2025-03-27 13:38:20.467,-1.7394362649005777
2025-03-27 13:38:20.467,-1.2850595365721396
2025-03-27 13:38:20.467,-0.1481206662126609
2025-03-27 13:38:20.467,-0.7693435261878252
2025-03-27 13:38:20.477,-1.7489319566343362
2025-03-27 13:38:20.477,-0.2768169189213343
2025-03-27 13:38:20.477,2.8084440625102673
2025-03-27 13:38:20.477,3.5698868251706584
2025-03-27 13:38:20.477,0.6063225656292643
2025-03-27 13:38:20.487,-2.8339650558411646
2025-03-27 13:38:20.487,-3.321130000391146
2025-03-27 13:38:20.487,-1.3636290352379892
2025-03-27 13:38:20.487,0.43176776103507747
2025-03-27 13:38:20.487,1.3211179560293775
2025-03-27 13:38:20.497,2.3306205277924334
2025-03-27 13:38:20.497,3.134309195716259
2025-03-27 13:38:20.497,1.6197171085736104
2025-03-27 13:38:20.497,-2.6010086440885583
2025-03-27 13:38:20.497,-5.9537015178535695
2025-03-27 13:38:20.507,-4.222073063969081
2025-03-27 13:38:20.507,1.8919431576081296
2025-03-27 13:38:20.507,6.474898797185239
2025-03-27 13:38:20.507,4.883853247402423
2025-03-27 13:38:20.507,-0.7714189322654379
2025-03-27 13:38:20.515,-4.367234710274799
2025-03-27 13:38:20.515,-3.1661982567401377
2025-03-27 13:38:20.515,-0.16485097087224276
2025-03-27 13:38:20.515,0.9457322827989435
2025-03-27 13:38:20.516,0.4367350996406572
2025-03-27 13:38:20.525,0.7016384012914327
2025-03-27 13:38:20.525,1.8062810667158382
2025-03-27 13:38:20.525,1.4713123813035545
2025-03-27 13:38:20.526,-0.9150058146679441
2025-03-27 13:38:20.526,-2.733569979876476
2025-03-27 13:38:20.535,-1.5668758507222076
2025-03-27 13:38:20.536,1.2418141976961166
2025-03-27 13:38:20.536,2.0412860551053598
2025-03-27 13:38:20.536,-0.293650116459949
2025-03-27 13:38:20.545,-2.443424633818259
2025-03-27 13:38:20.545,-0.6624324029122834
2025-03-27 13:38:20.545,3.7276235215932565
2025-03-27 13:38:20.545,4.749051253688837
2025-03-27 13:38:20.545,-0.8448173749633247
2025-03-27 13:38:20.555,-7.780014050967508
2025-03-27 13:38:20.555,-7.04340072459754
2025-03-27 13:38:20.555,2.5354058463479205
2025-03-27 13:38:20.555,10.806373326623183
2025-03-27 13:38:20.555,7.733091651950996
2025-03-27 13:38:20.565,-3.6956830436212322
2025-03-27 13:38:20.565,-10.689422440821637
2025-03-27 13:38:20.565,-6.517423032490324
2025-03-27 13:38:20.565,2.267024693410762
2025-03-27 13:38:20.565,6.140743355564778
2025-03-27 13:38:20.575,4.448285860072994
2025-03-27 13:38:20.575,2.529219577661567
2025-03-27 13:38:20.575,1.463037140533506
2025-03-27 13:38:20.575,-2.2785598764035706
2025-03-27 13:38:20.575,-7.897660929399172
2025-03-27 13:38:20.585,-8.32865816967351
2025-03-27 13:38:20.585,-0.0880695861223586
2025-03-27 13:38:20.585,9.776089563894487
2025-03-27 13:38:20.585,11.011824874612625
2025-03-27 13:38:20.585,2.4797840143020444
2025-03-27 13:38:20.593,-6.8402391308566575
2025-03-27 13:38:20.593,-8.717216694979024
2025-03-27 13:38:20.593,-3.929192797818785
2025-03-27 13:38:20.593,1.2074782546148486
2025-03-27 13:38:20.594,3.243888513244368
2025-03-27 13:38:20.603,3.6393700006522494
2025-03-27 13:38:20.603,3.8624667496338074
2025-03-27 13:38:20.603,2.3929947979145907
2025-03-27 13:38:20.604,-1.935195503046423
2025-03-27 13:38:20.604,-6.159792585325855
2025-03-27 13:38:20.613,-5.64496328484918
2025-03-27 13:38:20.613,-0.009809135065452612
2025-03-27 13:38:20.613,5.591599103016926
2025-03-27 13:38:20.613,5.858407330235303
2025-03-27 13:38:20.614,0.9621762710228052
2025-03-27 13:38:20.623,-3.910220228836999
2025-03-27 13:38:20.623,-4.162928017448676
2025-03-27 13:38:20.624,-0.34891113314669364
2025-03-27 13:38:20.624,2.89851317640108
2025-03-27 13:38:20.624,2.1157004595942723
2025-03-27 13:38:20.633,-1.3061574217460576
2025-03-27 13:38:20.633,-2.963722630612911
2025-03-27 13:38:20.633,-0.6579741713108509
2025-03-27 13:38:20.634,2.970007312415713
2025-03-27 13:38:20.643,3.4761475542877047
2025-03-27 13:38:20.643,-0.0888283305978127
2025-03-27 13:38:20.643,-3.8718242669448624
2025-03-27 13:38:20.643,-3.659181751672235
2025-03-27 13:38:20.643,0.18785513634189427
2025-03-27 13:38:20.653,3.380095829815351
2025-03-27 13:38:20.653,2.987978525816576
2025-03-27 13:38:20.653,0.48576952613839797
2025-03-27 13:38:20.653,-1.0591877798268476
2025-03-27 13:38:20.653,-1.1836845927142006
2025-03-27 13:38:20.663,-1.6238644134735465
2025-03-27 13:38:20.663,-2.4842654208496286
2025-03-27 13:38:20.663,-1.4299874053232644
2025-03-27 13:38:20.663,2.3324016873336366
2025-03-27 13:38:20.663,5.381445894995142
2025-03-27 13:38:20.672,3.664076851828526
2025-03-27 13:38:20.672,-1.9287695018527478
2025-03-27 13:38:20.672,-5.905513197415489
2025-03-27 13:38:20.672,-4.450475223448524
2025-03-27 13:38:20.672,0.491359914438663
2025-03-27 13:38:20.681,4.095225544405483
2025-03-27 13:38:20.681,3.9156710826990477
2025-03-27 13:38:20.681,1.150615812986141
2025-03-27 13:38:20.682,-1.7755029562910818
2025-03-27 13:38:20.682,-3.0667057475420245
2025-03-27 13:38:20.691,-1.8786599002362565
2025-03-27 13:38:20.691,1.026841720033809
2025-03-27 13:38:20.691,2.8870449902568462
2025-03-27 13:38:20.692,1.227619436607045
2025-03-27 13:38:20.692,-2.595437731718327
2025-03-27 13:38:20.701,-3.8151797830045973
2025-03-27 13:38:20.701,0.1402325391285108
2025-03-27 13:38:20.701,5.426771365161278
2025-03-27 13:38:20.702,5.453026551207516
2025-03-27 13:38:20.702,-0.975209345925651
2025-03-27 13:38:20.711,-7.348281326349489
2025-03-27 13:38:20.711,-6.659828113839271
2025-03-27 13:38:20.711,0.45625642806285155
2025-03-27 13:38:20.711,6.635304521604555
2025-03-27 13:38:20.712,6.255133312566064
2025-03-27 13:38:20.721,0.9726563441742497
2025-03-27 13:38:20.721,-3.4919415663205067
2025-03-27 13:38:20.721,-4.035595192975564
2025-03-27 13:38:20.721,-2.079023739916931
2025-03-27 13:38:20.731,-0.05750103068975605
2025-03-27 13:38:20.731,1.4100710002967407
2025-03-27 13:38:20.731,2.3797049083569624
2025-03-27 13:38:20.731,1.9430770140573779
2025-03-27 13:38:20.731,-0.3549642503268873
2025-03-27 13:38:20.741,-2.5407726918227924
2025-03-27 13:38:20.741,-1.907214052542915
2025-03-27 13:38:20.741,1.219324337817044
2025-03-27 13:38:20.741,3.231611800733049
2025-03-27 13:38:20.741,1.4975110698732332
2025-03-27 13:38:20.751,-2.3344566756106815
2025-03-27 13:38:20.751,-4.201604736438207
2025-03-27 13:38:20.751,-2.115403388395045
2025-03-27 13:38:20.751,2.023367472047256
2025-03-27 13:38:20.751,4.6000552376732315
2025-03-27 13:38:20.761,3.5044150956171043
2025-03-27 13:38:20.761,-0.3666155365768421
2025-03-27 13:38:20.761,-3.8841115654052434
2025-03-27 13:38:20.761,-4.167193192153492
2025-03-27 13:38:20.761,-1.169648295162958
2025-03-27 13:38:20.771,2.1935288648505624
2025-03-27 13:38:20.771,3.0270020362727337
2025-03-27 13:38:20.771,1.3577929171049452
2025-03-27 13:38:20.771,-0.3979404434466485
2025-03-27 13:38:20.771,-0.48919226007919125
2025-03-27 13:38:20.779,0.28103752673323734
2025-03-27 13:38:20.780,-0.23650969144526726
2025-03-27 13:38:20.780,-2.51923983381346
2025-03-27 13:38:20.780,-3.788393152399474
2025-03-27 13:38:20.780,-0.6615355367824634
2025-03-27 13:38:20.789,5.610372719328293
2025-03-27 13:38:20.789,8.205982412880704
2025-03-27 13:38:20.790,2.0142747799151577
2025-03-27 13:38:20.790,-8.314219000669828
2025-03-27 13:38:20.799,-11.403170009373365
2025-03-27 13:38:20.799,-2.3925417569178906
2025-03-27 13:38:20.799,9.672106977104862
2025-03-27 13:38:20.800,11.423068421848619
2025-03-27 13:38:20.800,1.1674056161886848
2025-03-27 13:38:20.810,-8.998571967613334
2025-03-27 13:38:20.810,-8.074618149120534
2025-03-27 13:38:20.810,1.002409581375682
2025-03-27 13:38:20.810,6.562743925875399
2025-03-27 13:38:20.810,3.335803605531998
2025-03-27 13:38:20.819,-2.5671155881186585
2025-03-27 13:38:20.819,-3.471422444917098
2025-03-27 13:38:20.819,0.17321176349214756
2025-03-27 13:38:20.819,2.409100990040303
2025-03-27 13:38:20.819,0.7549238913207124
2025-03-27 13:38:20.829,-1.4002918588609903
2025-03-27 13:38:20.829,-0.7263524005870547
2025-03-27 13:38:20.829,1.3304639283732893
2025-03-27 13:38:20.829,1.2092010405818157
2025-03-27 13:38:20.829,-1.3609813139571778
2025-03-27 13:38:20.839,-2.8609720705884913
2025-03-27 13:38:20.839,-0.7862013950191737
2025-03-27 13:38:20.839,2.780094516629439
2025-03-27 13:38:20.839,3.5330018035283484
2025-03-27 13:38:20.839,0.3443951988866186
2025-03-27 13:38:20.849,-3.128253082722504
2025-03-27 13:38:20.849,-2.8435554504542284
2025-03-27 13:38:20.849,0.6101338288963959
2025-03-27 13:38:20.849,2.781854634301539
2025-03-27 13:38:20.849,1.0098692404163057
2025-03-27 13:38:20.859,-2.248164397697293
2025-03-27 13:38:20.859,-2.6036952961985405
2025-03-27 13:38:20.859,0.7172610528890565
2025-03-27 13:38:20.859,3.902202700269539
2025-03-27 13:38:20.859,3.1095469402684386
2025-03-27 13:38:20.869,-1.1072831469647508
2025-03-27 13:38:20.869,-4.51018537320867
2025-03-27 13:38:20.869,-3.8088897985624848
2025-03-27 13:38:20.869,0.100173992657002
2025-03-27 13:38:20.869,3.4925761092783643
2025-03-27 13:38:20.879,3.7328785075501756
2025-03-27 13:38:20.879,1.3570848074169488
2025-03-27 13:38:20.879,-1.3003476223068897
2025-03-27 13:38:20.879,-2.552840990822038
2025-03-27 13:38:20.879,-2.1830303222014606
2025-03-27 13:38:20.889,-0.7711479161865046
2025-03-27 13:38:20.889,0.8756314231529349
2025-03-27 13:38:20.889,1.8669174675645646
2025-03-27 13:38:20.889,1.6189735622241188
2025-03-27 13:38:20.889,0.36536368820894133
2025-03-27 13:38:20.899,-0.9433413267005083
2025-03-27 13:38:20.899,-1.3471633743027487
2025-03-27 13:38:20.899,-0.5696368500728235
2025-03-27 13:38:20.899,0.6790241492057051
2025-03-27 13:38:20.899,1.0574584024405782
2025-03-27 13:38:20.909,-0.15481773147994918
2025-03-27 13:38:20.909,-1.8064394769833743
2025-03-27 13:38:20.909,-1.6007151691698174
2025-03-27 13:38:20.909,1.0579053629189563
2025-03-27 13:38:20.909,3.507543241924054
2025-03-27 13:38:20.919,2.5363904086404117
2025-03-27 13:38:20.919,-1.3629415350915994
2025-03-27 13:38:20.919,-4.069225787154304
2025-03-27 13:38:20.919,-2.7434211177698655
2025-03-27 13:38:20.919,0.86954862647059
2025-03-27 13:38:20.929,3.006053055082103
2025-03-27 13:38:20.929,2.267468502234146
2025-03-27 13:38:20.929,0.07933432015802805
2025-03-27 13:38:20.929,-1.8259467806476513
2025-03-27 13:38:20.929,-2.445749967698995
2025-03-27 13:38:20.939,-1.0301674229567244
2025-03-27 13:38:20.939,1.9742897171476266
2025-03-27 13:38:20.939,3.752034885709419
2025-03-27 13:38:20.939,1.5458098806131675
2025-03-27 13:38:20.939,-3.086377387674671
2025-03-27 13:38:20.949,-4.893177213143013
2025-03-27 13:38:20.949,-1.2773000492466988
2025-03-27 13:38:20.949,3.8821410191135843
2025-03-27 13:38:20.949,4.7356544366308695
2025-03-27 13:38:20.949,0.5696378367401436
2025-03-27 13:38:20.957,-3.768210723263432
2025-03-27 13:38:20.957,-3.9462712515946246
2025-03-27 13:38:20.957,-0.45201570859909157
2025-03-27 13:38:20.958,3.1185271383078987
2025-03-27 13:38:20.958,3.905003130157737
2025-03-27 13:38:20.967,1.4208577125666737
2025-03-27 13:38:20.967,-2.609724470618642
2025-03-27 13:38:20.967,-4.920244829882773
2025-03-27 13:38:20.968,-2.849969808731612
2025-03-27 13:38:20.977,2.4906863461403717
2025-03-27 13:38:20.977,6.0939495180124545
2025-03-27 13:38:20.977,3.907941975381236
2025-03-27 13:38:20.977,-2.291246518174057
2025-03-27 13:38:20.978,-6.350596625738388
2025-03-27 13:38:20.987,-4.33083822522169
2025-03-27 13:38:20.987,1.4661804936044247
2025-03-27 13:38:20.987,5.3762002602248655
2025-03-27 13:38:20.987,4.202804461302738
2025-03-27 13:38:20.987,-0.34141500447365286
2025-03-27 13:38:20.997,-3.9640157570270365
2025-03-27 13:38:20.997,-3.6708164781076214
2025-03-27 13:38:20.997,-0.03908661029925209
2025-03-27 13:38:20.997,3.351415520621371
2025-03-27 13:38:20.997,3.0762154613370587
2025-03-27 13:38:21.007,-0.6782588885728736
2025-03-27 13:38:21.007,-3.969242359421241
2025-03-27 13:38:21.007,-3.10603671744188
2025-03-27 13:38:21.007,1.317113984458902
2025-03-27 13:38:21.007,4.980446445235976
2025-03-27 13:38:21.017,4.271616557371638
2025-03-27 13:38:21.017,-0.3474107694185179
2025-03-27 13:38:21.017,-5.049813420921174
2025-03-27 13:38:21.017,-5.976622626809918
2025-03-27 13:38:21.017,-2.2033194295492087
2025-03-27 13:38:21.027,3.479194715468896
2025-03-27 13:38:21.027,6.539680739316789
2025-03-27 13:38:21.027,4.468526360512454
2025-03-27 13:38:21.027,-0.7856402267581907
2025-03-27 13:38:21.027,-4.596826483577678
2025-03-27 13:38:21.035,-4.295783297938629
2025-03-27 13:38:21.036,-1.5159515424715386
2025-03-27 13:38:21.036,0.5161128188171161
2025-03-27 13:38:21.036,1.0862047894059148
2025-03-27 13:38:21.036,1.95228641879085
2025-03-27 13:38:21.045,3.5368238289832554
2025-03-27 13:38:21.045,3.386917007926394
2025-03-27 13:38:21.046,-0.2944540630604407
2025-03-27 13:38:21.046,-5.064247229607783
2025-03-27 13:38:21.046,-6.241921723693736
2025-03-27 13:38:21.057,-2.301380658703686
2025-03-27 13:38:21.057,3.309149041159162
2025-03-27 13:38:21.057,5.946859878169825
2025-03-27 13:38:21.057,4.189471498306158
2025-03-27 13:38:21.057,0.18117819317856396
2025-03-27 13:38:21.065,-3.1819152468524563
2025-03-27 13:38:21.065,-4.387000499292719
2025-03-27 13:38:21.066,-3.2373607117562675
2025-03-27 13:38:21.066,-0.2276195279870935
2025-03-27 13:38:21.066,3.215473365092136
2025-03-27 13:38:21.075,4.7077500084986434
2025-03-27 13:38:21.075,2.618069542296567
2025-03-27 13:38:21.076,-1.7505659769609914
2025-03-27 13:38:21.076,-4.615930171020983
2025-03-27 13:38:21.085,-3.29295756141098
2025-03-27 13:38:21.086,0.8349402838135935
2025-03-27 13:38:21.086,3.643475583989165
2025-03-27 13:38:21.086,2.6522996009080053
2025-03-27 13:38:21.086,-0.5709530500328083
2025-03-27 13:38:21.097,-2.5965545063015276
2025-03-27 13:38:21.097,-1.8815489818535334
2025-03-27 13:38:21.097,0.3221428852520609
2025-03-27 13:38:21.097,2.0062103521815406
2025-03-27 13:38:21.097,2.121239551932365
2025-03-27 13:38:21.108,0.5933926382689539
2025-03-27 13:38:21.108,-1.814685575774917
2025-03-27 13:38:21.108,-3.2838095432935805
2025-03-27 13:38:21.108,-2.0184744778905674
2025-03-27 13:38:21.108,1.4444051393270514
2025-03-27 13:38:21.115,3.9518750708258716
2025-03-27 13:38:21.115,2.9911843671817784
2025-03-27 13:38:21.115,-0.3136221121714423
2025-03-27 13:38:21.115,-2.7100033313710497
2025-03-27 13:38:21.115,-2.8063777947223225
2025-03-27 13:38:21.125,-1.8194271244872315
2025-03-27 13:38:21.125,-0.5341735476241946
2025-03-27 13:38:21.125,1.8757090075633807
2025-03-27 13:38:21.125,4.783515406362151
2025-03-27 13:38:21.125,4.483625679479472
2025-03-27 13:38:21.135,-1.2605689623980236
2025-03-27 13:38:21.135,-7.980499423546437
2025-03-27 13:38:21.135,-7.653763805633716
2025-03-27 13:38:21.135,1.4219260048485232
2025-03-27 13:38:21.135,10.555446244752156
2025-03-27 13:38:21.143,9.399004288138146
2025-03-27 13:38:21.143,-1.7946877550885614
2025-03-27 13:38:21.143,-11.50231766766848
2025-03-27 13:38:21.144,-9.582901339543112
2025-03-27 13:38:21.144,1.4638197774214854
2025-03-27 13:38:21.153,9.89621282132345
2025-03-27 13:38:21.153,8.130224832702536
2025-03-27 13:38:21.153,-0.08906255590876999
2025-03-27 13:38:21.154,-5.89414634936535
2025-03-27 13:38:21.163,-5.3897606001180804
2025-03-27 13:38:21.163,-1.620949310925718
2025-03-27 13:38:21.163,1.235982383941595
2025-03-27 13:38:21.164,2.269804488689824
2025-03-27 13:38:21.164,2.47143959401187
2025-03-27 13:38:21.173,1.957007129805309
2025-03-27 13:38:21.173,0.2733837684984102
2025-03-27 13:38:21.173,-1.8212607294440457
2025-03-27 13:38:21.173,-2.701378942546291
2025-03-27 13:38:21.173,-1.8230158318709597
2025-03-27 13:38:21.183,-0.11420864039963052
2025-03-27 13:38:21.183,1.4894638645119538
2025-03-27 13:38:21.183,2.6463741776099936
2025-03-27 13:38:21.183,2.634095478101474
2025-03-27 13:38:21.183,0.40614109680212934
2025-03-27 13:38:21.193,-3.272847291798934
2025-03-27 13:38:21.193,-4.939878134971931
2025-03-27 13:38:21.193,-1.7350485363401975
2025-03-27 13:38:21.193,4.171821210396404
2025-03-27 13:38:21.194,6.424517682442827
2025-03-27 13:38:21.203,1.5318875954183278
2025-03-27 13:38:21.203,-5.73237530972378
2025-03-27 13:38:21.203,-6.679378909873156
2025-03-27 13:38:21.203,0.6074941428390466
2025-03-27 13:38:21.204,7.65086217897879
2025-03-27 13:38:21.213,5.452803470743116
2025-03-27 13:38:21.213,-3.703234352997673
2025-03-27 13:38:21.213,-8.538625963029892
2025-03-27 13:38:21.213,-3.1119723977570626
2025-03-27 13:38:21.213,5.643562801026061
2025-03-27 13:38:21.223,7.177694259935309
2025-03-27 13:38:21.223,0.6584933022529489
2025-03-27 13:38:21.223,-5.113152102013142
2025-03-27 13:38:21.223,-3.8004939481411952
2025-03-27 13:38:21.223,1.1552095044678026
2025-03-27 13:38:21.233,2.631947009521228
2025-03-27 13:38:21.233,-0.341241458915341
2025-03-27 13:38:21.233,-2.238754632983005
2025-03-27 13:38:21.233,0.4462953349165184
2025-03-27 13:38:21.234,4.00429442058378
2025-03-27 13:38:21.243,2.6483946352925543
2025-03-27 13:38:21.243,-3.0609813313485494
2025-03-27 13:38:21.243,-6.131421676618763
2025-03-27 13:38:21.243,-2.1259574428190358
2025-03-27 13:38:21.243,4.513242408006431
2025-03-27 13:38:21.253,5.762607910847979
2025-03-27 13:38:21.253,0.42300720653282775
2025-03-27 13:38:21.253,-4.383538184333431
2025-03-27 13:38:21.253,-2.844217857173203
2025-03-27 13:38:21.253,1.9901030112528373
2025-03-27 13:38:21.262,2.9918931349604474
2025-03-27 13:38:21.262,-1.0134860649949202
2025-03-27 13:38:21.262,-4.010997783224312
2025-03-27 13:38:21.262,-1.480110986147926
2025-03-27 13:38:21.262,3.489144533731748
2025-03-27 13:38:21.271,4.651248587001454
2025-03-27 13:38:21.271,0.8087338945230249
2025-03-27 13:38:21.272,-3.2620028745148706
2025-03-27 13:38:21.272,-3.4366503547340677
2025-03-27 13:38:21.283,-0.9217787473354881
2025-03-27 13:38:21.283,0.6527714198674492
2025-03-27 13:38:21.283,0.5837193400680764
2025-03-27 13:38:21.283,1.1367663176651375
2025-03-27 13:38:21.283,2.893489981356193
2025-03-27 13:38:21.283,2.9480162041871703
2025-03-27 13:38:21.291,-0.8596211115917523
2025-03-27 13:38:21.291,-5.672143735749107
2025-03-27 13:38:21.292,-5.946320966868555
2025-03-27 13:38:21.292,-0.12027242133069782
2025-03-27 13:38:21.301,6.690602207676866
2025-03-27 13:38:21.301,7.604247300026341
2025-03-27 13:38:21.301,1.2600617664351539
2025-03-27 13:38:21.301,-6.34754738216169
2025-03-27 13:38:21.302,-7.679262026791251
2025-03-27 13:38:21.311,-1.459505804695771
2025-03-27 13:38:21.312,5.747402975722614
2025-03-27 13:38:21.312,6.446395532325946
2025-03-27 13:38:21.312,0.38758979987032594
2025-03-27 13:38:21.312,-5.353094376035784
2025-03-27 13:38:21.321,-4.6291267772923455
2025-03-27 13:38:21.321,0.971772924182088
2025-03-27 13:38:21.321,4.712721311889945
2025-03-27 13:38:21.321,2.950435844607696
2025-03-27 13:38:21.321,-1.3021468255182198
2025-03-27 13:38:21.331,-3.1422384804841768
2025-03-27 13:38:21.331,-1.7665571116075345
2025-03-27 13:38:21.332,-0.012865470241242627
2025-03-27 13:38:21.332,0.5463026926132593
2025-03-27 13:38:21.332,1.153960142898656
2025-03-27 13:38:21.341,2.3908615050911477
2025-03-27 13:38:21.341,2.173136486158048
2025-03-27 13:38:21.341,-0.9137196234392746
2025-03-27 13:38:21.341,-4.23810457388441
2025-03-27 13:38:21.341,-3.7622190694071467
2025-03-27 13:38:21.351,0.5038386964849773
2025-03-27 13:38:21.351,4.165683741047691
2025-03-27 13:38:21.351,3.797877764534675
2025-03-27 13:38:21.351,0.5317429364598592
2025-03-27 13:38:21.351,-2.291081420708929
2025-03-27 13:38:21.361,-2.995966754819072
2025-03-27 13:38:21.361,-1.929224556986895
2025-03-27 13:38:21.361,0.21270921308344465
2025-03-27 13:38:21.361,2.4216122138010414
2025-03-27 13:38:21.361,2.8048348473211817
2025-03-27 13:38:21.371,0.37124841518800455
2025-03-27 13:38:21.371,-2.6464735034492466
2025-03-27 13:38:21.372,-2.5432451856722658
2025-03-27 13:38:21.372,0.9575102685171611
2025-03-27 13:38:21.372,3.4994533307573046
2025-03-27 13:38:21.381,1.4044875346984036
2025-03-27 13:38:21.381,-3.124131020885001
2025-03-27 13:38:21.381,-4.363528687016376
2025-03-27 13:38:21.382,-0.3667607149372689
2025-03-27 13:38:21.382,4.44339061449829
2025-03-27 13:38:21.391,4.752353353152328
2025-03-27 13:38:21.391,0.5214704760406701
2025-03-27 13:38:21.391,-3.7599247899200328
2025-03-27 13:38:21.391,-4.576752798267272
2025-03-27 13:38:21.391,-2.1780324993678106
2025-03-27 13:38:21.401,1.28883593304215
2025-03-27 13:38:21.401,3.9301759833292835
2025-03-27 13:38:21.401,4.212287456600334
2025-03-27 13:38:21.401,1.3941985800837122
2025-03-27 13:38:21.402,-2.8531545238940397
2025-03-27 13:38:21.411,-4.876695429376697
2025-03-27 13:38:21.411,-2.707393272784162
2025-03-27 13:38:21.411,1.4456104978987063
2025-03-27 13:38:21.411,3.615514459754852
2025-03-27 13:38:21.411,2.4305952036976906
2025-03-27 13:38:21.421,-0.08050970830422574
2025-03-27 13:38:21.421,-1.4917864940391397
2025-03-27 13:38:21.421,-1.3850749077878635
2025-03-27 13:38:21.421,-0.7582217510153781
2025-03-27 13:38:21.421,-0.29262622905942226
2025-03-27 13:38:21.431,0.18036159708760724
2025-03-27 13:38:21.431,0.9406956396367283
2025-03-27 13:38:21.431,1.5715706248142305
2025-03-27 13:38:21.431,1.0925575311654216
2025-03-27 13:38:21.431,-0.7956463537707169
2025-03-27 13:38:21.441,-2.650863256889665
2025-03-27 13:38:21.441,-2.2764776857140845
2025-03-27 13:38:21.441,0.6504636303371375
2025-03-27 13:38:21.441,3.4941862897251927
2025-03-27 13:38:21.441,3.1085178078111153
2025-03-27 13:38:21.451,-0.5689302898076302
2025-03-27 13:38:21.451,-3.9976997799261764
2025-03-27 13:38:21.451,-3.5587232006068272
2025-03-27 13:38:21.451,0.49002970705772536
2025-03-27 13:38:21.451,4.056259960479696
2025-03-27 13:38:21.461,3.5505300228214294
2025-03-27 13:38:21.461,-0.21508701129096397
2025-03-27 13:38:21.461,-3.1715335606903405
2025-03-27 13:38:21.461,-2.7630713990937976
2025-03-27 13:38:21.461,-0.39094160968966607
2025-03-27 13:38:21.471,1.1351839268871475
2025-03-27 13:38:21.471,1.1415964158122915
2025-03-27 13:38:21.471,0.948444571613427
2025-03-27 13:38:21.471,1.1206298115147244
2025-03-27 13:38:21.471,0.644157958608577
2025-03-27 13:38:21.481,-0.9526506259996208
2025-03-27 13:38:21.481,-2.1913356358173264
2025-03-27 13:38:21.481,-1.4460310072724758
2025-03-27 13:38:21.481,0.5794256744332761
2025-03-27 13:38:21.481,1.5341945050976749
2025-03-27 13:38:21.491,0.580987741088524
2025-03-27 13:38:21.491,-0.47281369535431195
2025-03-27 13:38:21.491,0.11937373271197538
2025-03-27 13:38:21.491,1.3478621842004792
2025-03-27 13:38:21.492,0.8468210535866538
2025-03-27 13:38:21.501,-1.4701711997073297
2025-03-27 13:38:21.501,-2.8629367948727116
2025-03-27 13:38:21.501,-1.3063734920007408
2025-03-27 13:38:21.501,1.7065328342298391
2025-03-27 13:38:21.502,2.9086700227964397
2025-03-27 13:38:21.511,1.2459480470085673
2025-03-27 13:38:21.511,-1.0017532780965155
2025-03-27 13:38:21.511,-1.3033568967204103
2025-03-27 13:38:21.511,-0.13056431402487573
2025-03-27 13:38:21.511,-0.012333694028777382
2025-03-27 13:38:21.521,-1.53128895032354
2025-03-27 13:38:21.521,-1.984777400023039
2025-03-27 13:38:21.521,0.7842370373333183
2025-03-27 13:38:21.521,4.4538520244982704
2025-03-27 13:38:21.521,4.2711542006057766
2025-03-27 13:38:21.529,-0.8492921756331901
2025-03-27 13:38:21.529,-6.131781434063891
2025-03-27 13:38:21.530,-5.901444432012004
2025-03-27 13:38:21.530,0.0838732298368049
2025-03-27 13:38:21.530,6.204579334613811
2025-03-27 13:38:21.545,6.653898083796432
2025-03-27 13:38:21.545,1.0664075887126505
2025-03-27 13:38:21.545,-5.276284353373612
2025-03-27 13:38:21.545,-6.508197004143124
2025-03-27 13:38:21.549,-1.733161758676618
2025-03-27 13:38:21.549,4.111567437725057
2025-03-27 13:38:21.549,5.207252410160764
2025-03-27 13:38:21.550,0.9658262476112927
2025-03-27 13:38:21.550,-3.351777645502572
2025-03-27 13:38:21.559,-2.771837287651314
2025-03-27 13:38:21.559,1.386515404408125
2025-03-27 13:38:21.559,3.2425678601765453
2025-03-27 13:38:21.560,0.06580340750034586
2025-03-27 13:38:21.560,-3.981240725457696
2025-03-27 13:38:21.569,-3.2944900479022543
2025-03-27 13:38:21.569,1.6598874542182713
2025-03-27 13:38:21.569,4.930614831942892
2025-03-27 13:38:21.569,2.8584439890514415
2025-03-27 13:38:21.570,-1.6249617056215975
2025-03-27 13:38:21.579,-3.514144701541356
2025-03-27 13:38:21.579,-2.014220928275781
2025-03-27 13:38:21.579,-0.08620208193309253
2025-03-27 13:38:21.579,0.6290040991466642
2025-03-27 13:38:21.580,1.3109385643510865
2025-03-27 13:38:21.589,2.517585992337202
2025-03-27 13:38:21.589,2.3136309074287786
2025-03-27 13:38:21.589,-0.7049187260920329
2025-03-27 13:38:21.589,-4.313125226455835
2025-03-27 13:38:21.589,-4.550411390879074
2025-03-27 13:38:21.599,-0.4176565439219483
2025-03-27 13:38:21.599,4.574487892311926
2025-03-27 13:38:21.599,5.8191857355849015
2025-03-27 13:38:21.599,2.1112884750284233
2025-03-27 13:38:21.599,-3.3173703475494976
2025-03-27 13:38:21.609,-5.874487681001587
2025-03-27 13:38:21.609,-3.6228940408147037
2025-03-27 13:38:21.609,1.3285960896961138
2025-03-27 13:38:21.609,4.881893651381255
2025-03-27 13:38:21.609,4.339013303978381
2025-03-27 13:38:21.619,0.3744978468026253
2025-03-27 13:38:21.619,-3.6500718040070463
2025-03-27 13:38:21.619,-4.374992935534944
2025-03-27 13:38:21.619,-1.2344952938711635
2025-03-27 13:38:21.619,2.883547950485813
2025-03-27 13:38:21.627,4.107574974782136
2025-03-27 13:38:21.628,1.3314540440139027
2025-03-27 13:38:21.628,-2.5393617797146124
2025-03-27 13:38:21.628,-3.567448537546773
2025-03-27 13:38:21.628,-0.9788294158540876
2025-03-27 13:38:21.637,2.181576486792089
2025-03-27 13:38:21.638,2.653634769745189
2025-03-27 13:38:21.638,0.4665438647253861
2025-03-27 13:38:21.638,-1.6285095172537343
2025-03-27 13:38:21.647,-1.5795451892463328
2025-03-27 13:38:21.647,-0.00503531783403996
2025-03-27 13:38:21.647,1.0820699692637843
2025-03-27 13:38:21.648,0.6414004342420687
2025-03-27 13:38:21.648,-0.5546951981070376
2025-03-27 13:38:21.657,-0.9483231313458609
2025-03-27 13:38:21.657,0.1489578797617285
2025-03-27 13:38:21.657,1.6524043113805174
2025-03-27 13:38:21.657,1.5491887957649797
2025-03-27 13:38:21.657,-0.8042701233302085
2025-03-27 13:38:21.667,-3.277658610938242
2025-03-27 13:38:21.667,-2.7789074859826197
2025-03-27 13:38:21.668,1.021594539922062
2025-03-27 13:38:21.668,4.567200672949608
2025-03-27 13:38:21.668,4.005841141020935
2025-03-27 13:38:21.677,-0.3806023014443427
2025-03-27 13:38:21.678,-4.366644412072277
2025-03-27 13:38:21.678,-4.42446636560055
2025-03-27 13:38:21.678,-1.135561095473128
2025-03-27 13:38:21.678,2.279690708808057
2025-03-27 13:38:21.688,3.597153482097547
2025-03-27 13:38:21.688,2.835794394577866
2025-03-27 13:38:21.688,0.8372157565626365
2025-03-27 13:38:21.688,-1.7211087313220004
2025-03-27 13:38:21.688,-3.7155455662779575
2025-03-27 13:38:21.697,-3.4616859413946885
2025-03-27 13:38:21.697,-0.427901550094043
2025-03-27 13:38:21.697,3.304665714388532
2025-03-27 13:38:21.697,4.456933411513937
2025-03-27 13:38:21.697,1.8629024947295099
2025-03-27 13:38:21.707,-2.1108200138964626
2025-03-27 13:38:21.707,-3.839573119883965
2025-03-27 13:38:21.707,-1.9933989742416938
2025-03-27 13:38:21.707,1.2881137124570263
2025-03-27 13:38:21.708,2.6180345973922625
2025-03-27 13:38:21.717,0.7980226529052441
2025-03-27 13:38:21.717,-1.8191198523979977
2025-03-27 13:38:21.717,-1.75002526863539
2025-03-27 13:38:21.717,1.4028657794693462
2025-03-27 13:38:21.717,3.776373636328515
2025-03-27 13:38:21.727,1.5272532759654456
2025-03-27 13:38:21.727,-3.8304675626583116
2025-03-27 13:38:21.727,-6.161021295591501
2025-03-27 13:38:21.727,-1.8344643647880705
2025-03-27 13:38:21.727,5.21904532038861
2025-03-27 13:38:21.736,7.462082395763195
2025-03-27 13:38:21.736,2.4290030795020248
2025-03-27 13:38:21.736,-4.521447154333765
2025-03-27 13:38:21.736,-6.618759722283677
2025-03-27 13:38:21.736,-2.982386967747704
2025-03-27 13:38:21.747,1.7777846461278937
2025-03-27 13:38:21.747,3.728738483023955
2025-03-27 13:38:21.747,3.077161188490096
2025-03-27 13:38:21.747,1.7463857782269714
2025-03-27 13:38:21.747,0.08491478578197685
2025-03-27 13:38:21.757,-2.439199688245563
2025-03-27 13:38:21.757,-4.513906740955929
2025-03-27 13:38:21.757,-3.3479731197810936
2025-03-27 13:38:21.757,1.4404365321321277
2025-03-27 13:38:21.757,5.785487457616606
2025-03-27 13:38:21.767,4.901513059321999
2025-03-27 13:38:21.767,-0.9002128015116461
2025-03-27 13:38:21.767,-5.743523572951869
2025-03-27 13:38:21.767,-4.520480668604315
2025-03-27 13:38:21.767,1.2268696100285614
2025-03-27 13:38:21.775,5.061198272400369
2025-03-27 13:38:21.776,3.014718588930875
2025-03-27 13:38:21.776,-2.15574097599195
2025-03-27 13:38:21.776,-4.482922088278727
2025-03-27 13:38:21.776,-1.5344275977086943
2025-03-27 13:38:21.785,3.226189200778598
2025-03-27 13:38:21.786,4.465352971960285
2025-03-27 13:38:21.786,0.6505782896188769
2025-03-27 13:38:21.786,-4.3175319750499845
2025-03-27 13:38:21.786,-4.942367419964511
2025-03-27 13:38:21.796,0.05960288785220208
2025-03-27 13:38:21.796,5.680371996511507
2025-03-27 13:38:21.796,5.369665608416957
2025-03-27 13:38:21.796,-1.3374864989710826
2025-03-27 13:38:21.805,-7.193212660698467
2025-03-27 13:38:21.805,-5.1224930507482425
2025-03-27 13:38:21.806,2.9432908917418787
2025-03-27 13:38:21.806,7.8089130834763365
2025-03-27 13:38:21.806,4.045129376626892
2025-03-27 13:38:21.815,-3.5778338261310063
2025-03-27 13:38:21.815,-6.440134978104477
2025-03-27 13:38:21.816,-2.534383355918344
2025-03-27 13:38:21.816,2.391962474633285
2025-03-27 13:38:21.816,3.183442050820307
2025-03-27 13:38:21.825,1.105612385025812
2025-03-27 13:38:21.825,0.1738985885293674
2025-03-27 13:38:21.826,0.7144991174528574
2025-03-27 13:38:21.826,-0.21076626595071857
2025-03-27 13:38:21.826,-2.9415495280569934
2025-03-27 13:38:21.835,-3.6301701147215653
2025-03-27 13:38:21.835,0.08361413452933425
2025-03-27 13:38:21.835,4.6423721814795575
2025-03-27 13:38:21.836,4.560400144158261
2025-03-27 13:38:21.836,-0.36678535463293477
2025-03-27 13:38:21.845,-4.656505826833782
2025-03-27 13:38:21.846,-3.9081623268152024
2025-03-27 13:38:21.846,0.3980886077734457
2025-03-27 13:38:21.846,3.5198027325584547
2025-03-27 13:38:21.846,2.9582819938895124
2025-03-27 13:38:21.855,0.13648786764442847
2025-03-27 13:38:21.855,-2.1734925124370945
2025-03-27 13:38:21.856,-2.508847142468763
2025-03-27 13:38:21.856,-1.1056167639745982
2025-03-27 13:38:21.856,0.9343206098986829
2025-03-27 13:38:21.865,2.3010344129437574
2025-03-27 13:38:21.865,2.0227481393207154
2025-03-27 13:38:21.865,0.21277098952467827
2025-03-27 13:38:21.865,-1.6902855880735952
2025-03-27 13:38:21.866,-2.0384404321279623
2025-03-27 13:38:21.875,-0.7109771788245783
2025-03-27 13:38:21.875,0.6272932221358793
2025-03-27 13:38:21.875,0.5313540095843321
2025-03-27 13:38:21.875,-0.2638817280445757
2025-03-27 13:38:21.875,0.1718816900451314
2025-03-27 13:38:21.885,1.9258689848971813
2025-03-27 13:38:21.885,2.4875347055440655
2025-03-27 13:38:21.885,0.022910575798381558
2025-03-27 13:38:21.885,-3.542783419486727
2025-03-27 13:38:21.886,-4.342216532910366
2025-03-27 13:38:21.895,-1.2830760135135924
2025-03-27 13:38:21.895,2.671466453042425
2025-03-27 13:38:21.895,4.184827623582827
2025-03-27 13:38:21.895,2.903298051928147
2025-03-27 13:38:21.895,0.5224771915302796
2025-03-27 13:38:21.905,-1.7921640173714468
2025-03-27 13:38:21.905,-3.613836343619075
2025-03-27 13:38:21.905,-3.9546907463444394
2025-03-27 13:38:21.905,-1.7057195018394093
2025-03-27 13:38:21.905,2.3936818938624422
2025-03-27 13:38:21.913,5.439662565054774
2025-03-27 13:38:21.914,4.765887313626392
2025-03-27 13:38:21.914,0.5156905942368601
2025-03-27 13:38:21.914,-4.306299897424203
2025-03-27 13:38:21.924,-6.18698509152424
2025-03-27 13:38:21.924,-3.6958320534853013
2025-03-27 13:38:21.924,1.519433832188101
2025-03-27 13:38:21.924,5.750035380893574
2025-03-27 13:38:21.924,5.679120832148305
2025-03-27 13:38:21.924,1.0424647997841563
2025-03-27 13:38:21.934,-4.491297951455185
2025-03-27 13:38:21.934,-5.910907467623863
2025-03-27 13:38:21.934,-1.6952491804009584
2025-03-27 13:38:21.934,3.9021468788823115
2025-03-27 13:38:21.943,4.812838770280456
2025-03-27 13:38:21.943,0.08689914614595723
2025-03-27 13:38:21.943,-4.4944207799785065
2025-03-27 13:38:21.944,-3.1661949305047683
2025-03-27 13:38:21.944,2.514455019575876
2025-03-27 13:38:21.953,5.399086552537752
2025-03-27 13:38:21.953,1.7240462674707269
2025-03-27 13:38:21.953,-4.209884727114031
2025-03-27 13:38:21.954,-5.5440407454741
2025-03-27 13:38:21.954,-1.102121390651958
2025-03-27 13:38:21.963,3.903960956939553
2025-03-27 13:38:21.963,4.546194983340626
2025-03-27 13:38:21.963,1.3121909111989039
2025-03-27 13:38:21.964,-1.80776445161209
2025-03-27 13:38:21.964,-2.4917051363734712
2025-03-27 13:38:21.973,-1.7343585163290762
2025-03-27 13:38:21.973,-1.0112602879530284
2025-03-27 13:38:21.973,-0.0075024456864630565
2025-03-27 13:38:21.974,1.8386034515007899
2025-03-27 13:38:21.974,3.130665250367563
2025-03-27 13:38:21.983,1.877155468780554
2025-03-27 13:38:21.983,-1.3251886205860337
2025-03-27 13:38:21.983,-3.418432777606178
2025-03-27 13:38:21.983,-2.5411385731827587
2025-03-27 13:38:21.983,-0.03101942496980259
2025-03-27 13:38:21.993,1.750136073253924
2025-03-27 13:38:21.993,2.154795541206047
2025-03-27 13:38:21.993,1.900268413573485
2025-03-27 13:38:21.993,1.1224263845842684
2025-03-27 13:38:21.993,-0.7665175257316572
2025-03-27 13:38:22.003,-3.3348734827253033
2025-03-27 13:38:22.003,-4.345401691105428
2025-03-27 13:38:22.003,-1.6826251033181654
2025-03-27 13:38:22.003,3.6222418013833786
2025-03-27 13:38:22.003,7.017896214044895
2025-03-27 13:38:22.012,4.477369334793222
2025-03-27 13:38:22.012,-2.6471097472143015
2025-03-27 13:38:22.012,-7.979852404572469
2025-03-27 13:38:22.012,-6.3599943401688765
2025-03-27 13:38:22.012,0.7443430807184905
2025-03-27 13:38:22.022,6.781762981632905
2025-03-27 13:38:22.022,6.668933055701308
2025-03-27 13:38:22.022,1.2158590949536277
2025-03-27 13:38:22.022,-4.403954791728002
2025-03-27 13:38:22.022,-5.633597333820632
2025-03-27 13:38:22.032,-2.175981467699942
2025-03-27 13:38:22.032,2.304702212243147
2025-03-27 13:38:22.032,3.75998522592392
2025-03-27 13:38:22.032,1.5282165807082944
2025-03-27 13:38:22.032,-1.2688001669342202
2025-03-27 13:38:22.042,-1.4040378056302099
2025-03-27 13:38:22.042,0.6238853687554361
2025-03-27 13:38:22.042,1.3520958489319193
2025-03-27 13:38:22.042,-0.9279670284642322
2025-03-27 13:38:22.042,-3.5027856564530033
2025-03-27 13:38:22.052,-2.4010146789118734
2025-03-27 13:38:22.052,2.351193166152878
2025-03-27 13:38:22.052,6.032460570206433
2025-03-27 13:38:22.052,4.208853018947363
2025-03-27 13:38:22.052,-2.210764033707399
2025-03-27 13:38:22.062,-7.410450820470007
2025-03-27 13:38:22.062,-6.206192735208873
2025-03-27 13:38:22.062,0.7755984411735742
2025-03-27 13:38:22.062,7.3523423657620475
2025-03-27 13:38:22.062,7.455483093398629
2025-03-27 13:38:22.071,0.9515945114132169
2025-03-27 13:38:22.072,-6.112845622991874
2025-03-27 13:38:22.072,-7.290495708967381
2025-03-27 13:38:22.072,-1.9142832836693744
2025-03-27 13:38:22.082,4.472245985309865
2025-03-27 13:38:22.082,5.826201640739935
2025-03-27 13:38:22.082,1.5983012598792867
2025-03-27 13:38:22.082,-3.1870988696422806
2025-03-27 13:38:22.082,-3.717785209933196
2025-03-27 13:38:22.091,-0.4768119377266645
2025-03-27 13:38:22.091,2.1508072531989173
2025-03-27 13:38:22.091,1.6092013705772665
2025-03-27 13:38:22.091,-0.2507131859979052
2025-03-27 13:38:22.092,-0.6530583328737017
2025-03-27 13:38:22.101,0.08171381135275327
2025-03-27 13:38:22.101,-0.2249386163294922
2025-03-27 13:38:22.101,-1.4958898714531346
2025-03-27 13:38:22.102,-1.1426163432333971
2025-03-27 13:38:22.102,1.6472379686201173
2025-03-27 13:38:22.111,3.681308914549965
2025-03-27 13:38:22.111,1.6053162389940827
2025-03-27 13:38:22.111,-3.0859240622690107
2025-03-27 13:38:22.111,-5.081463841395948
2025-03-27 13:38:22.112,-1.6574313467274644
2025-03-27 13:38:22.121,3.646991513270102
2025-03-27 13:38:22.121,5.040589681320822
2025-03-27 13:38:22.121,1.338713134966178
2025-03-27 13:38:22.121,-2.912330965701559
2025-03-27 13:38:22.121,-3.2750713025957663
2025-03-27 13:38:22.131,-0.5318992846655675
2025-03-27 13:38:22.131,1.250570378657336
2025-03-27 13:38:22.131,0.39090953547060725
2025-03-27 13:38:22.131,-0.7961587391472877
2025-03-27 13:38:22.132,0.10239582733554978
2025-03-27 13:38:22.141,2.1448154838650133
2025-03-27 13:38:22.141,2.442743196973894
2025-03-27 13:38:22.141,-0.014602394007631553
2025-03-27 13:38:22.141,-3.0526111604976873
2025-03-27 13:38:22.141,-3.7144425040002975
2025-03-27 13:38:22.151,-1.3438801961076852
2025-03-27 13:38:22.151,1.9666131650392933
2025-03-27 13:38:22.151,3.6839949985961664
2025-03-27 13:38:22.151,3.002178116772204
2025-03-27 13:38:22.151,0.6797334822610096
2025-03-27 13:38:22.160,-2.1965194001755264
2025-03-27 13:38:22.160,-4.302164776354951
2025-03-27 13:38:22.160,-3.7988557948303536
2025-03-27 13:38:22.160,0.08746847970929511
2025-03-27 13:38:22.160,4.8592600600749245
2025-03-27 13:38:22.170,5.929419954181851
2025-03-27 13:38:22.170,1.502469936818528
2025-03-27 13:38:22.170,-4.479578520252879
2025-03-27 13:38:22.170,-5.989126690745241
2025-03-27 13:38:22.179,-1.680974688166072
2025-03-27 13:38:22.180,3.489000617615339
2025-03-27 13:38:22.180,4.1352488162762775
2025-03-27 13:38:22.180,0.5539087305239081
2025-03-27 13:38:22.180,-2.4580408953778234
2025-03-27 13:38:22.189,-1.8997295642565424
2025-03-27 13:38:22.189,0.5029765059223359
2025-03-27 13:38:22.190,1.654571757952706
2025-03-27 13:38:22.190,0.9854230089693737
2025-03-27 13:38:22.190,-0.1503150951809063
2025-03-27 13:38:22.200,-1.0588955981053
2025-03-27 13:38:22.200,-1.7459710805375221
2025-03-27 13:38:22.200,-1.4497368285182735
2025-03-27 13:38:22.200,0.5786417879117087
2025-03-27 13:38:22.200,2.9515299333589327
2025-03-27 13:38:22.209,2.923432261668374
2025-03-27 13:38:22.210,-0.042537229255169076
2025-03-27 13:38:22.210,-3.0495720913347877
2025-03-27 13:38:22.210,-3.1066614096749756
2025-03-27 13:38:22.210,-0.6217463999152326
2025-03-27 13:38:22.220,1.5621999835020344
2025-03-27 13:38:22.220,1.8377786437518884
2025-03-27 13:38:22.220,1.1104756439770436
2025-03-27 13:38:22.220,0.6361259237264787
2025-03-27 13:38:22.220,0.2006282293954042
2025-03-27 13:38:22.220,-0.8574981916567138
2025-03-27 13:38:22.229,-1.9611920046914224
2025-03-27 13:38:22.230,-1.874780204764442
2025-03-27 13:38:22.230,-0.522338727438897
2025-03-27 13:38:22.230,1.0186438110625127
2025-03-27 13:38:22.239,2.1269715449907376
2025-03-27 13:38:22.239,2.776614118419688
2025-03-27 13:38:22.240,2.136051265407255
2025-03-27 13:38:22.240,-0.8407785014085573
2025-03-27 13:38:22.240,-4.641008404950188
2025-03-27 13:38:22.250,-5.295747271029896
2025-03-27 13:38:22.250,-1.1024852391874238
2025-03-27 13:38:22.250,4.337429009390687
2025-03-27 13:38:22.250,5.929247200521522
2025-03-27 13:38:22.250,2.882304703987167
2025-03-27 13:38:22.260,-1.361941195418616
2025-03-27 13:38:22.260,-3.8839226165111844
2025-03-27 13:38:22.260,-4.263692968592806
2025-03-27 13:38:22.260,-2.498658240937343
2025-03-27 13:38:22.260,1.4277728432735854
2025-03-27 13:38:22.269,5.113188465062824
2025-03-27 13:38:22.269,4.465320937956602
2025-03-27 13:38:22.269,-0.8111996891153126
2025-03-27 13:38:22.269,-5.067017550524563
2025-03-27 13:38:22.270,-3.1862640666322153
2025-03-27 13:38:22.279,2.282789287940649
2025-03-27 13:38:22.279,4.045653286495823
2025-03-27 13:38:22.279,-0.14467948057058705
2025-03-27 13:38:22.279,-4.342869564010525
2025-03-27 13:38:22.279,-2.503417855248049
2025-03-27 13:38:22.289,3.220068522473357
2025-03-27 13:38:22.289,5.258059963013631
2025-03-27 13:38:22.289,0.7044056106374137
2025-03-27 13:38:22.289,-4.761759868457005
2025-03-27 13:38:22.289,-4.248546005965864
2025-03-27 13:38:22.299,1.4318940886448908
2025-03-27 13:38:22.299,4.946805171672297
2025-03-27 13:38:22.299,1.9873898473854532
2025-03-27 13:38:22.299,-3.419211381317718
2025-03-27 13:38:22.299,-4.4425843819700495
2025-03-27 13:38:22.309,-0.0842572170914081
2025-03-27 13:38:22.309,4.1677009030857155
2025-03-27 13:38:22.309,3.5780932052926024
2025-03-27 13:38:22.309,-0.5078269424758886
2025-03-27 13:38:22.309,-3.227034083183394
2025-03-27 13:38:22.318,-2.231452430909932
2025-03-27 13:38:22.318,0.37014949677355535
2025-03-27 13:38:22.318,1.416290199927806
2025-03-27 13:38:22.318,0.3999666373347506
2025-03-27 13:38:22.318,-0.6706737611627089
2025-03-27 13:38:22.329,-0.1466778802345225
2025-03-27 13:38:22.329,1.3874771225521902
2025-03-27 13:38:22.329,1.935335272510736
2025-03-27 13:38:22.329,0.2971477132281946
2025-03-27 13:38:22.329,-2.481011650881145
2025-03-27 13:38:22.339,-3.709613537379503
2025-03-27 13:38:22.339,-1.5523560607621465
2025-03-27 13:38:22.339,2.6283152555368776
2025-03-27 13:38:22.339,4.915736816296584
2025-03-27 13:38:22.339,2.719224798095803
2025-03-27 13:38:22.348,-2.0640891334238876
2025-03-27 13:38:22.348,-4.703684295062933
2025-03-27 13:38:22.348,-2.746024785921317
2025-03-27 13:38:22.348,1.3411345768860818
2025-03-27 13:38:22.348,3.1943214926905408
2025-03-27 13:38:22.358,1.5235474225531784
2025-03-27 13:38:22.358,-0.946085058128912
2025-03-27 13:38:22.358,-1.2866212517203506
2025-03-27 13:38:22.358,0.1679940639366213
2025-03-27 13:38:22.358,0.8762058457749223
2025-03-27 13:38:22.368,-0.22016663435072073
2025-03-27 13:38:22.368,-1.399147293212099
2025-03-27 13:38:22.368,-0.7335320324514115
2025-03-27 13:38:22.368,1.164102149245503
2025-03-27 13:38:22.368,1.8957639538495266
2025-03-27 13:38:22.377,0.3917581417662482
2025-03-27 13:38:22.378,-1.7221275682415291
2025-03-27 13:38:22.378,-2.091308830105724
2025-03-27 13:38:22.378,-0.30425544913743985
2025-03-27 13:38:22.388,1.831896110188555
2025-03-27 13:38:22.388,2.318035240929868
2025-03-27 13:38:22.388,0.817899803042749
2025-03-27 13:38:22.388,-1.3012654335244929
2025-03-27 13:38:22.388,-2.297822178139509
2025-03-27 13:38:22.401,-1.4557826093447663
2025-03-27 13:38:22.401,0.3964876592973471
2025-03-27 13:38:22.401,1.632801338969614
2025-03-27 13:38:22.401,1.3593512564710923
2025-03-27 13:38:22.401,0.245831735334463
2025-03-27 13:38:22.408,-0.4155400493277533
2025-03-27 13:38:22.408,-0.3366609733685507
2025-03-27 13:38:22.408,-0.34059799138488367
2025-03-27 13:38:22.408,-0.8036539203211818
2025-03-27 13:38:22.408,-0.8590624974205893
2025-03-27 13:38:22.417,0.2099309081421587
2025-03-27 13:38:22.417,1.4325946331778234
2025-03-27 13:38:22.418,1.1566395034847137
2025-03-27 13:38:22.418,-0.44157146906807065
2025-03-27 13:38:22.418,-1.1756054548871948
2025-03-27 13:38:22.427,0.10678952474548795
2025-03-27 13:38:22.427,1.4450142702525977
2025-03-27 13:38:22.427,0.2382106790192703
2025-03-27 13:38:22.427,-2.644264438151475
2025-03-27 13:38:22.428,-3.189706849902908
2025-03-27 13:38:22.437,0.5692246539488786
2025-03-27 13:38:22.437,5.179720144081436
2025-03-27 13:38:22.437,5.188772817956868
2025-03-27 13:38:22.438,-0.3599124409926967
2025-03-27 13:38:22.438,-6.265501706695889
2025-03-27 13:38:22.447,-6.548278837128563
2025-03-27 13:38:22.447,-0.8078771762153676
2025-03-27 13:38:22.448,5.4179351260536
2025-03-27 13:38:22.448,6.405254516258174
2025-03-27 13:38:22.448,1.8053856012849807
2025-03-27 13:38:22.457,-3.5383953878230576
2025-03-27 13:38:22.457,-4.780355699613799
2025-03-27 13:38:22.457,-1.6516056518591535
2025-03-27 13:38:22.458,2.005105047917451
2025-03-27 13:38:22.458,2.6839242975173976
2025-03-27 13:38:22.467,0.6127536271245978
2025-03-27 13:38:22.467,-1.3064082095778768
2025-03-27 13:38:22.467,-1.1709257252122869
2025-03-27 13:38:22.467,0.1707278917555562
2025-03-27 13:38:22.467,0.8892939242587218
2025-03-27 13:38:22.476,0.5681830869729829
2025-03-27 13:38:22.476,0.10515207741796313
2025-03-27 13:38:22.476,-0.11611186583863038
2025-03-27 13:38:22.476,-0.6779468974635926
2025-03-27 13:38:22.476,-1.5090227584490574
2025-03-27 13:38:22.486,-1.1127299322027073
2025-03-27 13:38:22.486,1.3042530812097015
2025-03-27 13:38:22.486,3.5973971362853323
2025-03-27 13:38:22.486,2.5231566203218443
2025-03-27 13:38:22.486,-1.8209072162819653
2025-03-27 13:38:22.496,-5.207993348235475
2025-03-27 13:38:22.496,-3.9587986205652124
2025-03-27 13:38:22.496,0.8781828278585393
2025-03-27 13:38:22.496,4.99461343060159
2025-03-27 13:38:22.496,5.278066164413777
2025-03-27 13:38:22.505,1.8550427089085733
2025-03-27 13:38:22.506,-2.8999643445019228
2025-03-27 13:38:22.506,-5.849007888977701
2025-03-27 13:38:22.506,-4.604872971179936
2025-03-27 13:38:22.515,0.36280365726432284
2025-03-27 13:38:22.516,5.098886346972385
2025-03-27 13:38:22.516,5.351571423597654
2025-03-27 13:38:22.516,1.0698149011848783
2025-03-27 13:38:22.516,-3.3216278038053497
2025-03-27 13:38:22.526,-3.79404354086608
2025-03-27 13:38:22.526,-0.9642877875244942
2025-03-27 13:38:22.526,1.3793992876471437
2025-03-27 13:38:22.526,1.1698761362192878
2025-03-27 13:38:22.526,-0.024688513217162367
2025-03-27 13:38:22.526,0.03259699592406103
2025-03-27 13:38:22.536,1.0122898478718967
2025-03-27 13:38:22.536,0.8857725756288067
2025-03-27 13:38:22.536,-0.7727420512052466
2025-03-27 13:38:22.536,-1.943293329024379
2025-03-27 13:38:22.546,-0.9436880748241488
2025-03-27 13:38:22.546,1.147649167396235
2025-03-27 13:38:22.546,1.8308876376124728
2025-03-27 13:38:22.546,0.38721493907810495
2025-03-27 13:38:22.546,-1.3901147011757469
2025-03-27 13:38:22.556,-1.5856487736551117
2025-03-27 13:38:22.556,-0.20056266407186896
2025-03-27 13:38:22.556,1.3901830300663398
2025-03-27 13:38:22.556,1.9768961136019507
2025-03-27 13:38:22.556,1.08814988503964
2025-03-27 13:38:22.566,-0.9608144959875051
2025-03-27 13:38:22.566,-2.816678934018977
2025-03-27 13:38:22.566,-2.6350768224115484
2025-03-27 13:38:22.566,0.052147877274052415
2025-03-27 13:38:22.566,3.1899167335417946
2025-03-27 13:38:22.576,3.8309492138397543
2025-03-27 13:38:22.576,1.1680498306529725
2025-03-27 13:38:22.576,-2.5010251039251945
2025-03-27 13:38:22.576,-4.009798062137325
2025-03-27 13:38:22.576,-2.2635377977386697
2025-03-27 13:38:22.586,1.041857344396526
2025-03-27 13:38:22.586,3.185329031003855
2025-03-27 13:38:22.586,2.7031515990806376
2025-03-27 13:38:22.586,0.3314672345063973
2025-03-27 13:38:22.586,-1.843563004994886
2025-03-27 13:38:22.595,-2.2066532681175577
2025-03-27 13:38:22.596,-0.9038331573585701
2025-03-27 13:38:22.596,0.5579507706324163
2025-03-27 13:38:22.596,0.9870155308477703
2025-03-27 13:38:22.596,0.6004582737542741
2025-03-27 13:38:22.605,0.32006002282958224
2025-03-27 13:38:22.605,0.34446637532699265
2025-03-27 13:38:22.606,0.030111360204338303
2025-03-27 13:38:22.606,-0.8011374683790089
2025-03-27 13:38:22.606,-1.2178153995136007
2025-03-27 13:38:22.615,-0.38895858528247873
2025-03-27 13:38:22.615,1.0449295440763744
2025-03-27 13:38:22.615,1.549441946264677
2025-03-27 13:38:22.615,0.5135773107237882
2025-03-27 13:38:22.616,-1.0802553056078639
2025-03-27 13:38:22.625,-1.7300867363054508
2025-03-27 13:38:22.626,-0.7797634420590049
2025-03-27 13:38:22.626,1.0284028870885327
2025-03-27 13:38:22.626,1.993333061290137
2025-03-27 13:38:22.626,0.9415749132069786
2025-03-27 13:38:22.635,-1.1842571099952344
2025-03-27 13:38:22.635,-1.9039934900414504
2025-03-27 13:38:22.635,-0.2418691287919217
2025-03-27 13:38:22.636,1.5587022118916052
2025-03-27 13:38:22.636,0.792414503365489
2025-03-27 13:38:22.645,-1.6523667954260057
2025-03-27 13:38:22.645,-1.9756009098772358
2025-03-27 13:38:22.645,1.2485892944525698
2025-03-27 13:38:22.646,4.32719657625713
2025-03-27 13:38:22.646,2.6509432895766976
2025-03-27 13:38:22.655,-3.0957847581451508
2025-03-27 13:38:22.655,-6.840218862870306
2025-03-27 13:38:22.655,-3.840630751129871
2025-03-27 13:38:22.655,3.5688338114903138
2025-03-27 13:38:22.656,8.052996900528417
2025-03-27 13:38:22.665,5.01998341621456
2025-03-27 13:38:22.665,-2.528626252169233
2025-03-27 13:38:22.665,-7.271227726769323
2025-03-27 13:38:22.665,-5.160478210111989
2025-03-27 13:38:22.665,0.923863594560798
2025-03-27 13:38:22.674,4.890131077158495
2025-03-27 13:38:22.674,3.8085608847497485
2025-03-27 13:38:22.674,0.05557813962196795
2025-03-27 13:38:22.674,-2.205464184703269
2025-03-27 13:38:22.674,-1.528489100755107
2025-03-27 13:38:22.685,0.1304098278770435
2025-03-27 13:38:22.686,0.42629953462921755
2025-03-27 13:38:22.686,-0.6288705080544882
2025-03-27 13:38:22.686,-1.1206421883973343
2025-03-27 13:38:22.686,0.10595841590828574
2025-03-27 13:38:22.694,1.8735606418995154
2025-03-27 13:38:22.694,2.0243918019597777
2025-03-27 13:38:22.694,0.0917610190325933
2025-03-27 13:38:22.694,-1.9797006662605667
2025-03-27 13:38:22.694,-2.0916776995578124
2025-03-27 13:38:22.705,-0.4354948877902701
2025-03-27 13:38:22.705,1.0547664866549427
2025-03-27 13:38:22.705,1.323224038951681
2025-03-27 13:38:22.706,1.0483357972433078
2025-03-27 13:38:22.706,0.770201741863472
2025-03-27 13:38:22.714,-0.2499292503883533
2025-03-27 13:38:22.714,-2.2294442550063582
2025-03-27 13:38:22.714,-3.1605412361255127
2025-03-27 13:38:22.714,-0.8423063141825717
2025-03-27 13:38:22.724,3.4569854208137674
2025-03-27 13:38:22.724,5.26285633455658
2025-03-27 13:38:22.724,1.8865722990706588
2025-03-27 13:38:22.724,-3.822828446366031
2025-03-27 13:38:22.724,-6.096145909664896
2025-03-27 13:38:22.734,-2.555880231713192
2025-03-27 13:38:22.734,3.1424598804001915
2025-03-27 13:38:22.734,5.357625190840883
2025-03-27 13:38:22.734,2.4333124272561006
2025-03-27 13:38:22.734,-2.0359068662580917
2025-03-27 13:38:22.744,-3.5597287141260505
2025-03-27 13:38:22.744,-1.451730928324644
2025-03-27 13:38:22.744,1.1834665994052649
2025-03-27 13:38:22.744,1.5001986377496825
2025-03-27 13:38:22.744,-0.02684220200540352
2025-03-27 13:38:22.754,-0.8323145836226598
2025-03-27 13:38:22.754,0.19929537553143922
2025-03-27 13:38:22.754,1.4030704540368353
2025-03-27 13:38:22.754,0.7535251351142005
2025-03-27 13:38:22.754,-1.2158411526648474
2025-03-27 13:38:22.763,-1.9568011387138873
2025-03-27 13:38:22.764,-0.3819358407703069
2025-03-27 13:38:22.764,1.4295694965730361
2025-03-27 13:38:22.764,0.9978150474220285
2025-03-27 13:38:22.764,-0.8536780709763947
2025-03-27 13:38:22.773,-0.8801173395931227
2025-03-27 13:38:22.773,1.6596224250284808
2025-03-27 13:38:22.773,3.0202851610944705
2025-03-27 13:38:22.774,-0.18019160084972047
2025-03-27 13:38:22.774,-5.233263398638917
2025-03-27 13:38:22.787,-5.436340762474112
2025-03-27 13:38:22.787,1.2487288424756098
2025-03-27 13:38:22.787,8.17762666030855
2025-03-27 13:38:22.787,7.096862055227968
2025-03-27 13:38:22.787,-1.71422303263226
2025-03-27 13:38:22.793,-9.093747464662306
2025-03-27 13:38:22.793,-7.325650380101409
2025-03-27 13:38:22.794,1.2993719809289828
2025-03-27 13:38:22.794,7.630593844065225
2025-03-27 13:38:22.794,6.014029620613338
2025-03-27 13:38:22.803,-0.4361972327521876
2025-03-27 13:38:22.804,-4.629156267445999
2025-03-27 13:38:22.804,-3.485006357078121
2025-03-27 13:38:22.804,-0.004497871602089587
2025-03-27 13:38:22.804,1.5230321910086353
2025-03-27 13:38:22.813,0.4586842138290651
2025-03-27 13:38:22.814,-0.5587823958035096
2025-03-27 13:38:22.814,0.3416386317544013
2025-03-27 13:38:22.814,1.985394912060529
2025-03-27 13:38:22.814,1.9409377457522736
2025-03-27 13:38:22.823,-0.3701214871174333
2025-03-27 13:38:22.823,-2.9216100465036674
2025-03-27 13:38:22.823,-3.2192450527821803
2025-03-27 13:38:22.824,-0.8337160643825205
2025-03-27 13:38:22.824,2.2127429505383076
2025-03-27 13:38:22.832,3.4055909661593367
2025-03-27 13:38:22.832,1.9869218082576865
2025-03-27 13:38:22.832,-0.6224350685415571
2025-03-27 13:38:22.832,-2.3422923758066774
2025-03-27 13:38:22.832,-2.1895057539269334
2025-03-27 13:38:22.843,-0.7247979428398585
2025-03-27 13:38:22.843,0.7988822620638177
2025-03-27 13:38:22.843,1.4719280096390024
2025-03-27 13:38:22.844,1.116387088164118
2025-03-27 13:38:22.844,0.15173296139501277
2025-03-27 13:38:22.852,-0.6423148403286922
2025-03-27 13:38:22.852,-0.574723925500326
2025-03-27 13:38:22.852,0.20531346426086405
2025-03-27 13:38:22.852,0.5591580249008105
2025-03-27 13:38:22.862,-0.34550591573590095
2025-03-27 13:38:22.862,-1.5936171183442895
2025-03-27 13:38:22.862,-1.2996112954124306
2025-03-27 13:38:22.862,0.8302743323206833
2025-03-27 13:38:22.862,2.6840712300023353
2025-03-27 13:38:22.871,2.21883868466916
2025-03-27 13:38:22.871,-0.07862547096760217
2025-03-27 13:38:22.871,-2.1333852255652435
2025-03-27 13:38:22.872,-2.8271420504132014
2025-03-27 13:38:22.872,-2.247247499020357
2025-03-27 13:38:22.882,-0.2185861223553963
2025-03-27 13:38:22.882,3.164415517919878
2025-03-27 13:38:22.882,5.476853896618711
2025-03-27 13:38:22.882,3.1862058117785246
2025-03-27 13:38:22.882,-3.361004964677757
2025-03-27 13:38:22.891,-8.090665104137807
2025-03-27 13:38:22.891,-5.15801970786935
2025-03-27 13:38:22.892,3.447685979652964
2025-03-27 13:38:22.892,8.891814660539712
2025-03-27 13:38:22.892,5.2479205328732315
2025-03-27 13:38:22.901,-3.4695572365675287
2025-03-27 13:38:22.902,-7.82883782543909
2025-03-27 13:38:22.902,-3.7470092626004554
2025-03-27 13:38:22.902,3.3822719312990825
2025-03-27 13:38:22.902,5.629349301673924
2025-03-27 13:38:22.912,1.5925365457669072
2025-03-27 13:38:22.912,-3.058840143212814
2025-03-27 13:38:22.912,-3.1188384563199003
2025-03-27 13:38:22.912,0.3627232323114375
