timestamp,bandpass_and_notch
2025-03-27 13:42:18.021,-0.33988624494661623
2025-03-27 13:42:18.021,4.048643891281125
2025-03-27 13:42:18.021,4.999427574441506
2025-03-27 13:42:18.021,-4.254736909715164
2025-03-27 13:42:18.030,-19.969031885495163
2025-03-27 13:42:18.031,-20.851166509614718
2025-03-27 13:42:18.031,6.998769161902712
2025-03-27 13:42:18.031,41.31860653539541
2025-03-27 13:42:18.031,39.99628896103802
2025-03-27 13:42:18.039,-6.779062031792278
2025-03-27 13:42:18.039,-55.44791050745783
2025-03-27 13:42:18.039,-53.68471840520355
2025-03-27 13:42:18.039,-0.45993059010708315
2025-03-27 13:42:18.047,51.49815316152932
2025-03-27 13:42:18.047,53.608507494378316
2025-03-27 13:42:18.047,10.86951486942769
2025-03-27 13:42:18.047,-30.743898493037673
2025-03-27 13:42:18.047,-36.74696737358583
2025-03-27 13:42:18.057,-14.068429091385521
2025-03-27 13:42:18.057,7.857488805428919
2025-03-27 13:42:18.057,12.855984540334582
2025-03-27 13:42:18.057,8.249215489775093
2025-03-27 13:42:18.067,6.3449908781622195
2025-03-27 13:42:18.067,7.182418028509038
2025-03-27 13:42:18.067,2.8669350573953483
2025-03-27 13:42:18.067,-7.647810885497016
2025-03-27 13:42:18.067,-15.214139545843974
2025-03-27 13:42:18.076,-11.72156744021719
2025-03-27 13:42:18.076,0.12804121120639173
2025-03-27 13:42:18.076,10.27879516449367
2025-03-27 13:42:18.076,11.950356401575574
2025-03-27 13:42:18.077,6.506698568409765
2025-03-27 13:42:18.085,-0.6072944091987535
2025-03-27 13:42:18.085,-5.5356125291597476
2025-03-27 13:42:18.085,-7.217321380137683
2025-03-27 13:42:18.085,-5.690345261864738
2025-03-27 13:42:18.095,-1.5707032135738608
2025-03-27 13:42:18.095,3.157006696792051
2025-03-27 13:42:18.095,5.687868650437751
2025-03-27 13:42:18.095,4.62441345242576
2025-03-27 13:42:18.095,1.2060653147521818
2025-03-27 13:42:18.095,-2.045713013518925
2025-03-27 13:42:18.105,-3.4997646150834454
2025-03-27 13:42:18.105,-2.996371075219284
2025-03-27 13:42:18.105,-1.0274882363592954
2025-03-27 13:42:18.105,1.6204313170138025
2025-03-27 13:42:18.115,3.4587882350340107
2025-03-27 13:42:18.115,2.7674548471374534
2025-03-27 13:42:18.115,-0.5454988124180643
2025-03-27 13:42:18.115,-3.9367655380137814
2025-03-27 13:42:18.115,-4.168101083834235
2025-03-27 13:42:18.125,-0.6313410872878336
2025-03-27 13:42:18.125,3.7523386277223074
2025-03-27 13:42:18.125,5.242697322261444
2025-03-27 13:42:18.125,2.642198682360865
2025-03-27 13:42:18.125,-1.9545990140947593
2025-03-27 13:42:18.135,-5.089988932341275
2025-03-27 13:42:18.135,-4.492111063124306
2025-03-27 13:42:18.135,-0.6503520920477581
2025-03-27 13:42:18.135,3.404800041691026
2025-03-27 13:42:18.135,4.424267403318525
2025-03-27 13:42:18.145,1.8973611864850506
2025-03-27 13:42:18.145,-1.4240810920324969
2025-03-27 13:42:18.145,-2.471895035557186
2025-03-27 13:42:18.145,-1.0581166816689815
2025-03-27 13:42:18.145,0.46884016689458
2025-03-27 13:42:18.155,0.40734108391387225
2025-03-27 13:42:18.155,-0.47701590823021767
2025-03-27 13:42:18.155,-0.5009726864627485
2025-03-27 13:42:18.155,0.521649667765004
2025-03-27 13:42:18.156,1.1992709534004216
2025-03-27 13:42:18.165,0.5600168317020465
2025-03-27 13:42:18.165,-0.6905329846403419
2025-03-27 13:42:18.165,-1.100384061629086
2025-03-27 13:42:18.165,-0.18576325376002914
2025-03-27 13:42:18.165,1.0855185620001757
2025-03-27 13:42:18.174,1.3300494839997414
2025-03-27 13:42:18.174,0.10257919317717092
2025-03-27 13:42:18.175,-1.6304547883033722
2025-03-27 13:42:18.175,-2.2812009015186705
2025-03-27 13:42:18.175,-1.0778723684145723
2025-03-27 13:42:18.184,1.1799828373850185
2025-03-27 13:42:18.184,2.8397481472397885
2025-03-27 13:42:18.184,2.765539397567847
2025-03-27 13:42:18.185,0.9355927573025414
2025-03-27 13:42:18.185,-1.83357158519879
2025-03-27 13:42:18.194,-4.098597463022239
2025-03-27 13:42:18.194,-4.011199399624952
2025-03-27 13:42:18.194,-0.6157750045277204
2025-03-27 13:42:18.195,4.3120371087468055
2025-03-27 13:42:18.195,6.591184183622443
2025-03-27 13:42:18.203,3.3144010114590325
2025-03-27 13:42:18.203,-3.4475072428535833
2025-03-27 13:42:18.203,-7.675646395427212
2025-03-27 13:42:18.203,-5.13814358540659
2025-03-27 13:42:18.203,2.029399231187317
2025-03-27 13:42:18.213,7.1740141437478595
2025-03-27 13:42:18.213,5.725806228271191
2025-03-27 13:42:18.213,-0.4561167484455325
2025-03-27 13:42:18.213,-5.417477294982335
2025-03-27 13:42:18.223,-5.183107622971856
2025-03-27 13:42:18.223,-1.0402025815480587
2025-03-27 13:42:18.223,2.7431305764609126
2025-03-27 13:42:18.223,3.470018385667848
2025-03-27 13:42:18.223,1.9127166730970335
2025-03-27 13:42:18.233,0.3036482227312126
2025-03-27 13:42:18.233,-0.5235342795481712
2025-03-27 13:42:18.233,-1.3955491727690028
2025-03-27 13:42:18.233,-2.626782072969852
2025-03-27 13:42:18.233,-2.7958397215808035
2025-03-27 13:42:18.243,-0.5227092581220988
2025-03-27 13:42:18.243,3.0400960839812714
2025-03-27 13:42:18.243,4.694145885280584
2025-03-27 13:42:18.243,2.582288215778925
2025-03-27 13:42:18.243,-1.553227194691051
2025-03-27 13:42:18.252,-4.067315010146253
2025-03-27 13:42:18.253,-3.138904522977965
2025-03-27 13:42:18.253,-0.3128898361051229
2025-03-27 13:42:18.253,1.6263129115327295
2025-03-27 13:42:18.253,1.680882000432434
2025-03-27 13:42:18.263,1.0409742341016186
2025-03-27 13:42:18.263,0.8407722524397561
2025-03-27 13:42:18.263,0.589560202856761
2025-03-27 13:42:18.263,-0.5947005858137725
2025-03-27 13:42:18.263,-2.0009927530102574
2025-03-27 13:42:18.273,-1.8670039372653764
2025-03-27 13:42:18.273,0.05485172360988111
2025-03-27 13:42:18.273,1.7492377405867054
2025-03-27 13:42:18.273,1.451323267458224
2025-03-27 13:42:18.273,-0.0439858297625927
2025-03-27 13:42:18.282,-0.6815187663716
2025-03-27 13:42:18.283,-0.142958745770006
2025-03-27 13:42:18.283,0.002153004685215329
2025-03-27 13:42:18.283,-0.808751218956674
2025-03-27 13:42:18.283,-0.9007271229789587
2025-03-27 13:42:18.292,0.8740646210900934
2025-03-27 13:42:18.293,2.556773353987911
2025-03-27 13:42:18.293,1.2772862606811861
2025-03-27 13:42:18.293,-2.3284642550786447
2025-03-27 13:42:18.293,-4.081994479604459
2025-03-27 13:42:18.305,-1.4003692991277625
2025-03-27 13:42:18.305,3.133284864466954
2025-03-27 13:42:18.305,4.662098587254883
2025-03-27 13:42:18.305,1.690617747853151
2025-03-27 13:42:18.305,-2.5313772868802746
2025-03-27 13:42:18.316,-3.976357500590611
2025-03-27 13:42:18.316,-1.9178745354511908
2025-03-27 13:42:18.316,1.1337210485420692
2025-03-27 13:42:18.316,2.480775682994786
2025-03-27 13:42:18.316,1.5658993324530377
2025-03-27 13:42:18.321,-0.1781234597925701
2025-03-27 13:42:18.321,-1.0423036819631213
2025-03-27 13:42:18.321,-0.5918132605249706
2025-03-27 13:42:18.321,0.17111970423839484
2025-03-27 13:42:18.321,0.12836036000416756
2025-03-27 13:42:18.331,-0.5406555974581068
2025-03-27 13:42:18.331,-0.606466837185918
2025-03-27 13:42:18.331,0.4558988120494135
2025-03-27 13:42:18.331,1.4825360483895431
2025-03-27 13:42:18.331,0.9268971226619921
2025-03-27 13:42:18.341,-1.019888087307058
2025-03-27 13:42:18.341,-2.2713173482416966
2025-03-27 13:42:18.341,-1.147992142482765
2025-03-27 13:42:18.341,1.4827061878245373
2025-03-27 13:42:18.341,2.9015719357941463
2025-03-27 13:42:18.351,1.473402197394734
2025-03-27 13:42:18.351,-1.4880476407940542
2025-03-27 13:42:18.351,-3.071874612744296
2025-03-27 13:42:18.351,-1.8171730896524732
2025-03-27 13:42:18.361,0.8865180095282258
2025-03-27 13:42:18.361,2.4372407869697907
2025-03-27 13:42:18.361,1.7604357594505864
2025-03-27 13:42:18.361,0.10511117078514112
2025-03-27 13:42:18.361,-0.8418111788446602
2025-03-27 13:42:18.371,-0.9711752873971836
2025-03-27 13:42:18.371,-1.1942944464912955
2025-03-27 13:42:18.371,-1.3523525252959387
2025-03-27 13:42:18.371,-0.1830640885957915
2025-03-27 13:42:18.371,2.151551884786785
2025-03-27 13:42:18.381,3.090356273167868
2025-03-27 13:42:18.381,0.7698046885372518
2025-03-27 13:42:18.381,-2.746755614056798
2025-03-27 13:42:18.381,-3.3680410350656307
2025-03-27 13:42:18.381,-0.24425322800170718
2025-03-27 13:42:18.390,2.799577078441486
2025-03-27 13:42:18.391,2.1000476116308158
2025-03-27 13:42:18.391,-1.069454082732742
2025-03-27 13:42:18.391,-2.303684734645396
2025-03-27 13:42:18.391,-0.02829928400569348
2025-03-27 13:42:18.400,2.454382445357859
2025-03-27 13:42:18.401,1.5161904366015153
2025-03-27 13:42:18.401,-1.8641760279649864
2025-03-27 13:42:18.401,-3.3467042303285193
2025-03-27 13:42:18.401,-0.8639569028890454
2025-03-27 13:42:18.410,2.785483623607105
2025-03-27 13:42:18.410,3.495094421909927
2025-03-27 13:42:18.410,0.6909287450253694
2025-03-27 13:42:18.411,-2.4593703132218807
2025-03-27 13:42:18.411,-2.9804784433658003
2025-03-27 13:42:18.420,-0.9713642534950166
2025-03-27 13:42:18.420,1.3217561063057017
2025-03-27 13:42:18.420,2.089492080473159
2025-03-27 13:42:18.421,1.1893951986035556
2025-03-27 13:42:18.421,-0.32343291553273024
2025-03-27 13:42:18.429,-1.1697169613674088
2025-03-27 13:42:18.429,-0.7551528053837243
2025-03-27 13:42:18.429,0.2744468421841631
2025-03-27 13:42:18.429,0.5861473441237156
2025-03-27 13:42:18.429,-0.28053921381766667
2025-03-27 13:42:18.440,-1.161061584013161
2025-03-27 13:42:18.440,-0.6114283846925854
2025-03-27 13:42:18.440,1.1433616706585414
2025-03-27 13:42:18.440,2.224658473375796
2025-03-27 13:42:18.440,1.2100130410050125
2025-03-27 13:42:18.449,-1.17078563936366
2025-03-27 13:42:18.449,-2.7015878713577597
2025-03-27 13:42:18.449,-1.9129927674646605
2025-03-27 13:42:18.449,0.4893365029215837
2025-03-27 13:42:18.449,2.3547688615976528
2025-03-27 13:42:18.459,2.1265023135277397
2025-03-27 13:42:18.459,0.2008716298042375
2025-03-27 13:42:18.459,-1.5602141548776864
2025-03-27 13:42:18.459,-1.6026510037924115
2025-03-27 13:42:18.469,-0.1404124068759996
2025-03-27 13:42:18.469,1.046488370840268
2025-03-27 13:42:18.469,0.5061664764695607
2025-03-27 13:42:18.469,-1.056206730468237
2025-03-27 13:42:18.469,-1.3317042670131158
2025-03-27 13:42:18.478,0.6973144831364906
2025-03-27 13:42:18.479,2.926760427653202
2025-03-27 13:42:18.479,2.2750504383125247
2025-03-27 13:42:18.479,-1.3145364606548848
2025-03-27 13:42:18.479,-4.222555824515801
2025-03-27 13:42:18.491,-3.1839874482982657
2025-03-27 13:42:18.491,0.8513776054704806
2025-03-27 13:42:18.491,3.84994581191738
2025-03-27 13:42:18.491,3.274716321554389
2025-03-27 13:42:18.491,0.43922142927904406
2025-03-27 13:42:18.499,-1.7404284221122153
2025-03-27 13:42:18.499,-2.1220805508098946
2025-03-27 13:42:18.499,-1.6491444619291433
2025-03-27 13:42:18.499,-1.0789814899477104
2025-03-27 13:42:18.499,0.07562492702917768
2025-03-27 13:42:18.508,1.969648407231787
2025-03-27 13:42:18.508,3.0714257143899775
2025-03-27 13:42:18.509,1.6950777241565684
2025-03-27 13:42:18.509,-1.3943723817685396
2025-03-27 13:42:18.509,-3.237554578832585
2025-03-27 13:42:18.518,-2.028943547728553
2025-03-27 13:42:18.518,0.6818411950017792
2025-03-27 13:42:18.519,1.914302681985867
2025-03-27 13:42:18.519,0.838006775109696
2025-03-27 13:42:18.519,-0.5778168362676892
2025-03-27 13:42:18.527,-0.40545483297461105
2025-03-27 13:42:18.527,0.835992667506928
2025-03-27 13:42:18.527,1.1544391273690682
2025-03-27 13:42:18.527,-0.20201996162660352
2025-03-27 13:42:18.537,-1.8265210856028318
2025-03-27 13:42:18.537,-1.886575298472685
2025-03-27 13:42:18.537,-0.18648800689970002
2025-03-27 13:42:18.537,1.7161844872428962
2025-03-27 13:42:18.537,2.165517572640925
2025-03-27 13:42:18.537,0.926970166899959
2025-03-27 13:42:18.547,-0.8270593879985364
2025-03-27 13:42:18.547,-1.745448693389975
2025-03-27 13:42:18.547,-1.3881470165453582
2025-03-27 13:42:18.547,-0.2782229711852394
2025-03-27 13:42:18.557,0.8101335150462718
2025-03-27 13:42:18.557,1.400009119428917
2025-03-27 13:42:18.557,1.2386984492609967
2025-03-27 13:42:18.557,0.18264476552446496
2025-03-27 13:42:18.557,-1.316982360381485
2025-03-27 13:42:18.567,-1.9100518153290997
2025-03-27 13:42:18.567,-0.5671087116116407
2025-03-27 13:42:18.567,1.6315014197085498
2025-03-27 13:42:18.567,2.095882493284684
2025-03-27 13:42:18.567,-0.04568463872133875
2025-03-27 13:42:18.577,-2.314734469889487
2025-03-27 13:42:18.580,-1.7627050311998376
2025-03-27 13:42:18.580,1.1082948729577213
2025-03-27 13:42:18.580,2.8252009440542496
2025-03-27 13:42:18.580,1.3180999413202819
2025-03-27 13:42:18.587,-1.6186801722252628
2025-03-27 13:42:18.587,-2.734040094379023
2025-03-27 13:42:18.587,-1.1140416014438894
2025-03-27 13:42:18.587,1.2416274830176988
2025-03-27 13:42:18.587,2.034124167869746
2025-03-27 13:42:18.597,0.9556194102301933
2025-03-27 13:42:18.597,-0.5314855273225856
2025-03-27 13:42:18.597,-0.9990301886564146
2025-03-27 13:42:18.597,-0.38842382305514533
2025-03-27 13:42:18.597,0.20989679539420983
2025-03-27 13:42:18.607,-0.05227597011494547
2025-03-27 13:42:18.607,-0.6941560095395247
2025-03-27 13:42:18.607,-0.47523733974297905
2025-03-27 13:42:18.607,0.861154522749648
2025-03-27 13:42:18.607,1.8884823689415704
2025-03-27 13:42:18.616,1.050131676504171
2025-03-27 13:42:18.617,-1.2599014360712835
2025-03-27 13:42:18.617,-2.7533172991334744
2025-03-27 13:42:18.617,-1.6269646100026796
2025-03-27 13:42:18.617,1.3187035349847283
2025-03-27 13:42:18.625,3.2177723255198316
2025-03-27 13:42:18.625,1.9869055957548574
2025-03-27 13:42:18.625,-1.335802804346817
2025-03-27 13:42:18.625,-3.388440179149255
2025-03-27 13:42:18.625,-1.9664817124931744
2025-03-27 13:42:18.635,1.4564651990835995
2025-03-27 13:42:18.635,3.2215832128247444
2025-03-27 13:42:18.635,1.5467704855693887
2025-03-27 13:42:18.635,-1.5287889449707655
2025-03-27 13:42:18.635,-2.613814685025036
2025-03-27 13:42:18.645,-0.8268554276238058
2025-03-27 13:42:18.645,1.498071188886824
2025-03-27 13:42:18.645,1.7574491744627783
2025-03-27 13:42:18.645,-0.05664991074555667
2025-03-27 13:42:18.655,-1.6577231849305079
2025-03-27 13:42:18.655,-1.1369509474305128
2025-03-27 13:42:18.655,0.9871272554957518
2025-03-27 13:42:18.655,2.2751165276429126
2025-03-27 13:42:18.655,0.9501536770906797
2025-03-27 13:42:18.665,-1.896157716661876
2025-03-27 13:42:18.665,-3.0829586869190555
2025-03-27 13:42:18.665,-0.8756354433007875
2025-03-27 13:42:18.665,2.618224655303224
2025-03-27 13:42:18.665,3.5183923622490623
2025-03-27 13:42:18.675,0.6693058414429487
2025-03-27 13:42:18.675,-2.892650072598382
2025-03-27 13:42:18.675,-3.397041987177546
2025-03-27 13:42:18.675,-0.5205213710076206
2025-03-27 13:42:18.675,2.581595445486393
2025-03-27 13:42:18.685,2.972097847101803
2025-03-27 13:42:18.685,0.7552301260175337
2025-03-27 13:42:18.685,-1.7480181109509123
2025-03-27 13:42:18.685,-2.609353154286083
2025-03-27 13:42:18.685,-1.534180301239227
2025-03-27 13:42:18.695,0.6416052581570192
2025-03-27 13:42:18.695,2.5547309158015667
2025-03-27 13:42:18.695,2.673813268618005
2025-03-27 13:42:18.695,0.4044644873398441
2025-03-27 13:42:18.695,-2.659192201755658
2025-03-27 13:42:18.704,-3.5828916951744874
2025-03-27 13:42:18.705,-1.1339222550723935
2025-03-27 13:42:18.705,2.439109766530255
2025-03-27 13:42:18.705,3.58685224163209
2025-03-27 13:42:18.705,1.3647828675488973
2025-03-27 13:42:18.715,-1.6498629909358251
2025-03-27 13:42:18.715,-2.4843742572637697
2025-03-27 13:42:18.715,-0.9830600150623604
2025-03-27 13:42:18.715,0.6238308439909734
2025-03-27 13:42:18.715,0.7244464010689701
2025-03-27 13:42:18.725,-0.024719447595122637
2025-03-27 13:42:18.725,-0.032552987403816555
2025-03-27 13:42:18.725,1.0173327310598443
2025-03-27 13:42:18.725,1.7169892132226345
2025-03-27 13:42:18.725,0.5276065678817349
2025-03-27 13:42:18.735,-2.256427718788021
2025-03-27 13:42:18.735,-4.096960881794298
2025-03-27 13:42:18.735,-2.3126679232767673
2025-03-27 13:42:18.735,2.63451343801948
2025-03-27 13:42:18.735,6.367870779968457
2025-03-27 13:42:18.743,4.5814170909198735
2025-03-27 13:42:18.743,-1.7983326245848548
2025-03-27 13:42:18.743,-6.805229968534136
2025-03-27 13:42:18.743,-5.723763691128837
2025-03-27 13:42:18.743,-0.15150888175720978
2025-03-27 13:42:18.754,4.345043519931337
2025-03-27 13:42:18.754,4.619923084764735
2025-03-27 13:42:18.755,2.243789319724984
2025-03-27 13:42:18.755,-0.052910479603084384
2025-03-27 13:42:18.755,-1.7259875295860485
2025-03-27 13:42:18.763,-3.2439796970170174
2025-03-27 13:42:18.763,-3.6166882977128503
2025-03-27 13:42:18.763,-1.341327515241062
2025-03-27 13:42:18.763,2.625357092918363
2025-03-27 13:42:18.763,4.879146966977089
2025-03-27 13:42:18.773,3.21824106771383
2025-03-27 13:42:18.773,-0.8052316149151273
2025-03-27 13:42:18.773,-3.673541280189315
2025-03-27 13:42:18.773,-3.531460588089946
2025-03-27 13:42:18.783,-1.3166644181627536
2025-03-27 13:42:18.783,1.1053957766470206
2025-03-27 13:42:18.783,2.696830879014938
2025-03-27 13:42:18.783,2.998914590946377
2025-03-27 13:42:18.784,1.4678528385608238
2025-03-27 13:42:18.793,-1.638377512967686
2025-03-27 13:42:18.793,-4.078686780855039
2025-03-27 13:42:18.793,-3.0414123150758976
2025-03-27 13:42:18.793,1.3249356507562235
2025-03-27 13:42:18.793,4.849391263466176
2025-03-27 13:42:18.806,3.417995075733969
2025-03-27 13:42:18.806,-1.9218094608792642
2025-03-27 13:42:18.806,-5.454415858671096
2025-03-27 13:42:18.806,-3.1386385812531867
2025-03-27 13:42:18.806,2.5781109050469095
2025-03-27 13:42:18.813,5.48372482152246
2025-03-27 13:42:18.813,2.712381870154062
2025-03-27 13:42:18.813,-2.3019018484419584
2025-03-27 13:42:18.813,-4.294561708179245
2025-03-27 13:42:18.813,-2.156685861412623
2025-03-27 13:42:18.823,0.8106143228199267
2025-03-27 13:42:18.823,1.7636034463248669
2025-03-27 13:42:18.823,1.347923279067981
2025-03-27 13:42:18.823,1.3683678204904965
2025-03-27 13:42:18.823,1.3910638884531779
2025-03-27 13:42:18.833,-0.3724227912085762
2025-03-27 13:42:18.833,-3.3532696930308896
2025-03-27 13:42:18.833,-4.0875546015832604
2025-03-27 13:42:18.833,-0.510813926796882
2025-03-27 13:42:18.833,4.453386397343288
2025-03-27 13:42:18.843,5.457171584091417
2025-03-27 13:42:18.843,1.0411514302905434
2025-03-27 13:42:18.843,-4.210673840632054
2025-03-27 13:42:18.843,-4.91029009823619
2025-03-27 13:42:18.843,-1.1478067997509462
2025-03-27 13:42:18.853,2.261205191431207
2025-03-27 13:42:18.853,2.308569009180739
2025-03-27 13:42:18.853,0.9689112456368999
2025-03-27 13:42:18.853,1.0093696212462329
2025-03-27 13:42:18.853,1.3794222639069378
2025-03-27 13:42:18.863,-0.5914409132456966
2025-03-27 13:42:18.863,-3.894359354017465
2025-03-27 13:42:18.863,-4.2362461488630085
2025-03-27 13:42:18.863,-0.08546353945145863
2025-03-27 13:42:18.863,4.57577068163685
2025-03-27 13:42:18.872,4.942297274800286
2025-03-27 13:42:18.873,0.9982250934504979
2025-03-27 13:42:18.873,-3.0624247015168224
2025-03-27 13:42:18.873,-3.8260002332640726
2025-03-27 13:42:18.873,-1.565841487921348
2025-03-27 13:42:18.882,1.1441505129986214
2025-03-27 13:42:18.882,2.1843328935760953
2025-03-27 13:42:18.883,1.2495874828524771
2025-03-27 13:42:18.883,-0.393978020856516
2025-03-27 13:42:18.883,-1.0854705038965349
2025-03-27 13:42:18.891,-0.26956137640717287
2025-03-27 13:42:18.891,0.8914186227321
2025-03-27 13:42:18.891,0.7912274662353501
2025-03-27 13:42:18.891,-0.6446813836272748
2025-03-27 13:42:18.901,-1.7750337145083794
2025-03-27 13:42:18.901,-1.1723809751111087
2025-03-27 13:42:18.901,0.7892979030267853
2025-03-27 13:42:18.901,2.4009859437655754
2025-03-27 13:42:18.901,2.169708107410567
2025-03-27 13:42:18.901,-0.034093333321322736
2025-03-27 13:42:18.911,-2.6357494616726327
2025-03-27 13:42:18.911,-3.2110211277057568
2025-03-27 13:42:18.911,-0.7358233963149534
2025-03-27 13:42:18.911,2.6860580322417658
2025-03-27 13:42:18.921,3.3924506782983426
2025-03-27 13:42:18.921,0.28337348532785056
2025-03-27 13:42:18.921,-3.2822484034797736
2025-03-27 13:42:18.921,-2.891356514644554
2025-03-27 13:42:18.921,1.5534725833103895
2025-03-27 13:42:18.931,5.012183259477879
2025-03-27 13:42:18.931,2.77545005530105
2025-03-27 13:42:18.931,-3.6291274468430843
2025-03-27 13:42:18.931,-7.227615937244589
2025-03-27 13:42:18.931,-3.1242651830884687
2025-03-27 13:42:18.941,5.190564446266053
2025-03-27 13:42:18.941,8.60628362969283
2025-03-27 13:42:18.941,2.572916455083573
2025-03-27 13:42:18.941,-6.674405698101742
2025-03-27 13:42:18.941,-8.525761373597723
2025-03-27 13:42:18.951,-0.6281816785632446
2025-03-27 13:42:18.951,7.947765862309542
2025-03-27 13:42:18.951,7.60080060364386
2025-03-27 13:42:18.951,-0.629899108860257
2025-03-27 13:42:18.951,-7.4819745419475705
2025-03-27 13:42:18.961,-6.875752509160413
2025-03-27 13:42:18.961,-1.146592348359869
2025-03-27 13:42:18.961,4.199906504018625
2025-03-27 13:42:18.961,6.45820091926567
2025-03-27 13:42:18.961,5.325064758802617
2025-03-27 13:42:18.969,0.7035274002842482
2025-03-27 13:42:18.969,-5.694217900204932
2025-03-27 13:42:18.969,-8.730570791439929
2025-03-27 13:42:18.969,-4.221456077654638
2025-03-27 13:42:18.969,4.658521700214653
2025-03-27 13:42:18.979,8.959346687186699
2025-03-27 13:42:18.979,4.008592340662882
2025-03-27 13:42:18.979,-4.346756266918656
2025-03-27 13:42:18.979,-6.368818091757907
2025-03-27 13:42:18.989,-0.38062002579230403
2025-03-27 13:42:18.989,5.249474158259651
2025-03-27 13:42:18.989,2.9595163535752333
2025-03-27 13:42:18.989,-4.198150459155868
2025-03-27 13:42:18.989,-6.53494038109836
2025-03-27 13:42:18.999,-0.363585013603248
2025-03-27 13:42:18.999,7.0931699518931755
2025-03-27 13:42:18.999,6.795764117111641
2025-03-27 13:42:18.999,-0.8722914000531172
2025-03-27 13:42:18.999,-6.967918702852152
2025-03-27 13:42:19.009,-5.2157903431459305
2025-03-27 13:42:19.009,1.0476612024321934
2025-03-27 13:42:19.009,4.245615189943329
2025-03-27 13:42:19.009,2.1101360631840897
2025-03-27 13:42:19.009,-0.88859531398965
2025-03-27 13:42:19.019,-0.6615753021073515
2025-03-27 13:42:19.019,1.2575307619680356
2025-03-27 13:42:19.019,0.8761493221126125
2025-03-27 13:42:19.019,-1.992747940624248
2025-03-27 13:42:19.019,-3.2996060192432686
2025-03-27 13:42:19.029,-0.6102957646873595
2025-03-27 13:42:19.029,3.01947712916218
2025-03-27 13:42:19.029,2.85356052130619
2025-03-27 13:42:19.029,-0.8659497977329373
2025-03-27 13:42:19.029,-2.8017150978186156
2025-03-27 13:42:19.038,0.1034265405973345
2025-03-27 13:42:19.038,3.749613138453616
2025-03-27 13:42:19.039,2.1113750595772673
2025-03-27 13:42:19.039,-3.927623627078465
2025-03-27 13:42:19.039,-6.747596832438802
2025-03-27 13:42:19.049,-1.79068841269559
2025-03-27 13:42:19.049,6.0732950414980165
2025-03-27 13:42:19.049,8.199527395781635
2025-03-27 13:42:19.049,2.3194547919104807
2025-03-27 13:42:19.049,-5.393425426797488
2025-03-27 13:42:19.059,-7.629954088458268
2025-03-27 13:42:19.059,-3.1751450643106134
2025-03-27 13:42:19.059,3.0960060943267043
2025-03-27 13:42:19.059,5.684485151869442
2025-03-27 13:42:19.059,3.2974645499764685
2025-03-27 13:42:19.067,-0.8998673811470933
2025-03-27 13:42:19.067,-3.051471390095861
2025-03-27 13:42:19.067,-2.3276908309652615
2025-03-27 13:42:19.067,-0.7307564472415433
2025-03-27 13:42:19.077,0.19834255167525797
2025-03-27 13:42:19.077,0.9898618599872078
2025-03-27 13:42:19.077,2.1294917549836017
2025-03-27 13:42:19.077,2.1599188232825433
2025-03-27 13:42:19.077,-0.26640863217209826
2025-03-27 13:42:19.077,-3.311494975104504
2025-03-27 13:42:19.087,-3.295134537089172
2025-03-27 13:42:19.087,0.4589778491367016
2025-03-27 13:42:19.087,4.008058461132789
2025-03-27 13:42:19.087,3.2359524962323736
2025-03-27 13:42:19.097,-1.1145392692814862
2025-03-27 13:42:19.097,-4.235278696118549
2025-03-27 13:42:19.097,-2.7924642248396934
2025-03-27 13:42:19.097,1.5247179997326046
2025-03-27 13:42:19.098,4.212825178707492
2025-03-27 13:42:19.107,2.8073776303847717
2025-03-27 13:42:19.107,-1.0476167514760353
2025-03-27 13:42:19.107,-3.823143576534971
2025-03-27 13:42:19.107,-3.485365476407068
2025-03-27 13:42:19.107,-0.6403681588408534
2025-03-27 13:42:19.119,2.636193803978
2025-03-27 13:42:19.119,4.243729316917728
2025-03-27 13:42:19.119,2.9322883266104443
2025-03-27 13:42:19.119,-0.7915199115941149
2025-03-27 13:42:19.119,-4.242646707172203
2025-03-27 13:42:19.127,-4.274651147235565
2025-03-27 13:42:19.127,-0.5338279311631262
2025-03-27 13:42:19.127,3.454698692942339
2025-03-27 13:42:19.127,3.6418105217081664
2025-03-27 13:42:19.127,0.09608381495649515
2025-03-27 13:42:19.137,-2.7815160867999515
2025-03-27 13:42:19.137,-1.5166511744681384
2025-03-27 13:42:19.137,1.878957864056943
2025-03-27 13:42:19.137,2.4163923242261336
2025-03-27 13:42:19.137,-0.9268945963842308
2025-03-27 13:42:19.147,-3.4333617736059816
2025-03-27 13:42:19.147,-1.2875287923353733
2025-03-27 13:42:19.147,2.592616400690015
2025-03-27 13:42:19.147,2.595280128362395
2025-03-27 13:42:19.147,-1.107771223931387
2025-03-27 13:42:19.157,-2.560799572137091
2025-03-27 13:42:19.157,0.8487047473077698
2025-03-27 13:42:19.157,3.8204252749864827
2025-03-27 13:42:19.157,0.7306651904217982
2025-03-27 13:42:19.157,-5.348351162567918
2025-03-27 13:42:19.167,-5.875063993454437
2025-03-27 13:42:19.167,1.4708962655784716
2025-03-27 13:42:19.167,8.79354739963272
2025-03-27 13:42:19.167,7.34988430190085
2025-03-27 13:42:19.167,-1.9450539232267792
2025-03-27 13:42:19.175,-9.76906168094515
2025-03-27 13:42:19.175,-8.737917960937693
2025-03-27 13:42:19.175,-0.2780845434773201
2025-03-27 13:42:19.175,8.096624686912223
2025-03-27 13:42:19.175,9.977926054489776
2025-03-27 13:42:19.185,4.385218292535165
2025-03-27 13:42:19.185,-4.539171049599197
2025-03-27 13:42:19.185,-10.386593591094899
2025-03-27 13:42:19.185,-8.469523986710376
2025-03-27 13:42:19.195,0.32876542600127917
2025-03-27 13:42:19.195,9.140746398734581
2025-03-27 13:42:19.195,10.439285423546051
2025-03-27 13:42:19.195,3.215793089469834
2025-03-27 13:42:19.195,-5.77113588646295
2025-03-27 13:42:19.205,-8.848716445506277
2025-03-27 13:42:19.205,-4.9438228756341625
2025-03-27 13:42:19.205,0.7274204614271386
2025-03-27 13:42:19.205,3.606530792477894
2025-03-27 13:42:19.205,4.13510412385155
2025-03-27 13:42:19.215,4.503708735234441
2025-03-27 13:42:19.215,3.6613057783361427
2025-03-27 13:42:19.215,-1.1742808585950628
2025-03-27 13:42:19.215,-8.19645832830977
2025-03-27 13:42:19.215,-10.041180017424866
2025-03-27 13:42:19.223,-2.142663771137646
2025-03-27 13:42:19.223,9.486432903192554
2025-03-27 13:42:19.223,12.859741330266402
2025-03-27 13:42:19.223,3.6390118344975697
2025-03-27 13:42:19.223,-8.779760735585272
2025-03-27 13:42:19.233,-11.454102301031252
2025-03-27 13:42:19.233,-2.616587523604257
2025-03-27 13:42:19.233,7.084519070152786
2025-03-27 13:42:19.233,7.753989204832114
2025-03-27 13:42:19.243,0.8263246239668229
2025-03-27 13:42:19.243,-4.994973067123044
2025-03-27 13:42:19.243,-4.799564840306446
2025-03-27 13:42:19.243,-0.9805343010320713
2025-03-27 13:42:19.243,2.3977412476258557
2025-03-27 13:42:19.253,4.113344960739512
2025-03-27 13:42:19.253,4.014800918806918
2025-03-27 13:42:19.253,0.8818604821780645
2025-03-27 13:42:19.253,-4.843995775348611
2025-03-27 13:42:19.253,-8.234401221219107
2025-03-27 13:42:19.267,-4.046520314505634
2025-03-27 13:42:19.267,5.503847567697391
2025-03-27 13:42:19.267,10.775538723590657
2025-03-27 13:42:19.267,5.376650422563135
2025-03-27 13:42:19.267,-5.2227654190587645
2025-03-27 13:42:19.273,-9.517987951597181
2025-03-27 13:42:19.273,-3.885192623635089
2025-03-27 13:42:19.273,3.5752970612310104
2025-03-27 13:42:19.273,4.30244597388488
2025-03-27 13:42:19.273,0.08094409449198875
2025-03-27 13:42:19.282,-1.0614470757085022
2025-03-27 13:42:19.283,2.8309177377633974
2025-03-27 13:42:19.283,4.829108094120828
2025-03-27 13:42:19.283,-0.5127105915627721
2025-03-27 13:42:19.283,-8.418702687605824
2025-03-27 13:42:19.291,-9.076888851278213
2025-03-27 13:42:19.291,-0.11174763356832418
2025-03-27 13:42:19.291,9.75456013004762
2025-03-27 13:42:19.291,10.43495465180929
2025-03-27 13:42:19.291,1.6663153037846237
2025-03-27 13:42:19.301,-7.272716942516184
2025-03-27 13:42:19.301,-8.07613277170806
2025-03-27 13:42:19.301,-1.6858795354339353
2025-03-27 13:42:19.301,4.159425641880371
2025-03-27 13:42:19.311,3.9425566462012687
2025-03-27 13:42:19.311,-0.4824204335300466
2025-03-27 13:42:19.311,-3.24197390515194
2025-03-27 13:42:19.311,-1.2609219758184285
2025-03-27 13:42:19.311,3.0508370357542165
2025-03-27 13:42:19.321,4.970713441830455
2025-03-27 13:42:19.321,2.1027126209648994
2025-03-27 13:42:19.321,-3.7727077535084717
2025-03-27 13:42:19.321,-8.028047687075253
2025-03-27 13:42:19.321,-6.298791023723652
2025-03-27 13:42:19.331,1.7566403313577308
2025-03-27 13:42:19.331,10.477911170718658
2025-03-27 13:42:19.331,11.585085453996399
2025-03-27 13:42:19.331,2.1839487141770055
2025-03-27 13:42:19.331,-10.499551339980966
2025-03-27 13:42:19.339,-14.760339056940474
2025-03-27 13:42:19.339,-6.155510817419544
2025-03-27 13:42:19.339,7.489091292648022
2025-03-27 13:42:19.339,13.891841900999278
2025-03-27 13:42:19.339,8.350694974055829
2025-03-27 13:42:19.349,-2.837204000072668
2025-03-27 13:42:19.349,-9.784471164047876
2025-03-27 13:42:19.349,-8.120923799974134
2025-03-27 13:42:19.349,-1.1290527805121753
2025-03-27 13:42:19.359,4.9281104440642975
2025-03-27 13:42:19.359,6.2112587803710175
2025-03-27 13:42:19.359,3.0733216324122967
2025-03-27 13:42:19.359,-1.4338868055830654
2025-03-27 13:42:19.359,-3.991017864475398
2025-03-27 13:42:19.369,-3.081259444778313
2025-03-27 13:42:19.369,0.016755380517357615
2025-03-27 13:42:19.369,2.3273471551545226
2025-03-27 13:42:19.369,1.9786047399188829
2025-03-27 13:42:19.369,-0.07213265354827897
2025-03-27 13:42:19.379,-1.4149397181663674
2025-03-27 13:42:19.379,-0.9010019111849347
2025-03-27 13:42:19.379,0.5283811931397502
2025-03-27 13:42:19.379,1.2822248125163922
2025-03-27 13:42:19.379,0.6559350206931019
2025-03-27 13:42:19.389,-0.805572669965171
2025-03-27 13:42:19.389,-1.742627154427411
2025-03-27 13:42:19.389,-0.9961341871184735
2025-03-27 13:42:19.389,1.0199639687752782
2025-03-27 13:42:19.389,2.1913414574696803
2025-03-27 13:42:19.399,0.9764289310180804
2025-03-27 13:42:19.399,-1.3043988602576757
2025-03-27 13:42:19.399,-1.8303495865600934
2025-03-27 13:42:19.399,-0.15576076960383242
2025-03-27 13:42:19.399,1.0591279012335473
2025-03-27 13:42:19.409,0.12044018172509832
2025-03-27 13:42:19.410,-0.9076810623834255
2025-03-27 13:42:19.410,0.4637184939635346
2025-03-27 13:42:19.410,2.587946477814194
2025-03-27 13:42:19.410,1.560205300823534
2025-03-27 13:42:19.417,-2.6257599798563853
2025-03-27 13:42:19.417,-5.041260772980344
2025-03-27 13:42:19.417,-2.0552101147233817
2025-03-27 13:42:19.417,3.6857765088071655
2025-03-27 13:42:19.427,6.161680810167248
2025-03-27 13:42:19.427,2.7837544473807747
2025-03-27 13:42:19.427,-3.0122974076586457
2025-03-27 13:42:19.427,-5.629807235805614
2025-03-27 13:42:19.427,-3.00563748037925
2025-03-27 13:42:19.437,1.6446514344228431
2025-03-27 13:42:19.437,3.610451223971894
2025-03-27 13:42:19.437,1.8100052721520985
2025-03-27 13:42:19.437,-0.639968951649337
2025-03-27 13:42:19.437,-0.8991548241984632
2025-03-27 13:42:19.437,0.1540466302553153
2025-03-27 13:42:19.447,0.05266505952632518
2025-03-27 13:42:19.447,-1.1274252861008534
2025-03-27 13:42:19.447,-1.0601031761819255
2025-03-27 13:42:19.447,0.6832074450777804
2025-03-27 13:42:19.457,1.4757572169965434
2025-03-27 13:42:19.457,-0.22855682250337736
2025-03-27 13:42:19.457,-1.8956403856350237
2025-03-27 13:42:19.457,-0.37449027872800955
2025-03-27 13:42:19.457,2.924566928208012
2025-03-27 13:42:19.467,3.2753919351304908
2025-03-27 13:42:19.467,-0.833489209245047
2025-03-27 13:42:19.467,-5.079450040105473
2025-03-27 13:42:19.467,-4.4029957587953374
2025-03-27 13:42:19.467,0.9189619171200046
2025-03-27 13:42:19.477,5.6255488564591625
2025-03-27 13:42:19.477,5.118840505859441
2025-03-27 13:42:19.477,-0.09435568089111562
2025-03-27 13:42:19.477,-5.087874848258221
2025-03-27 13:42:19.477,-5.183527060824805
2025-03-27 13:42:19.487,-0.4322821148969052
2025-03-27 13:42:19.487,4.33915334805268
2025-03-27 13:42:19.487,4.422819985235625
2025-03-27 13:42:19.487,0.1345795289618641
2025-03-27 13:42:19.487,-3.748402989928634
2025-03-27 13:42:19.497,-3.289752867219868
2025-03-27 13:42:19.497,0.6186183452180982
2025-03-27 13:42:19.497,3.5753484163110922
2025-03-27 13:42:19.497,2.3793823780533967
2025-03-27 13:42:19.497,-1.6626458954039878
2025-03-27 13:42:19.507,-3.9888305939409685
2025-03-27 13:42:19.507,-1.6744968242456237
2025-03-27 13:42:19.507,2.9557236204831976
2025-03-27 13:42:19.507,4.601614636672666
2025-03-27 13:42:19.507,1.193558712859386
2025-03-27 13:42:19.517,-3.563941659043
2025-03-27 13:42:19.517,-4.7324972410998365
2025-03-27 13:42:19.517,-1.736920246541125
2025-03-27 13:42:19.517,2.0568789123622016
2025-03-27 13:42:19.517,3.9555181354892373
2025-03-27 13:42:19.527,3.7868762878703155
2025-03-27 13:42:19.527,1.82383832443095
2025-03-27 13:42:19.527,-2.0529363708367034
2025-03-27 13:42:19.527,-6.144940845559436
2025-03-27 13:42:19.527,-6.468438048898639
2025-03-27 13:42:19.535,-0.9485056160531766
2025-03-27 13:42:19.535,6.677614889198315
2025-03-27 13:42:19.535,9.441908957048055
2025-03-27 13:42:19.535,4.278599523745497
2025-03-27 13:42:19.535,-4.461954203376128
2025-03-27 13:42:19.545,-9.208471161339807
2025-03-27 13:42:19.545,-6.389155794516188
2025-03-27 13:42:19.545,0.7912754651582745
2025-03-27 13:42:19.545,6.10535774719272
2025-03-27 13:42:19.555,6.058120696635138
2025-03-27 13:42:19.555,2.062769190520792
2025-03-27 13:42:19.555,-2.0321240937443203
2025-03-27 13:42:19.555,-3.5987271144099937
2025-03-27 13:42:19.555,-2.62770392374535
2025-03-27 13:42:19.565,-0.7190688855633103
2025-03-27 13:42:19.565,0.5404139648358531
2025-03-27 13:42:19.565,0.7244091293161594
2025-03-27 13:42:19.565,0.7869354615292712
2025-03-27 13:42:19.566,1.7596262912707525
2025-03-27 13:42:19.566,2.800807866417633
2025-03-27 13:42:19.575,1.5233706187777956
2025-03-27 13:42:19.575,-2.599741796508722
2025-03-27 13:42:19.575,-6.077797616045284
2025-03-27 13:42:19.575,-4.602648471098194
2025-03-27 13:42:19.585,1.5253316466196887
2025-03-27 13:42:19.585,6.8857280950949855
2025-03-27 13:42:19.585,6.535022053131643
2025-03-27 13:42:19.585,1.084029804335875
2025-03-27 13:42:19.585,-4.425900860881613
2025-03-27 13:42:19.595,-5.882241862918175
2025-03-27 13:42:19.595,-3.4639350105863915
2025-03-27 13:42:19.595,-0.03525718369559523
2025-03-27 13:42:19.595,2.495121740212827
2025-03-27 13:42:19.595,4.141709466229324
2025-03-27 13:42:19.595,4.5956433375945975
2025-03-27 13:42:19.605,2.125386598644246
2025-03-27 13:42:19.605,-3.4979225309950417
2025-03-27 13:42:19.605,-8.066099348700563
2025-03-27 13:42:19.605,-6.010338648719013
2025-03-27 13:42:19.615,2.481359639067743
2025-03-27 13:42:19.615,9.72414425547585
2025-03-27 13:42:19.615,8.163492372982327
2025-03-27 13:42:19.615,-1.053635698223675
2025-03-27 13:42:19.615,-9.034935847279398
2025-03-27 13:42:19.625,-8.499197992741669
2025-03-27 13:42:19.625,-0.747951346446388
2025-03-27 13:42:19.625,6.588378969464387
2025-03-27 13:42:19.625,7.291063040498072
2025-03-27 13:42:19.625,1.7400787495609626
2025-03-27 13:42:19.635,-4.342567064007545
2025-03-27 13:42:19.635,-5.470149840553325
2025-03-27 13:42:19.635,-1.2047383005549128
2025-03-27 13:42:19.635,3.837475191890066
2025-03-27 13:42:19.635,4.595161435831166
2025-03-27 13:42:19.645,0.36086936103914286
2025-03-27 13:42:19.645,-4.677949698816042
2025-03-27 13:42:19.645,-5.428507231393976
2025-03-27 13:42:19.645,-0.7287708085369374
2025-03-27 13:42:19.645,5.252417553543711
2025-03-27 13:42:19.655,6.70022128391458
2025-03-27 13:42:19.655,2.004542357361244
2025-03-27 13:42:19.655,-4.278379660340452
2025-03-27 13:42:19.655,-6.206079919203966
2025-03-27 13:42:19.655,-2.812489287827583
2025-03-27 13:42:19.665,1.6355232225901108
2025-03-27 13:42:19.665,3.3069185167300224
2025-03-27 13:42:19.665,2.529362302096303
2025-03-27 13:42:19.665,1.438560586504407
2025-03-27 13:42:19.665,0.4180860208223637
2025-03-27 13:42:19.675,-1.3345976597990263
2025-03-27 13:42:19.675,-3.1628149795494727
2025-03-27 13:42:19.675,-3.0722489996475257
2025-03-27 13:42:19.675,-0.39865669961792627
2025-03-27 13:42:19.675,2.963523477917548
2025-03-27 13:42:19.685,4.193575070603382
2025-03-27 13:42:19.685,1.9873833033211845
2025-03-27 13:42:19.685,-2.1530010222384686
2025-03-27 13:42:19.685,-4.594350432157042
2025-03-27 13:42:19.685,-2.543339565268159
2025-03-27 13:42:19.695,2.4967286553198895
2025-03-27 13:42:19.695,5.128358112560519
2025-03-27 13:42:19.695,1.75045305754321
2025-03-27 13:42:19.695,-4.386586026921833
2025-03-27 13:42:19.695,-5.974423208917622
2025-03-27 13:42:19.705,-0.2904864075548453
2025-03-27 13:42:19.705,6.748737125077001
2025-03-27 13:42:19.705,6.8942718532647564
2025-03-27 13:42:19.707,-0.7782547378246563
2025-03-27 13:42:19.707,-8.350498118425442
2025-03-27 13:42:19.715,-7.623957344268861
2025-03-27 13:42:19.715,0.9251302217913209
2025-03-27 13:42:19.715,8.624537643397016
2025-03-27 13:42:19.715,7.7563298997186285
2025-03-27 13:42:19.715,-0.4900802439879997
2025-03-27 13:42:19.725,-7.527938849559016
2025-03-27 13:42:19.725,-6.575887456298661
2025-03-27 13:42:19.725,0.34584260243629017
2025-03-27 13:42:19.725,5.247576704080433
2025-03-27 13:42:19.725,3.5476254708417425
2025-03-27 13:42:19.735,-1.0640288062288947
2025-03-27 13:42:19.735,-2.1255770690313645
2025-03-27 13:42:19.735,0.9026895279679426
2025-03-27 13:42:19.735,2.3226955753632894
2025-03-27 13:42:19.735,-1.2153339621907706
2025-03-27 13:42:19.745,-5.191230253513028
2025-03-27 13:42:19.745,-3.0957394961721385
2025-03-27 13:42:19.745,3.882834712501038
2025-03-27 13:42:19.745,7.2655969879774425
2025-03-27 13:42:19.745,2.3133725642726652
2025-03-27 13:42:19.755,-5.1423364725383935
2025-03-27 13:42:19.755,-6.021928469692352
2025-03-27 13:42:19.755,0.09763922717930784
2025-03-27 13:42:19.755,4.809210179521204
2025-03-27 13:42:19.755,2.4696836523286603
2025-03-27 13:42:19.765,-2.704185795990937
2025-03-27 13:42:19.765,-3.332486066885482
2025-03-27 13:42:19.765,0.9468460751599113
2025-03-27 13:42:19.765,3.8987682297860022
2025-03-27 13:42:19.765,1.7369536763067324
2025-03-27 13:42:19.773,-2.4471025798457164
2025-03-27 13:42:19.773,-3.661271873056945
2025-03-27 13:42:19.773,-1.0833890707780536
2025-03-27 13:42:19.773,2.1870138386590896
2025-03-27 13:42:19.773,3.2079903350656584
2025-03-27 13:42:19.783,1.4735899965845236
2025-03-27 13:42:19.783,-1.4771805608749677
2025-03-27 13:42:19.783,-3.249419619566254
2025-03-27 13:42:19.783,-2.1609380399788582
2025-03-27 13:42:19.793,1.0965578821234
2025-03-27 13:42:19.793,3.580087250287362
2025-03-27 13:42:19.793,2.762417128936036
2025-03-27 13:42:19.793,-0.8016189963343584
2025-03-27 13:42:19.793,-3.8271717865903896
2025-03-27 13:42:19.803,-3.4029076568716135
2025-03-27 13:42:19.803,0.21234124398227777
2025-03-27 13:42:19.803,3.6972061451147855
2025-03-27 13:42:19.803,3.7300941736594826
2025-03-27 13:42:19.803,0.36305699317386286
2025-03-27 13:42:19.813,-2.8799157224430116
2025-03-27 13:42:19.813,-2.853926417440174
2025-03-27 13:42:19.813,-0.33716020298066096
2025-03-27 13:42:19.813,1.2963085920312112
2025-03-27 13:42:19.813,0.6142841302854194
2025-03-27 13:42:19.823,-0.3122609176607789
2025-03-27 13:42:19.823,0.6188852204792128
2025-03-27 13:42:19.823,2.1156414391103513
2025-03-27 13:42:19.823,1.1437285874438619
2025-03-27 13:42:19.823,-2.401152951886316
2025-03-27 13:42:19.833,-4.496359493616774
2025-03-27 13:42:19.833,-1.6444389236506018
2025-03-27 13:42:19.833,3.9998590907994402
2025-03-27 13:42:19.833,6.0691351481492655
2025-03-27 13:42:19.833,1.446655181842883
2025-03-27 13:42:19.845,-5.191384988163173
2025-03-27 13:42:19.845,-6.36704711376783
2025-03-27 13:42:19.845,-0.8497132978245179
2025-03-27 13:42:19.845,4.927782494744
2025-03-27 13:42:19.845,5.086183886671319
2025-03-27 13:42:19.853,1.0014609679932038
2025-03-27 13:42:19.853,-2.108312975597233
2025-03-27 13:42:19.853,-2.5538262276441155
2025-03-27 13:42:19.853,-2.586298329513505
2025-03-27 13:42:19.853,-2.7690023858721955
2025-03-27 13:42:19.863,-0.5020796131575399
2025-03-27 13:42:19.863,4.59708436026711
2025-03-27 13:42:19.863,7.51202989896732
2025-03-27 13:42:19.863,3.30726432386737
2025-03-27 13:42:19.863,-5.424816933056754
2025-03-27 13:42:19.873,-9.952060499691408
2025-03-27 13:42:19.873,-5.099223004305073
2025-03-27 13:42:19.873,4.520235939840326
2025-03-27 13:42:19.873,9.449062081415313
2025-03-27 13:42:19.873,5.502019039189876
2025-03-27 13:42:19.881,-2.5498955489419948
2025-03-27 13:42:19.881,-6.884296678323739
2025-03-27 13:42:19.881,-4.579690193224004
2025-03-27 13:42:19.881,0.6580934862167278
2025-03-27 13:42:19.881,3.4723608070938496
2025-03-27 13:42:19.891,2.413151735305304
2025-03-27 13:42:19.891,0.3823812288212918
2025-03-27 13:42:19.891,0.1582243123659849
2025-03-27 13:42:19.891,0.7223457418907059
2025-03-27 13:42:19.891,-0.7311612979179309
2025-03-27 13:42:19.901,-3.6797891393773265
2025-03-27 13:42:19.901,-3.769445164779545
2025-03-27 13:42:19.901,1.0599126813133606
2025-03-27 13:42:19.901,6.164190485328538
2025-03-27 13:42:19.902,5.13186360186411
2025-03-27 13:42:19.911,-1.5131583338292132
2025-03-27 13:42:19.911,-6.23528559202308
2025-03-27 13:42:19.911,-3.9974404284248104
2025-03-27 13:42:19.911,1.5848633783419708
2025-03-27 13:42:19.921,3.7270577777157277
2025-03-27 13:42:19.921,1.3092547622167645
2025-03-27 13:42:19.921,-1.0709814142472183
2025-03-27 13:42:19.921,-0.4159962223831
2025-03-27 13:42:19.921,1.1481531631424877
2025-03-27 13:42:19.931,0.5439933207025659
2025-03-27 13:42:19.931,-1.6891036452005221
2025-03-27 13:42:19.931,-2.587949579505986
2025-03-27 13:42:19.931,-0.8158074626132467
2025-03-27 13:42:19.931,2.054629725123566
2025-03-27 13:42:19.941,3.4919312749824236
2025-03-27 13:42:19.941,2.1434122358314167
2025-03-27 13:42:19.941,-1.2814348272389913
2025-03-27 13:42:19.941,-4.211027127182344
2025-03-27 13:42:19.941,-3.860686903650365
2025-03-27 13:42:19.951,0.0646018521144891
2025-03-27 13:42:19.951,4.346653022711484
2025-03-27 13:42:19.951,4.959425605753514
2025-03-27 13:42:19.951,1.1572055868312976
2025-03-27 13:42:19.951,-3.618426090843663
2025-03-27 13:42:19.961,-5.099775969858429
2025-03-27 13:42:19.961,-2.174735580758041
2025-03-27 13:42:19.961,2.388296634054447
2025-03-27 13:42:19.961,4.652787460175053
2025-03-27 13:42:19.961,2.884633424241726
2025-03-27 13:42:19.971,-1.1704628483827555
2025-03-27 13:42:19.971,-3.945096134545046
2025-03-27 13:42:19.971,-3.192835919206832
2025-03-27 13:42:19.971,0.1653104993456865
2025-03-27 13:42:19.971,3.1154649167945627
2025-03-27 13:42:19.979,3.253909250375528
2025-03-27 13:42:19.979,0.566119968662792
2025-03-27 13:42:19.979,-2.6961883924898804
2025-03-27 13:42:19.979,-3.5473643216061186
2025-03-27 13:42:19.979,-0.6965078078382478
2025-03-27 13:42:19.989,3.5271061291244274
2025-03-27 13:42:19.989,4.485466258420178
2025-03-27 13:42:19.989,0.09493773253559146
2025-03-27 13:42:19.989,-5.710393872251493
2025-03-27 13:42:19.999,-6.192913926243013
2025-03-27 13:42:19.999,0.510136952990315
2025-03-27 13:42:19.999,8.085385066051249
2025-03-27 13:42:19.999,8.159482667348653
2025-03-27 13:42:19.999,-0.23281062343409148
2025-03-27 13:42:20.009,-8.892909915199137
2025-03-27 13:42:20.009,-9.109828482656432
2025-03-27 13:42:20.009,-0.9940389018790333
2025-03-27 13:42:20.009,7.171467740287127
2025-03-27 13:42:20.009,8.155359570867647
2025-03-27 13:42:20.019,2.4925925422849344
2025-03-27 13:42:20.019,-3.828269324116625
2025-03-27 13:42:20.019,-5.968194528973636
2025-03-27 13:42:20.019,-3.461151894766756
2025-03-27 13:42:20.019,1.0781701211589636
2025-03-27 13:42:20.029,4.236177027705824
2025-03-27 13:42:20.029,3.5925748884541293
2025-03-27 13:42:20.029,-0.40039743065011757
2025-03-27 13:42:20.029,-3.9590369021004923
2025-03-27 13:42:20.029,-3.191007729623306
2025-03-27 13:42:20.039,1.3142673405331537
2025-03-27 13:42:20.039,4.448900672623036
2025-03-27 13:42:20.039,2.4102308311602854
2025-03-27 13:42:20.039,-2.4066698745235486
2025-03-27 13:42:20.039,-4.140075305468136
2025-03-27 13:42:20.049,-0.8483429476716128
2025-03-27 13:42:20.049,2.998159377083999
2025-03-27 13:42:20.049,2.392203764217392
2025-03-27 13:42:20.049,-1.62329988404288
2025-03-27 13:42:20.049,-3.4003867322488848
2025-03-27 13:42:20.059,-0.23365337438581296
2025-03-27 13:42:20.059,4.008094236589452
2025-03-27 13:42:20.059,3.872460668700028
2025-03-27 13:42:20.059,-0.7299924065019247
2025-03-27 13:42:20.059,-4.578993704375933
2025-03-27 13:42:20.069,-3.7577868991100285
2025-03-27 13:42:20.069,-0.03617919380548787
2025-03-27 13:42:20.069,2.2700918173363034
2025-03-27 13:42:20.069,2.021016996732918
2025-03-27 13:42:20.069,1.5964526485265018
2025-03-27 13:42:20.077,2.0870609650572836
2025-03-27 13:42:20.077,1.1747143428225035
2025-03-27 13:42:20.077,-2.6560484725830755
2025-03-27 13:42:20.077,-6.045232371483501
2025-03-27 13:42:20.077,-4.023834127044195
2025-03-27 13:42:20.087,2.8309953107669212
2025-03-27 13:42:20.087,7.54101035598103
2025-03-27 13:42:20.087,4.6360170512276255
2025-03-27 13:42:20.087,-2.822598320572873
2025-03-27 13:42:20.088,-6.4652169068082666
2025-03-27 13:42:20.097,-2.5878780142475
2025-03-27 13:42:20.097,3.4619513244029365
2025-03-27 13:42:20.097,4.103856816362506
2025-03-27 13:42:20.097,-0.9581254748180266
2025-03-27 13:42:20.107,-4.640442659476801
2025-03-27 13:42:20.107,-1.8774853444781554
2025-03-27 13:42:20.107,3.8497904521534405
2025-03-27 13:42:20.107,5.312313846856539
2025-03-27 13:42:20.107,0.8750281047103194
2025-03-27 13:42:20.117,-4.056362976890666
2025-03-27 13:42:20.117,-4.501083419466061
2025-03-27 13:42:20.117,-1.4651865872582186
2025-03-27 13:42:20.117,1.1321457809871487
2025-03-27 13:42:20.117,2.1558960538987364
2025-03-27 13:42:20.127,3.0345264137020185
2025-03-27 13:42:20.127,3.351061748041965
2025-03-27 13:42:20.127,0.631157375824366
2025-03-27 13:42:20.127,-4.5571351234746755
2025-03-27 13:42:20.127,-6.8197645150429835
2025-03-27 13:42:20.137,-2.24462994492879
2025-03-27 13:42:20.137,5.241624897565407
2025-03-27 13:42:20.137,7.460293504447743
2025-03-27 13:42:20.137,1.9558394104048105
2025-03-27 13:42:20.137,-4.854943560402363
2025-03-27 13:42:20.147,-5.641314509255347
2025-03-27 13:42:20.147,-0.6274802014987793
2025-03-27 13:42:20.147,3.84488008626551
2025-03-27 13:42:20.147,3.3945299874715276
2025-03-27 13:42:20.147,-0.30780631487707916
2025-03-27 13:42:20.157,-2.8999568116731558
2025-03-27 13:42:20.157,-2.286991757313526
2025-03-27 13:42:20.157,0.2830147178605701
2025-03-27 13:42:20.157,2.342806639014496
2025-03-27 13:42:20.157,2.3142460656138946
2025-03-27 13:42:20.167,0.3323732402783262
2025-03-27 13:42:20.167,-1.9798371151455842
2025-03-27 13:42:20.167,-2.695354997191937
2025-03-27 13:42:20.167,-1.1901840913026955
2025-03-27 13:42:20.167,1.2826329103508636
2025-03-27 13:42:20.177,2.7641354853866957
2025-03-27 13:42:20.177,2.2455277728810996
2025-03-27 13:42:20.177,0.17500623298776172
2025-03-27 13:42:20.177,-2.140902910372751
2025-03-27 13:42:20.177,-3.227083452826251
2025-03-27 13:42:20.187,-2.0954058495708003
2025-03-27 13:42:20.187,0.8413102658814818
2025-03-27 13:42:20.187,3.48275986073151
2025-03-27 13:42:20.187,3.51183244162929
2025-03-27 13:42:20.187,0.6635904250374987
2025-03-27 13:42:20.197,-2.710455771583885
2025-03-27 13:42:20.197,-3.6985081720762603
2025-03-27 13:42:20.197,-1.5627882743249801
2025-03-27 13:42:20.197,1.5574772246092732
2025-03-27 13:42:20.197,2.740896403473565
2025-03-27 13:42:20.207,1.2088271067393648
2025-03-27 13:42:20.207,-0.9587088892861388
2025-03-27 13:42:20.207,-1.287168247823502
2025-03-27 13:42:20.207,0.1661060887824328
2025-03-27 13:42:20.207,1.064325513251583
2025-03-27 13:42:20.215,0.011651424977454028
2025-03-27 13:42:20.215,-1.5323858189295145
2025-03-27 13:42:20.215,-1.295818378148666
2025-03-27 13:42:20.215,0.6447729915633593
2025-03-27 13:42:20.216,1.9575851296938809
2025-03-27 13:42:20.225,1.1406524339409008
2025-03-27 13:42:20.225,-0.6403599750190563
2025-03-27 13:42:20.225,-1.1952381468903774
2025-03-27 13:42:20.225,-0.13396797754659012
2025-03-27 13:42:20.235,0.6413542978730543
2025-03-27 13:42:20.235,-0.5066002877436404
2025-03-27 13:42:20.235,-2.27932999832292
2025-03-27 13:42:20.235,-1.4686584088080243
2025-03-27 13:42:20.235,2.545388715950403
2025-03-27 13:42:20.245,5.542766194180577
2025-03-27 13:42:20.245,2.8946703348176195
2025-03-27 13:42:20.245,-3.872611160692288
2025-03-27 13:42:20.245,-7.577965853101389
2025-03-27 13:42:20.245,-3.713413667195427
2025-03-27 13:42:20.255,3.743669243852089
2025-03-27 13:42:20.255,6.876199610474815
2025-03-27 13:42:20.255,3.074064553956839
2025-03-27 13:42:20.255,-2.593689794862357
2025-03-27 13:42:20.255,-4.11504698721849
2025-03-27 13:42:20.265,-1.291965693954785
2025-03-27 13:42:20.265,1.3861233595949534
2025-03-27 13:42:20.265,1.0622478728552238
2025-03-27 13:42:20.265,-0.49632009481849015
2025-03-27 13:42:20.265,-0.3807652826392834
2025-03-27 13:42:20.275,1.0602929304161852
2025-03-27 13:42:20.275,1.122960136022115
2025-03-27 13:42:20.275,-0.7453738898227631
2025-03-27 13:42:20.275,-1.814053608168859
2025-03-27 13:42:20.275,-0.18480005867160995
2025-03-27 13:42:20.283,2.032948397721829
2025-03-27 13:42:20.283,1.473949891713294
2025-03-27 13:42:20.283,-1.5968970567513954
2025-03-27 13:42:20.283,-3.2655113793527244
2025-03-27 13:42:20.284,-0.9772288754200465
2025-03-27 13:42:20.293,3.023499360166273
2025-03-27 13:42:20.293,4.178616428821148
2025-03-27 13:42:20.293,0.9594046932556449
2025-03-27 13:42:20.293,-3.2730714514028394
2025-03-27 13:42:20.294,-4.08496938934681
2025-03-27 13:42:20.303,-1.0225298842773543
2025-03-27 13:42:20.303,2.1484543030094305
2025-03-27 13:42:20.303,2.2747729698820365
2025-03-27 13:42:20.303,0.4629968391288126
2025-03-27 13:42:20.313,-0.17551695218669783
2025-03-27 13:42:20.313,0.7557843429199032
2025-03-27 13:42:20.313,0.6549314364731386
2025-03-27 13:42:20.313,-1.5943183948570265
2025-03-27 13:42:20.313,-3.265272000304061
2025-03-27 13:42:20.323,-1.4586305324509519
2025-03-27 13:42:20.323,2.373649345395624
2025-03-27 13:42:20.323,3.8456554423774874
2025-03-27 13:42:20.323,1.293263646461409
2025-03-27 13:42:20.323,-2.155671520961289
2025-03-27 13:42:20.333,-2.729814279847872
2025-03-27 13:42:20.333,-0.46269515118720694
2025-03-27 13:42:20.333,1.5856709834136526
2025-03-27 13:42:20.333,1.3152602477785682
2025-03-27 13:42:20.333,-0.47824808996439205
2025-03-27 13:42:20.343,-1.5274963835621183
2025-03-27 13:42:20.343,-0.49966933431437593
2025-03-27 13:42:20.343,1.6490451940828705
2025-03-27 13:42:20.343,2.3083186783939347
2025-03-27 13:42:20.343,-0.04975832082828155
2025-03-27 13:42:20.353,-3.3676799384273
2025-03-27 13:42:20.353,-3.4457419198719528
2025-03-27 13:42:20.353,0.9750764882784786
2025-03-27 13:42:20.353,5.490793655343909
2025-03-27 13:42:20.353,4.332127842818333
2025-03-27 13:42:20.363,-2.359838393052748
2025-03-27 13:42:20.363,-7.504867463041751
2025-03-27 13:42:20.363,-4.857528755967438
2025-03-27 13:42:20.363,3.3264392704655705
2025-03-27 13:42:20.363,8.518324241565383
2025-03-27 13:42:20.373,5.549321318099728
2025-03-27 13:42:20.373,-2.1927281433328445
2025-03-27 13:42:20.373,-7.485146181278915
2025-03-27 13:42:20.373,-6.764993039322268
2025-03-27 13:42:20.373,-1.7642887435041776
2025-03-27 13:42:20.383,3.951999688090888
2025-03-27 13:42:20.383,7.5131174305247095
2025-03-27 13:42:20.383,6.821414178271889
2025-03-27 13:42:20.383,1.292003179798267
2025-03-27 13:42:20.383,-6.219763503243145
2025-03-27 13:42:20.393,-9.979776124655313
2025-03-27 13:42:20.393,-6.1043366324824495
2025-03-27 13:42:20.393,2.882460720464491
2025-03-27 13:42:20.393,9.4429981021591
2025-03-27 13:42:20.393,8.033204522654716
2025-03-27 13:42:20.401,0.5521641360413946
2025-03-27 13:42:20.401,-5.861662552819547
2025-03-27 13:42:20.401,-6.256423254132007
2025-03-27 13:42:20.401,-2.149901909995644
2025-03-27 13:42:20.401,1.561195385406776
2025-03-27 13:42:20.413,2.3753817184110244
2025-03-27 13:42:20.413,1.6602145835484268
2025-03-27 13:42:20.413,1.3316375467865664
2025-03-27 13:42:20.413,1.1215971646863285
2025-03-27 13:42:20.413,-0.20561094913741212
2025-03-27 13:42:20.423,-2.2186332890288463
2025-03-27 13:42:20.423,-2.8325319557734536
2025-03-27 13:42:20.423,-0.9743311702202082
2025-03-27 13:42:20.423,1.7667924498832952
2025-03-27 13:42:20.423,2.772847744724249
2025-03-27 13:42:20.431,1.2940866399818947
2025-03-27 13:42:20.431,-0.908282354496136
2025-03-27 13:42:20.431,-1.6994484489754738
2025-03-27 13:42:20.431,-0.7539923223129381
2025-03-27 13:42:20.431,0.48952461430208355
2025-03-27 13:42:20.441,0.5933632415734681
2025-03-27 13:42:20.441,-0.3778840696354002
2025-03-27 13:42:20.441,-0.9947123347123563
2025-03-27 13:42:20.441,-0.14383360139045825
2025-03-27 13:42:20.441,1.447101181028109
2025-03-27 13:42:20.451,1.867373052164147
2025-03-27 13:42:20.451,0.4144579681376336
2025-03-27 13:42:20.451,-1.450093167640021
2025-03-27 13:42:20.451,-2.036842574359108
2025-03-27 13:42:20.461,-1.3263234832057098
2025-03-27 13:42:20.461,-0.09502453938489278
2025-03-27 13:42:20.461,1.532246149839713
2025-03-27 13:42:20.461,3.058362559488907
2025-03-27 13:42:20.461,2.4409477235369232
2025-03-27 13:42:20.471,-1.4008154891480398
2025-03-27 13:42:20.471,-5.307894296286496
2025-03-27 13:42:20.471,-4.281804133310419
2025-03-27 13:42:20.471,1.8519225308098415
2025-03-27 13:42:20.471,6.838679339098954
2025-03-27 13:42:20.482,4.98813437883713
2025-03-27 13:42:20.482,-1.8522964670319175
2025-03-27 13:42:20.482,-6.470455987882152
2025-03-27 13:42:20.482,-4.651227414200755
2025-03-27 13:42:20.482,0.7789111692674198
2025-03-27 13:42:20.491,4.206356134891232
2025-03-27 13:42:20.491,3.4112883901933615
2025-03-27 13:42:20.491,0.5729669801436847
2025-03-27 13:42:20.491,-1.3604869959112456
2025-03-27 13:42:20.491,-1.5784358639660554
2025-03-27 13:42:20.501,-0.9859423466422191
2025-03-27 13:42:20.501,-0.42252738908222914
2025-03-27 13:42:20.501,0.001753021944708888
2025-03-27 13:42:20.501,0.374337307489971
2025-03-27 13:42:20.501,0.5401707016842822
2025-03-27 13:42:20.511,0.37340484188258793
2025-03-27 13:42:20.511,0.16712996763037408
2025-03-27 13:42:20.511,0.31411877996896637
2025-03-27 13:42:20.511,0.5773125703122728
2025-03-27 13:42:20.511,0.20118426013089125
2025-03-27 13:42:20.521,-0.9507944625579104
2025-03-27 13:42:20.521,-1.845947228704068
2025-03-27 13:42:20.521,-1.3524210722758292
2025-03-27 13:42:20.521,0.43184322898059785
2025-03-27 13:42:20.521,2.2785596750719055
2025-03-27 13:42:20.531,2.857038369392581
2025-03-27 13:42:20.531,1.3917121683566194
2025-03-27 13:42:20.531,-1.7907602343514504
2025-03-27 13:42:20.531,-4.510733937643553
2025-03-27 13:42:20.531,-3.633460288813239
2025-03-27 13:42:20.541,1.3506850883985229
2025-03-27 13:42:20.541,6.001035948853964
2025-03-27 13:42:20.541,4.772982886717708
2025-03-27 13:42:20.541,-1.8732311396669665
2025-03-27 13:42:20.541,-6.646355695205982
2025-03-27 13:42:20.551,-3.8292032386916963
2025-03-27 13:42:20.551,3.2113126938939605
2025-03-27 13:42:20.551,5.927543558495131
2025-03-27 13:42:20.551,1.4045621170804434
2025-03-27 13:42:20.551,-4.221064989391673
2025-03-27 13:42:20.561,-4.080751069268315
2025-03-27 13:42:20.561,0.8606517956631253
2025-03-27 13:42:20.561,3.989667423733335
2025-03-27 13:42:20.561,1.9270947307270403
2025-03-27 13:42:20.561,-1.945533915481567
2025-03-27 13:42:20.571,-2.7771323098025755
2025-03-27 13:42:20.571,-0.28853263551467345
2025-03-27 13:42:20.571,1.8974809453118737
2025-03-27 13:42:20.571,1.431604054766034
2025-03-27 13:42:20.571,-0.32226522093656507
2025-03-27 13:42:20.579,-0.9603534386765198
2025-03-27 13:42:20.579,-0.3355410845428573
2025-03-27 13:42:20.579,-0.06564913546650805
2025-03-27 13:42:20.579,-0.6405370771397144
2025-03-27 13:42:20.579,-0.6536291767652571
2025-03-27 13:42:20.589,0.7789338228440257
2025-03-27 13:42:20.589,2.171995477819185
2025-03-27 13:42:20.589,1.4369541284778065
2025-03-27 13:42:20.589,-1.037738003247977
2025-03-27 13:42:20.599,-2.5388295192362533
2025-03-27 13:42:20.599,-1.4893420334783725
2025-03-27 13:42:20.599,0.5923444799466909
2025-03-27 13:42:20.599,1.3426124604779757
2025-03-27 13:42:20.599,0.6330341356203492
2025-03-27 13:42:20.609,0.1740372808728305
2025-03-27 13:42:20.609,0.6524342959576988
2025-03-27 13:42:20.609,0.7451468913792735
2025-03-27 13:42:20.609,-0.7242636514314421
2025-03-27 13:42:20.609,-2.601788609181387
2025-03-27 13:42:20.619,-2.255759170684933
2025-03-27 13:42:20.619,1.138825315723802
2025-03-27 13:42:20.619,4.571263749380693
2025-03-27 13:42:20.619,3.6079310680271703
2025-03-27 13:42:20.619,-2.1626242028413594
2025-03-27 13:42:20.629,-6.958796407658806
2025-03-27 13:42:20.629,-4.389596064743474
2025-03-27 13:42:20.629,4.183348167698973
2025-03-27 13:42:20.629,9.386300736211865
2025-03-27 13:42:20.629,4.274948891477866
2025-03-27 13:42:20.639,-6.405875693276373
2025-03-27 13:42:20.639,-10.703859763150474
2025-03-27 13:42:20.639,-3.4382567961285506
2025-03-27 13:42:20.639,7.4388941498129135
2025-03-27 13:42:20.639,10.128371422601619
2025-03-27 13:42:20.647,2.41174315739396
2025-03-27 13:42:20.647,-6.730118047028709
2025-03-27 13:42:20.647,-7.987092542199737
2025-03-27 13:42:20.648,-1.4429367615447912
2025-03-27 13:42:20.648,5.095777642558331
2025-03-27 13:42:20.657,5.335344156333552
2025-03-27 13:42:20.657,0.40139494454598956
2025-03-27 13:42:20.657,-3.7519426657208284
2025-03-27 13:42:20.657,-3.1479808341784157
2025-03-27 13:42:20.657,0.6209525868851264
2025-03-27 13:42:20.667,3.0071971476435637
2025-03-27 13:42:20.667,1.7737236810182533
2025-03-27 13:42:20.667,-1.0219202718399825
2025-03-27 13:42:20.667,-2.1516478871149096
2025-03-27 13:42:20.679,-1.0940908173755695
2025-03-27 13:42:20.679,0.2373055386794759
2025-03-27 13:42:20.679,0.7172959277101291
2025-03-27 13:42:20.679,0.9921601513654662
2025-03-27 13:42:20.679,1.290402474521342
2025-03-27 13:42:20.679,0.5901390527394006
2025-03-27 13:42:20.691,-1.0990066986031608
2025-03-27 13:42:20.691,-1.8117264935036568
2025-03-27 13:42:20.691,-0.5998512440531107
2025-03-27 13:42:20.691,0.5109767832432965
2025-03-27 13:42:20.697,-0.2650670708003127
2025-03-27 13:42:20.697,-1.0003771738385152
2025-03-27 13:42:20.697,1.12114803150283
2025-03-27 13:42:20.697,4.314949928250516
2025-03-27 13:42:20.697,3.345774564973701
2025-03-27 13:42:20.707,-2.813497596037008
2025-03-27 13:42:20.707,-7.772059105146634
2025-03-27 13:42:20.707,-4.932321681046158
2025-03-27 13:42:20.707,3.59258977486128
2025-03-27 13:42:20.707,8.556614612657608
2025-03-27 13:42:20.717,4.503532370446038
2025-03-27 13:42:20.717,-3.626194124056372
2025-03-27 13:42:20.717,-6.630981439840031
2025-03-27 13:42:20.717,-2.0834844608083385
2025-03-27 13:42:20.717,3.52566540296181
2025-03-27 13:42:20.727,3.5142160535403466
2025-03-27 13:42:20.727,-1.0123945824588705
2025-03-27 13:42:20.727,-3.550595087896113
2025-03-27 13:42:20.727,-0.8720889377218579
2025-03-27 13:42:20.727,3.2947166338076497
2025-03-27 13:42:20.737,3.4952525088268245
2025-03-27 13:42:20.737,-0.5702604002883304
2025-03-27 13:42:20.737,-3.9719898411942567
2025-03-27 13:42:20.737,-2.797867916514164
2025-03-27 13:42:20.737,1.230508183952265
2025-03-27 13:42:20.747,3.189388601973044
2025-03-27 13:42:20.747,1.0788718205966232
2025-03-27 13:42:20.747,-1.9774930328011444
2025-03-27 13:42:20.747,-1.9261483518508107
2025-03-27 13:42:20.747,1.123396771340996
2025-03-27 13:42:20.755,3.206998469671076
2025-03-27 13:42:20.755,1.4806904818764446
2025-03-27 13:42:20.755,-2.443839039242458
2025-03-27 13:42:20.755,-4.467110252414903
2025-03-27 13:42:20.755,-2.430177868049509
2025-03-27 13:42:20.765,1.9054452129425896
2025-03-27 13:42:20.765,4.756071037085137
2025-03-27 13:42:20.765,3.7682292793604484
2025-03-27 13:42:20.765,-0.03984516555565165
2025-03-27 13:42:20.766,-3.3658378989384086
2025-03-27 13:42:20.775,-3.719428005292716
2025-03-27 13:42:20.775,-1.5267683635794875
2025-03-27 13:42:20.775,0.8450055567415103
2025-03-27 13:42:20.775,1.7648281284766096
2025-03-27 13:42:20.776,1.5283982568625052
2025-03-27 13:42:20.785,1.1308758958150478
2025-03-27 13:42:20.785,0.7597411446030989
2025-03-27 13:42:20.785,-0.048156901951051795
2025-03-27 13:42:20.785,-1.2454855183667073
2025-03-27 13:42:20.795,-1.9750636090278522
2025-03-27 13:42:20.795,-1.5552527947045727
2025-03-27 13:42:20.795,-0.340516324451528
2025-03-27 13:42:20.795,0.7900707346252964
2025-03-27 13:42:20.795,1.5995125180655698
2025-03-27 13:42:20.796,2.4205205667938
2025-03-27 13:42:20.805,2.681240503745335
2025-03-27 13:42:20.805,0.6503492700218324
2025-03-27 13:42:20.805,-3.8690653226746696
2025-03-27 13:42:20.805,-7.114805381710779
2025-03-27 13:42:20.815,-4.213013489354146
2025-03-27 13:42:20.815,4.207391570827963
2025-03-27 13:42:20.815,10.33602336006711
2025-03-27 13:42:20.815,6.9512957666717305
2025-03-27 13:42:20.815,-3.5347126564378266
2025-03-27 13:42:20.825,-10.63916468605305
2025-03-27 13:42:20.825,-7.298155761807834
2025-03-27 13:42:20.825,2.3650987680388806
2025-03-27 13:42:20.825,8.22134084886381
2025-03-27 13:42:20.825,5.447689871401419
2025-03-27 13:42:20.835,-1.4083485377111156
2025-03-27 13:42:20.835,-4.901706982418052
2025-03-27 13:42:20.835,-2.7758778773066464
2025-03-27 13:42:20.835,1.11058469635764
2025-03-27 13:42:20.835,2.289123218623353
2025-03-27 13:42:20.845,0.4739706403609105
2025-03-27 13:42:20.845,-1.1969469799729278
2025-03-27 13:42:20.845,-0.598385413934257
2025-03-27 13:42:20.845,0.9402477748397138
2025-03-27 13:42:20.845,0.9414880249184079
2025-03-27 13:42:20.855,-0.6229411575750508
2025-03-27 13:42:20.855,-1.441404757524449
2025-03-27 13:42:20.855,-0.26434554178313413
2025-03-27 13:42:20.855,1.4124383218940535
2025-03-27 13:42:20.855,1.5184743252314066
2025-03-27 13:42:20.863,-0.0004921543237356302
2025-03-27 13:42:20.863,-1.5237786464680165
2025-03-27 13:42:20.863,-1.7851560392700856
2025-03-27 13:42:20.863,-0.7151705804028629
2025-03-27 13:42:20.873,1.037987902574645
2025-03-27 13:42:20.873,2.376490853909848
2025-03-27 13:42:20.873,1.9486297952734097
2025-03-27 13:42:20.873,-0.5751033726468257
2025-03-27 13:42:20.873,-3.1757568950285484
2025-03-27 13:42:20.883,-2.8007219089584474
2025-03-27 13:42:20.883,0.9102046204689471
2025-03-27 13:42:20.883,4.115061037402032
2025-03-27 13:42:20.883,2.740714234749801
2025-03-27 13:42:20.884,-2.112519196215774
2025-03-27 13:42:20.893,-4.77085845611997
2025-03-27 13:42:20.893,-1.869086393910323
2025-03-27 13:42:20.893,3.2144064599973374
2025-03-27 13:42:20.893,4.510223606568277
2025-03-27 13:42:20.893,0.802575407636178
2025-03-27 13:42:20.903,-3.347122705342401
2025-03-27 13:42:20.903,-3.500360640640242
2025-03-27 13:42:20.903,-0.11898765572782832
2025-03-27 13:42:20.903,2.889914872844474
2025-03-27 13:42:20.903,2.699023070524886
2025-03-27 13:42:20.913,-0.12345544720994756
2025-03-27 13:42:20.913,-2.7038932846864974
2025-03-27 13:42:20.913,-2.512413244207103
2025-03-27 13:42:20.913,0.33327819157093064
2025-03-27 13:42:20.913,2.8585737548319687
2025-03-27 13:42:20.923,2.115250992160766
2025-03-27 13:42:20.923,-1.1560594191715239
2025-03-27 13:42:20.923,-2.8274871746326804
2025-03-27 13:42:20.923,-0.4823165001287483
2025-03-27 13:42:20.923,2.8620785399935778
2025-03-27 13:42:20.933,2.238427325540267
2025-03-27 13:42:20.933,-2.2685154651015
2025-03-27 13:42:20.933,-4.730424118931981
2025-03-27 13:42:20.933,-1.008156786513947
2025-03-27 13:42:20.933,5.002134034373317
2025-03-27 13:42:20.943,5.620309713245583
2025-03-27 13:42:20.943,-0.6495607164225785
2025-03-27 13:42:20.943,-6.607479307112736
2025-03-27 13:42:20.943,-5.116259509090085
2025-03-27 13:42:20.943,2.0405765911347906
2025-03-27 13:42:20.953,6.561634329744721
2025-03-27 13:42:20.953,3.8020637354521214
2025-03-27 13:42:20.953,-2.355997291594519
2025-03-27 13:42:20.953,-5.1023114846501905
2025-03-27 13:42:20.953,-2.55506753996111
2025-03-27 13:42:20.963,1.490604706485746
2025-03-27 13:42:20.963,3.0151862666008844
2025-03-27 13:42:20.963,1.7560254774784987
2025-03-27 13:42:20.963,-0.0589040636022649
2025-03-27 13:42:20.963,-0.9633183068203317
2025-03-27 13:42:20.971,-1.1717174336095333
2025-03-27 13:42:20.971,-1.15781512379583
2025-03-27 13:42:20.971,-0.7293476119120815
2025-03-27 13:42:20.971,0.2824813746515217
2025-03-27 13:42:20.971,1.3257769483054718
2025-03-27 13:42:20.981,1.6821262332642002
2025-03-27 13:42:20.981,1.2444072394601713
2025-03-27 13:42:20.981,0.22935944589657906
2025-03-27 13:42:20.981,-1.3601488521456586
2025-03-27 13:42:20.982,-3.09590655457005
2025-03-27 13:42:20.991,-3.292277589099901
2025-03-27 13:42:20.991,-0.3441917756992083
2025-03-27 13:42:20.991,4.4111589155557125
2025-03-27 13:42:20.991,6.488839715827947
2025-03-27 13:42:20.992,2.6637905687847114
2025-03-27 13:42:21.001,-4.488290899898883
2025-03-27 13:42:21.001,-8.150422498407352
2025-03-27 13:42:21.001,-4.356140580618818
2025-03-27 13:42:21.001,3.335973692767664
2025-03-27 13:42:21.011,7.450254573237833
2025-03-27 13:42:21.011,4.573478053310656
2025-03-27 13:42:21.011,-1.5129804458266483
2025-03-27 13:42:21.011,-4.766950411755896
2025-03-27 13:42:21.011,-3.4086941758401075
2025-03-27 13:42:21.021,-0.4181876132163844
2025-03-27 13:42:21.021,1.2691031883789907
2025-03-27 13:42:21.021,1.7632809653729653
2025-03-27 13:42:21.021,2.1309475041879344
2025-03-27 13:42:21.021,1.6979072363471275
2025-03-27 13:42:21.031,-0.596327606280695
2025-03-27 13:42:21.031,-3.2719445732426204
2025-03-27 13:42:21.031,-3.225430901050995
2025-03-27 13:42:21.031,0.10986012741522114
2025-03-27 13:42:21.031,3.419117482061583
2025-03-27 13:42:21.041,3.286376793332517
2025-03-27 13:42:21.041,0.14484459396552793
2025-03-27 13:42:21.041,-2.5909703010787473
2025-03-27 13:42:21.041,-2.5617594418015797
2025-03-27 13:42:21.041,-0.4946884423686301
2025-03-27 13:42:21.051,1.4056120569656212
2025-03-27 13:42:21.051,1.8345403790944443
2025-03-27 13:42:21.051,0.9404305505412811
2025-03-27 13:42:21.051,-0.4591867454372595
2025-03-27 13:42:21.051,-1.4753234156933297
2025-03-27 13:42:21.061,-1.4154020640731177
2025-03-27 13:42:21.061,-0.23044943164935092
2025-03-27 13:42:21.061,1.241165190329698
2025-03-27 13:42:21.061,1.8487793769170555
2025-03-27 13:42:21.061,1.0557975688470254
2025-03-27 13:42:21.071,-0.6829578597191615
2025-03-27 13:42:21.071,-2.1808725250450056
2025-03-27 13:42:21.071,-2.145800338265145
2025-03-27 13:42:21.071,-0.2057158801215764
2025-03-27 13:42:21.071,2.2699136888316525
2025-03-27 13:42:21.081,2.987629895898613
2025-03-27 13:42:21.081,1.0871181298609267
2025-03-27 13:42:21.081,-1.6843053614500691
2025-03-27 13:42:21.081,-2.8567989155363502
2025-03-27 13:42:21.081,-1.902199973898167
2025-03-27 13:42:21.091,-0.14588348636999593
2025-03-27 13:42:21.091,1.4654521901628577
2025-03-27 13:42:21.091,2.9209961365207002
2025-03-27 13:42:21.091,3.364650263585634
2025-03-27 13:42:21.091,0.9057105948782415
2025-03-27 13:42:21.101,-4.132509768604901
2025-03-27 13:42:21.101,-7.178439642474591
2025-03-27 13:42:21.101,-3.534665491183188
2025-03-27 13:42:21.101,4.9436577215390205
2025-03-27 13:42:21.101,9.926280062243633
2025-03-27 13:42:21.109,5.453076452645701
2025-03-27 13:42:21.109,-4.5974589130832815
2025-03-27 13:42:21.109,-10.23129916494628
2025-03-27 13:42:21.109,-6.19240423831691
2025-03-27 13:42:21.110,2.9456075704101883
2025-03-27 13:42:21.119,8.47261707881363
2025-03-27 13:42:21.119,6.224262502876346
2025-03-27 13:42:21.119,-0.805332665655556
2025-03-27 13:42:21.119,-6.354406898489987
2025-03-27 13:42:21.129,-6.143856315104626
2025-03-27 13:42:21.129,-0.7678273327021055
2025-03-27 13:42:21.129,4.925961847386635
2025-03-27 13:42:21.129,5.839832320038698
2025-03-27 13:42:21.129,1.3737125404913995
2025-03-27 13:42:21.139,-3.84628627247616
2025-03-27 13:42:21.139,-4.779156463169196
2025-03-27 13:42:21.139,-1.2573064792896063
2025-03-27 13:42:21.139,2.4131905718922644
2025-03-27 13:42:21.139,2.7972782832031693
2025-03-27 13:42:21.149,0.8145416743112055
2025-03-27 13:42:21.149,-0.536860242287691
2025-03-27 13:42:21.149,-0.3993770551721183
2025-03-27 13:42:21.149,-0.4067665966665485
2025-03-27 13:42:21.149,-1.350576370614836
2025-03-27 13:42:21.159,-1.5717495110305149
2025-03-27 13:42:21.159,0.3713360077186218
2025-03-27 13:42:21.159,2.81223347151767
2025-03-27 13:42:21.159,2.56149016596117
2025-03-27 13:42:21.159,-0.7587088733563488
2025-03-27 13:42:21.169,-3.638886409381928
2025-03-27 13:42:21.169,-2.7154159451818387
2025-03-27 13:42:21.170,1.133473220215491
2025-03-27 13:42:21.170,3.7991380088176223
2025-03-27 13:42:21.170,2.632388420212999
2025-03-27 13:42:21.179,-0.9252161082586496
2025-03-27 13:42:21.179,-3.3544253102497965
2025-03-27 13:42:21.179,-2.70771363154331
2025-03-27 13:42:21.179,0.04292214673591363
2025-03-27 13:42:21.179,2.4438212202418046
2025-03-27 13:42:21.189,2.717219546604156
2025-03-27 13:42:21.189,0.9472879510987471
2025-03-27 13:42:21.189,-1.2243736455159797
2025-03-27 13:42:21.189,-2.1007078904559924
2025-03-27 13:42:21.189,-1.3842111892511644
2025-03-27 13:42:21.199,-0.12368445789496504
2025-03-27 13:42:21.199,0.686620389826142
2025-03-27 13:42:21.199,1.022381283032646
2025-03-27 13:42:21.199,1.2266825494514615
2025-03-27 13:42:21.199,1.071827693258648
2025-03-27 13:42:21.209,0.03677161976657515
2025-03-27 13:42:21.209,-1.5823925058633945
2025-03-27 13:42:21.209,-2.4478962304236105
2025-03-27 13:42:21.209,-1.4352118554385782
2025-03-27 13:42:21.209,0.9906787688925546
2025-03-27 13:42:21.219,2.895157016908206
2025-03-27 13:42:21.219,2.544727520128272
2025-03-27 13:42:21.219,0.1038323138296841
2025-03-27 13:42:21.219,-2.345071674206741
2025-03-27 13:42:21.219,-2.712848479833261
2025-03-27 13:42:21.229,-0.9389781962128155
2025-03-27 13:42:21.229,1.1027464044961874
2025-03-27 13:42:21.229,1.7476456171238828
2025-03-27 13:42:21.229,1.1112008903475492
2025-03-27 13:42:21.229,0.31683167660167877
2025-03-27 13:42:21.239,-0.1623232020935752
2025-03-27 13:42:21.239,-0.6634953081008953
2025-03-27 13:42:21.239,-1.1989084745207907
2025-03-27 13:42:21.239,-1.1489385707425912
2025-03-27 13:42:21.239,-0.25887129641978507
2025-03-27 13:42:21.249,0.8519251240766511
2025-03-27 13:42:21.249,1.511649395563426
2025-03-27 13:42:21.249,1.60464404318983
2025-03-27 13:42:21.249,0.9656617881612226
2025-03-27 13:42:21.249,-0.8514582267975308
2025-03-27 13:42:21.259,-3.2207693363313004
2025-03-27 13:42:21.259,-3.698139830464903
2025-03-27 13:42:21.259,-0.41822385584560895
2025-03-27 13:42:21.259,4.558906724187701
2025-03-27 13:42:21.259,6.103468390194025
2025-03-27 13:42:21.269,1.61831816170708
2025-03-27 13:42:21.269,-5.038994172191921
2025-03-27 13:42:21.269,-7.010875634063083
2025-03-27 13:42:21.269,-2.0841445963757486
2025-03-27 13:42:21.269,4.554139509110341
2025-03-27 13:42:21.278,6.119919070504851
2025-03-27 13:42:21.278,1.773115151066064
2025-03-27 13:42:21.278,-3.122038610029481
2025-03-27 13:42:21.278,-3.8513723261727852
2025-03-27 13:42:21.278,-1.357816211885606
2025-03-27 13:42:21.289,0.4971843314184614
2025-03-27 13:42:21.289,0.6786985399661686
2025-03-27 13:42:21.289,1.3927971573275626
2025-03-27 13:42:21.289,3.1625701598758647
2025-03-27 13:42:21.289,2.770869977117198
2025-03-27 13:42:21.297,-1.853400845940771
2025-03-27 13:42:21.297,-6.714394256741177
2025-03-27 13:42:21.297,-5.281433674870551
2025-03-27 13:42:21.297,2.6197102453938
2025-03-27 13:42:21.297,8.716502768122021
2025-03-27 13:42:21.307,5.594188205765452
2025-03-27 13:42:21.307,-3.6382349681294714
2025-03-27 13:42:21.307,-8.42018019124128
2025-03-27 13:42:21.307,-3.544306516323093
2025-03-27 13:42:21.317,4.5661609287795795
2025-03-27 13:42:21.317,6.187610661247462
2025-03-27 13:42:21.317,0.2781796443657474
2025-03-27 13:42:21.317,-5.0737300595119175
2025-03-27 13:42:21.317,-3.3549457298242333
2025-03-27 13:42:21.327,2.6801014789866584
2025-03-27 13:42:21.327,5.257177432541528
2025-03-27 13:42:21.327,1.3158165237274462
2025-03-27 13:42:21.327,-4.311258547867431
2025-03-27 13:42:21.327,-5.142039901338643
2025-03-27 13:42:21.337,-0.49825127038692135
2025-03-27 13:42:21.337,4.3249337187651085
2025-03-27 13:42:21.337,4.43445173788766
2025-03-27 13:42:21.337,0.3989461909187451
2025-03-27 13:42:21.337,-3.2220595195762702
2025-03-27 13:42:21.347,-3.148870580722562
2025-03-27 13:42:21.347,-0.27712347185871883
2025-03-27 13:42:21.347,2.0983717114568776
2025-03-27 13:42:21.347,1.8473302310096322
2025-03-27 13:42:21.347,-0.3043414916938728
2025-03-27 13:42:21.357,-1.8779348193789216
2025-03-27 13:42:21.357,-1.1097924754531843
2025-03-27 13:42:21.357,1.2729864454149706
2025-03-27 13:42:21.357,2.5924461358237214
2025-03-27 13:42:21.357,1.00747002537435
2025-03-27 13:42:21.367,-2.1198577992578342
2025-03-27 13:42:21.367,-3.353192121675998
2025-03-27 13:42:21.367,-1.1003347216630859
2025-03-27 13:42:21.367,2.294373717418502
2025-03-27 13:42:21.367,3.1602462270485554
2025-03-27 13:42:21.377,0.7943313569165283
2025-03-27 13:42:21.377,-1.8585354696771188
2025-03-27 13:42:21.377,-1.8880063463421841
2025-03-27 13:42:21.377,0.20326306272948114
2025-03-27 13:42:21.377,1.470246871301433
2025-03-27 13:42:21.387,0.3557955774186116
2025-03-27 13:42:21.387,-1.4798143420728602
2025-03-27 13:42:21.387,-1.4594767442009076
2025-03-27 13:42:21.387,0.5540682780731256
2025-03-27 13:42:21.387,2.1313132796181677
2025-03-27 13:42:21.397,1.4277910054288232
2025-03-27 13:42:21.397,-0.5815383175660473
2025-03-27 13:42:21.397,-1.616863590576389
2025-03-27 13:42:21.397,-1.025774966347687
2025-03-27 13:42:21.397,-0.07652279743905427
2025-03-27 13:42:21.407,0.30664486447336675
2025-03-27 13:42:21.407,0.5974069017122183
2025-03-27 13:42:21.407,1.1175270481582988
2025-03-27 13:42:21.407,0.9322152006749526
2025-03-27 13:42:21.407,-0.5872204992029703
2025-03-27 13:42:21.417,-2.076885128760243
2025-03-27 13:42:21.417,-1.5784258708277807
2025-03-27 13:42:21.417,0.6699825035999385
2025-03-27 13:42:21.417,2.291676443072349
2025-03-27 13:42:21.417,1.7353139996449218
2025-03-27 13:42:21.425,-0.1015035086175903
2025-03-27 13:42:21.425,-1.483305648396264
2025-03-27 13:42:21.425,-1.7667010127570422
2025-03-27 13:42:21.425,-1.1563598353609714
2025-03-27 13:42:21.435,0.19685756470675525
2025-03-27 13:42:21.435,1.7976064614892986
2025-03-27 13:42:21.435,2.3198962934000598
2025-03-27 13:42:21.435,0.8295392403347337
2025-03-27 13:42:21.435,-1.6133909934798571
2025-03-27 13:42:21.445,-2.643412016959451
2025-03-27 13:42:21.445,-1.229977156508642
2025-03-27 13:42:21.445,1.0478811584344891
2025-03-27 13:42:21.445,1.8716973812374882
2025-03-27 13:42:21.445,0.8681937341982441
2025-03-27 13:42:21.455,-0.29583360681472753
2025-03-27 13:42:21.455,-0.3264711359816422
2025-03-27 13:42:21.455,0.14291203576858214
2025-03-27 13:42:21.455,-0.18379115145711808
2025-03-27 13:42:21.455,-1.1878043524540969
2025-03-27 13:42:21.465,-1.3839034372297474
2025-03-27 13:42:21.465,0.05259314880673217
2025-03-27 13:42:21.465,1.9906865191025351
2025-03-27 13:42:21.465,2.3890430580270534
2025-03-27 13:42:21.465,0.5109755619879757
2025-03-27 13:42:21.475,-2.0528001853704834
2025-03-27 13:42:21.475,-2.777684548728711
2025-03-27 13:42:21.475,-0.858169975139786
2025-03-27 13:42:21.475,1.7339026886371862
2025-03-27 13:42:21.475,2.3364280771375094
2025-03-27 13:42:21.483,0.6037034329545831
2025-03-27 13:42:21.483,-1.276440036514197
2025-03-27 13:42:21.483,-1.3627826347967773
2025-03-27 13:42:21.483,-0.0641079146497163
2025-03-27 13:42:21.484,0.8516251950417663
2025-03-27 13:42:21.493,0.5255366034711583
2025-03-27 13:42:21.493,-0.3441919233144904
2025-03-27 13:42:21.493,-0.6659590965997945
2025-03-27 13:42:21.494,-0.13832334608857957
2025-03-27 13:42:21.503,0.6163027964374038
2025-03-27 13:42:21.503,0.7355258898087478
2025-03-27 13:42:21.503,-0.014861734789302417
2025-03-27 13:42:21.503,-0.8943387398543682
2025-03-27 13:42:21.503,-0.8672506542003982
2025-03-27 13:42:21.513,0.19546103419223254
2025-03-27 13:42:21.513,1.1810439340866705
2025-03-27 13:42:21.513,0.8954035901716499
2025-03-27 13:42:21.513,-0.479162769045545
2025-03-27 13:42:21.513,-1.418217723097202
2025-03-27 13:42:21.523,-0.7540948242517346
2025-03-27 13:42:21.523,0.8590891062390357
2025-03-27 13:42:21.523,1.5801373343984504
2025-03-27 13:42:21.523,0.5351215574096077
2025-03-27 13:42:21.523,-1.1203467752525202
2025-03-27 13:42:21.533,-1.6102938668437674
2025-03-27 13:42:21.533,-0.5938421663368955
2025-03-27 13:42:21.533,0.7478494364917628
2025-03-27 13:42:21.533,1.3628819685610913
2025-03-27 13:42:21.533,1.2180328563085983
2025-03-27 13:42:21.543,0.5583027020800128
2025-03-27 13:42:21.543,-0.663819700688769
2025-03-27 13:42:21.543,-2.0568461579610484
2025-03-27 13:42:21.543,-2.310722939336458
2025-03-27 13:42:21.543,-0.5000007530933935
2025-03-27 13:42:21.553,2.2694839817102563
2025-03-27 13:42:21.553,3.46523312369309
2025-03-27 13:42:21.553,1.7592455272158432
2025-03-27 13:42:21.553,-1.4092780396982898
2025-03-27 13:42:21.553,-3.2624094569238333
2025-03-27 13:42:21.563,-2.443526987081615
2025-03-27 13:42:21.563,-0.07776027628718668
2025-03-27 13:42:21.563,1.739677918610019
2025-03-27 13:42:21.563,2.059379748535301
2025-03-27 13:42:21.563,1.4261103049195218
2025-03-27 13:42:21.573,0.4730519888888809
2025-03-27 13:42:21.573,-0.8834362077494983
2025-03-27 13:42:21.573,-2.351569652261023
2025-03-27 13:42:21.573,-2.390037768370895
2025-03-27 13:42:21.573,0.031886368216489644
2025-03-27 13:42:21.583,3.0144482081778206
2025-03-27 13:42:21.583,3.0178669806235443
2025-03-27 13:42:21.583,-0.5571653712607553
2025-03-27 13:42:21.583,-3.6768472774171634
2025-03-27 13:42:21.583,-2.2497114583619022
2025-03-27 13:42:21.597,2.3753796957273217
2025-03-27 13:42:21.597,4.5290207421685205
2025-03-27 13:42:21.597,1.1374014194465472
2025-03-27 13:42:21.597,-4.229115131584609
2025-03-27 13:42:21.597,-5.4025734912775585
2025-03-27 13:42:21.603,-0.8144488675897068
2025-03-27 13:42:21.603,4.780617754537753
2025-03-27 13:42:21.603,5.727300305896137
2025-03-27 13:42:21.603,1.4262544314495504
2025-03-27 13:42:21.603,-3.6332001993522756
2025-03-27 13:42:21.613,-4.967609419431264
2025-03-27 13:42:21.613,-2.2664423312771467
2025-03-27 13:42:21.613,1.3448851712600156
2025-03-27 13:42:21.613,3.062521261677075
2025-03-27 13:42:21.613,2.616340199027684
2025-03-27 13:42:21.623,1.1805956157221156
2025-03-27 13:42:21.623,-0.5652661481425956
2025-03-27 13:42:21.623,-2.3916418381992113
2025-03-27 13:42:21.623,-3.2200547126803243
2025-03-27 13:42:21.623,-1.5578733989586817
2025-03-27 13:42:21.633,2.0757110961441803
2025-03-27 13:42:21.633,4.402689826629612
2025-03-27 13:42:21.633,2.5974348972362815
2025-03-27 13:42:21.633,-1.9742413523571711
2025-03-27 13:42:21.633,-4.661488319821611
2025-03-27 13:42:21.643,-2.645168972445752
2025-03-27 13:42:21.643,1.8298370275580442
2025-03-27 13:42:21.643,4.077946918662564
2025-03-27 13:42:21.643,2.2073100182148457
2025-03-27 13:42:21.643,-1.2553647464220907
2025-03-27 13:42:21.653,-2.7913717025012654
2025-03-27 13:42:21.653,-1.6909887161281216
2025-03-27 13:42:21.653,0.17258440222568902
2025-03-27 13:42:21.653,1.2513280682387067
2025-03-27 13:42:21.653,1.5186254504950307
2025-03-27 13:42:21.663,1.1203332853298447
2025-03-27 13:42:21.663,-0.25487311822286657
2025-03-27 13:42:21.663,-1.9759643381123102
2025-03-27 13:42:21.663,-2.0882179947068376
2025-03-27 13:42:21.663,0.21382609625493953
2025-03-27 13:42:21.671,2.692628119025854
2025-03-27 13:42:21.671,2.3640185158613036
2025-03-27 13:42:21.671,-0.5959235529219639
2025-03-27 13:42:21.672,-2.8622170557993027
2025-03-27 13:42:21.672,-2.0691282254194405
2025-03-27 13:42:21.681,0.5211259795152239
2025-03-27 13:42:21.682,2.022908776622987
2025-03-27 13:42:21.682,1.4376941442589848
2025-03-27 13:42:21.682,0.19364304883423447
2025-03-27 13:42:21.682,-0.25957822692503646
2025-03-27 13:42:21.691,-0.27665977651670454
2025-03-27 13:42:21.691,-1.0291478594353425
2025-03-27 13:42:21.691,-2.175468535735431
2025-03-27 13:42:21.691,-1.606512496421399
2025-03-27 13:42:21.701,1.6282173115676892
2025-03-27 13:42:21.701,4.807392708021421
2025-03-27 13:42:21.701,3.7620468029067426
2025-03-27 13:42:21.701,-1.8024858690010763
2025-03-27 13:42:21.701,-6.725178589659491
2025-03-27 13:42:21.711,-5.5477334256390325
2025-03-27 13:42:21.711,1.2121905034173301
2025-03-27 13:42:21.711,7.145108649642042
2025-03-27 13:42:21.711,6.500711618527863
2025-03-27 13:42:21.712,0.0378405990214471
2025-03-27 13:42:21.721,-5.964496706658639
2025-03-27 13:42:21.721,-6.178483897484042
2025-03-27 13:42:21.721,-1.21985876022121
2025-03-27 13:42:21.721,3.7505126556137727
2025-03-27 13:42:21.721,4.596068967705154
2025-03-27 13:42:21.731,1.6900015083764413
2025-03-27 13:42:21.731,-1.6062502195742727
2025-03-27 13:42:21.731,-2.6166234262700523
2025-03-27 13:42:21.731,-1.2262402924908689
2025-03-27 13:42:21.731,0.7459179146082472
2025-03-27 13:42:21.741,1.286317788018733
2025-03-27 13:42:21.741,-0.03975291272996764
2025-03-27 13:42:21.741,-1.4800127896680642
2025-03-27 13:42:21.741,-0.8909045372603422
2025-03-27 13:42:21.741,1.4318524878505492
2025-03-27 13:42:21.751,2.651080273834645
2025-03-27 13:42:21.751,0.9023579268434957
2025-03-27 13:42:21.751,-1.9950362130679293
2025-03-27 13:42:21.751,-2.6469684040899475
2025-03-27 13:42:21.751,-0.5031210658623085
2025-03-27 13:42:21.761,1.454469227236548
2025-03-27 13:42:21.761,0.8631823178427718
2025-03-27 13:42:21.761,-0.7649367514331371
2025-03-27 13:42:21.761,-0.40187436756553035
2025-03-27 13:42:21.761,1.7897451406704004
2025-03-27 13:42:21.771,2.3673119444257757
2025-03-27 13:42:21.771,-0.3865869312660863
2025-03-27 13:42:21.771,-3.5430387743977083
2025-03-27 13:42:21.771,-3.1614761371974964
2025-03-27 13:42:21.771,0.481030676915401
2025-03-27 13:42:21.781,3.281710304071368
2025-03-27 13:42:21.781,2.5346383896849307
2025-03-27 13:42:21.781,-0.13625353024340023
2025-03-27 13:42:21.781,-1.4678555464824066
2025-03-27 13:42:21.781,-0.6967180206980562
2025-03-27 13:42:21.789,0.13437712613170383
2025-03-27 13:42:21.789,-0.533782581560384
2025-03-27 13:42:21.789,-1.557631112518118
2025-03-27 13:42:21.789,-0.8233860232894198
2025-03-27 13:42:21.799,1.5353432968729033
2025-03-27 13:42:21.799,2.9435030111799114
2025-03-27 13:42:21.799,1.628084276833099
2025-03-27 13:42:21.799,-1.092329996427383
2025-03-27 13:42:21.799,-2.534187950424296
2025-03-27 13:42:21.809,-1.8298271854676307
2025-03-27 13:42:21.809,-0.3031684717084418
2025-03-27 13:42:21.809,0.7955708275332886
2025-03-27 13:42:21.809,1.4700614724576444
2025-03-27 13:42:21.809,1.7597744263671187
2025-03-27 13:42:21.819,0.8820907782229546
2025-03-27 13:42:21.819,-1.3051933406992322
2025-03-27 13:42:21.819,-2.871175864118961
2025-03-27 13:42:21.819,-1.538925885465231
2025-03-27 13:42:21.819,1.9509763502994655
2025-03-27 13:42:21.829,3.7467799170747367
2025-03-27 13:42:21.829,1.2716884766157148
2025-03-27 13:42:21.829,-3.1259283658264896
2025-03-27 13:42:21.829,-4.401116166032654
2025-03-27 13:42:21.829,-0.7508184202655238
2025-03-27 13:42:21.839,3.955489145389894
2025-03-27 13:42:21.839,4.463204459937517
2025-03-27 13:42:21.839,0.22085477700849132
2025-03-27 13:42:21.839,-3.9452427112002186
2025-03-27 13:42:21.839,-3.4723033594354136
2025-03-27 13:42:21.849,0.6496135205235319
2025-03-27 13:42:21.849,3.319121257549458
2025-03-27 13:42:21.849,1.6441326072290707
2025-03-27 13:42:21.849,-1.8006830323211647
2025-03-27 13:42:21.849,-2.6370626854803523
2025-03-27 13:42:21.859,-0.1447802298565699
2025-03-27 13:42:21.859,2.425769782924377
2025-03-27 13:42:21.859,2.2958539424803948
2025-03-27 13:42:21.859,0.08997462776068038
2025-03-27 13:42:21.859,-1.8214737059255428
2025-03-27 13:42:21.869,-2.2115975903544887
2025-03-27 13:42:21.869,-1.3637137876507908
2025-03-27 13:42:21.869,0.18830928557849339
2025-03-27 13:42:21.869,1.8995036570525072
2025-03-27 13:42:21.869,2.684568166247085
2025-03-27 13:42:21.877,1.542959151036842
2025-03-27 13:42:21.878,-1.0124482150579834
2025-03-27 13:42:21.878,-2.9403548521783556
2025-03-27 13:42:21.878,-2.5229941665969617
2025-03-27 13:42:21.878,-0.06612773379860691
2025-03-27 13:42:21.887,2.307615455325233
2025-03-27 13:42:21.887,2.5250035995527615
2025-03-27 13:42:21.888,0.4933318165797934
2025-03-27 13:42:21.888,-1.680547979550139
2025-03-27 13:42:21.897,-1.796110025244241
2025-03-27 13:42:21.897,-0.059016368407281666
2025-03-27 13:42:21.897,1.1780200810729504
2025-03-27 13:42:21.898,0.5385797710486157
2025-03-27 13:42:21.898,-0.5180535334362966
2025-03-27 13:42:21.898,-0.01081975700101306
2025-03-27 13:42:21.907,1.2585537511443088
2025-03-27 13:42:21.907,0.6195727910962431
2025-03-27 13:42:21.907,-2.128996958478793
2025-03-27 13:42:21.907,-3.401017253133504
2025-03-27 13:42:21.917,-0.35205389225739636
2025-03-27 13:42:21.917,4.446829065961285
2025-03-27 13:42:21.917,5.167572479134124
2025-03-27 13:42:21.917,-0.035433792051648705
2025-03-27 13:42:21.918,-5.889523645341425
2025-03-27 13:42:21.927,-5.72743213004148
2025-03-27 13:42:21.927,0.5164890361477446
2025-03-27 13:42:21.927,6.014720517029195
2025-03-27 13:42:21.928,4.956698097544776
2025-03-27 13:42:21.928,-0.9877348853318115
2025-03-27 13:42:21.937,-5.127801740943111
2025-03-27 13:42:21.938,-3.5336324140282054
2025-03-27 13:42:21.938,1.20772796530725
2025-03-27 13:42:21.938,3.831412603070719
2025-03-27 13:42:21.938,2.33334525040163
2025-03-27 13:42:21.947,-0.8738354200387071
2025-03-27 13:42:21.947,-2.6571025230374246
2025-03-27 13:42:21.947,-2.1998801598503497
2025-03-27 13:42:21.947,-0.33840089663429374
2025-03-27 13:42:21.947,2.0383108274183765
2025-03-27 13:42:21.957,3.6268605159731777
2025-03-27 13:42:21.957,2.3858542483097467
2025-03-27 13:42:21.957,-2.030827468925632
2025-03-27 13:42:21.957,-5.937817213321569
2025-03-27 13:42:21.957,-4.454302063211778
2025-03-27 13:42:21.967,2.2396966566472463
2025-03-27 13:42:21.967,7.5364444577940555
2025-03-27 13:42:21.967,5.347674218145574
2025-03-27 13:42:21.967,-2.41431725152302
2025-03-27 13:42:21.967,-7.484314855535653
2025-03-27 13:42:21.977,-4.589523439119255
2025-03-27 13:42:21.977,2.677592241260336
2025-03-27 13:42:21.977,6.298044423872796
2025-03-27 13:42:21.977,2.9095528046482655
2025-03-27 13:42:21.977,-3.05401086141276
2025-03-27 13:42:21.987,-5.014105654510996
2025-03-27 13:42:21.987,-1.4821396372501976
2025-03-27 13:42:21.987,3.1302451629060077
2025-03-27 13:42:21.987,4.03974185722151
2025-03-27 13:42:21.987,1.0150391164662504
2025-03-27 13:42:21.997,-2.3993568895416932
2025-03-27 13:42:21.997,-3.2263079906347314
2025-03-27 13:42:21.997,-1.4850846375265174
2025-03-27 13:42:21.997,0.9954119701371063
2025-03-27 13:42:21.997,2.5356779531304543
2025-03-27 13:42:22.005,2.234189944818649
2025-03-27 13:42:22.006,0.22175821892842346
2025-03-27 13:42:22.006,-1.9330654966372747
2025-03-27 13:42:22.006,-2.250299251954187
2025-03-27 13:42:22.017,-0.6489809032034394
2025-03-27 13:42:22.017,0.8254066581253354
2025-03-27 13:42:22.017,0.9050220290964326
2025-03-27 13:42:22.017,0.7621984351279736
2025-03-27 13:42:22.017,1.4137294082420788
2025-03-27 13:42:22.017,1.2229597340975233
2025-03-27 13:42:22.025,-1.4593761164388535
2025-03-27 13:42:22.026,-4.244942548774158
2025-03-27 13:42:22.026,-2.7714173382018075
2025-03-27 13:42:22.026,2.7356509915739675
2025-03-27 13:42:22.027,6.242799145173375
2025-03-27 13:42:22.036,3.1024616645683283
2025-03-27 13:42:22.036,-3.6572433855932895
2025-03-27 13:42:22.036,-6.618995511107749
2025-03-27 13:42:22.036,-2.714153380782245
2025-03-27 13:42:22.045,3.5297464280525017
2025-03-27 13:42:22.045,5.620436786649945
2025-03-27 13:42:22.045,2.207482470907827
2025-03-27 13:42:22.045,-2.4105824250210692
2025-03-27 13:42:22.045,-3.8048240438209797
2025-03-27 13:42:22.055,-1.7949769207516846
2025-03-27 13:42:22.055,0.7570318587945091
2025-03-27 13:42:22.056,1.8332677156131119
2025-03-27 13:42:22.056,1.6247619012938612
2025-03-27 13:42:22.056,0.8597258549850815
2025-03-27 13:42:22.056,-0.3656897105755877
2025-03-27 13:42:22.065,-1.7204621726075258
2025-03-27 13:42:22.065,-2.010492154845904
2025-03-27 13:42:22.065,-0.4750665731189361
2025-03-27 13:42:22.065,1.7810679104912144
2025-03-27 13:42:22.075,2.5824906162799337
2025-03-27 13:42:22.075,1.0082033886037665
2025-03-27 13:42:22.075,-1.5208962315738224
2025-03-27 13:42:22.075,-2.631920413392508
2025-03-27 13:42:22.075,-1.33757520618707
2025-03-27 13:42:22.085,1.0352537102004788
2025-03-27 13:42:22.085,2.19722576356094
2025-03-27 13:42:22.085,1.22188800678958
2025-03-27 13:42:22.085,-0.549875225185666
2025-03-27 13:42:22.085,-1.1636466160739622
2025-03-27 13:42:22.095,-0.4399606397723955
2025-03-27 13:42:22.095,0.013853412227329047
2025-03-27 13:42:22.095,-0.6146598858335192
2025-03-27 13:42:22.095,-0.8551335111814303
2025-03-27 13:42:22.095,0.7957009569282315
2025-03-27 13:42:22.105,2.8366982767970392
2025-03-27 13:42:22.105,1.9896368777739908
2025-03-27 13:42:22.105,-1.985169965300517
2025-03-27 13:42:22.105,-4.6785032333357135
2025-03-27 13:42:22.105,-2.134825327508793
2025-03-27 13:42:22.115,3.404182476444587
2025-03-27 13:42:22.115,5.411729087336729
2025-03-27 13:42:22.115,1.1394281231207417
2025-03-27 13:42:22.115,-4.559878453661028
2025-03-27 13:42:22.115,-5.008423296954456
2025-03-27 13:42:22.125,0.18436454060626767
2025-03-27 13:42:22.125,4.900089394837982
2025-03-27 13:42:22.125,4.023059498111158
2025-03-27 13:42:22.125,-0.9025609253716032
2025-03-27 13:42:22.125,-4.217987579821703
2025-03-27 13:42:22.135,-2.88392754361107
2025-03-27 13:42:22.135,0.7797263668848912
2025-03-27 13:42:22.135,2.673781297928362
2025-03-27 13:42:22.135,1.6314486777207686
2025-03-27 13:42:22.135,-0.21464983511230373
2025-03-27 13:42:22.143,-0.7891356143252062
2025-03-27 13:42:22.143,-0.32506635882016643
2025-03-27 13:42:22.143,-0.18077030970421887
2025-03-27 13:42:22.144,-0.6916478303589515
2025-03-27 13:42:22.153,-0.950515077071161
2025-03-27 13:42:22.153,-0.1207182602206201
2025-03-27 13:42:22.153,1.5496543256504913
2025-03-27 13:42:22.153,2.5858352340692297
2025-03-27 13:42:22.154,1.2058130233679205
2025-03-27 13:42:22.163,-2.4519966063583007
2025-03-27 13:42:22.163,-4.946823278077467
2025-03-27 13:42:22.164,-2.45089363758327
2025-03-27 13:42:22.164,3.8147692540997453
2025-03-27 13:42:22.164,7.205449310173219
2025-03-27 13:42:22.173,3.052699418381978
2025-03-27 13:42:22.173,-4.838607790444955
2025-03-27 13:42:22.174,-7.919480994499361
2025-03-27 13:42:22.174,-2.9139597963897605
2025-03-27 13:42:22.174,4.535692415594924
2025-03-27 13:42:22.183,6.801291141663525
2025-03-27 13:42:22.183,2.5680794042383828
2025-03-27 13:42:22.183,-3.0216297288834726
2025-03-27 13:42:22.183,-4.804813359819211
2025-03-27 13:42:22.183,-2.3282165236068226
2025-03-27 13:42:22.193,1.1898766904394356
2025-03-27 13:42:22.193,2.7423391901199667
2025-03-27 13:42:22.193,1.8772181914656378
2025-03-27 13:42:22.193,0.17564557169984263
2025-03-27 13:42:22.193,-0.7494589056429353
2025-03-27 13:42:22.203,-0.7127789469862957
2025-03-27 13:42:22.203,-0.6509826102703882
2025-03-27 13:42:22.203,-1.0513879177291259
2025-03-27 13:42:22.203,-1.098142254910667
2025-03-27 13:42:22.203,0.17912908584216564
2025-03-27 13:42:22.213,2.1210006070682867
2025-03-27 13:42:22.213,2.6444447957929103
2025-03-27 13:42:22.213,0.7005922187174758
2025-03-27 13:42:22.213,-2.0330313053009044
2025-03-27 13:42:22.213,-2.774273105910112
2025-03-27 13:42:22.223,-0.9166203959296665
2025-03-27 13:42:22.223,1.1889390069651313
2025-03-27 13:42:22.223,1.1777231384407634
2025-03-27 13:42:22.223,-0.32095946763787414
2025-03-27 13:42:22.223,-0.6214352086734837
2025-03-27 13:42:22.233,1.1872566155849842
2025-03-27 13:42:22.233,2.633485806400802
2025-03-27 13:42:22.233,0.9881596503944632
2025-03-27 13:42:22.233,-2.753915208466392
2025-03-27 13:42:22.233,-4.5342452714932895
2025-03-27 13:42:22.243,-2.064787312387445
2025-03-27 13:42:22.243,2.3624894365592897
2025-03-27 13:42:22.243,4.617382656923409
2025-03-27 13:42:22.244,3.1729353692610003
2025-03-27 13:42:22.244,-0.15914351017604697
2025-03-27 13:42:22.253,-2.8667539527265764
2025-03-27 13:42:22.253,-3.6242649617896854
2025-03-27 13:42:22.253,-2.1905262680783646
2025-03-27 13:42:22.253,0.6792218307778469
2025-03-27 13:42:22.253,2.992553857036029
2025-03-27 13:42:22.261,2.7892951604597944
2025-03-27 13:42:22.262,0.4089542661027993
2025-03-27 13:42:22.262,-1.5456079533599412
2025-03-27 13:42:22.262,-1.2643351954706397
2025-03-27 13:42:22.262,0.105421479597202
2025-03-27 13:42:22.271,0.24763352815819129
2025-03-27 13:42:22.271,-1.0363885225033242
2025-03-27 13:42:22.272,-1.5806596234590584
2025-03-27 13:42:22.272,0.0761289658221293
2025-03-27 13:42:22.281,2.472944694027743
2025-03-27 13:42:22.281,2.8156564427322466
2025-03-27 13:42:22.281,0.40936526311570515
2025-03-27 13:42:22.281,-2.355120305648745
2025-03-27 13:42:22.282,-2.734566634270753
2025-03-27 13:42:22.291,-0.7558164334060352
2025-03-27 13:42:22.291,1.0871916546489737
2025-03-27 13:42:22.291,1.0593732720045932
2025-03-27 13:42:22.292,0.14958876744749658
2025-03-27 13:42:22.292,0.30478419544225444
2025-03-27 13:42:22.292,1.4315836900575791
2025-03-27 13:42:22.301,1.384184200458858
2025-03-27 13:42:22.301,-0.8761006929467805
2025-03-27 13:42:22.301,-3.3127642067665617
2025-03-27 13:42:22.301,-3.0080817875728827
2025-03-27 13:42:22.311,0.23032911697993722
2025-03-27 13:42:22.311,3.5388928477655828
2025-03-27 13:42:22.311,4.068644737691379
2025-03-27 13:42:22.312,1.4553099310072892
2025-03-27 13:42:22.312,-2.4187115025267256
2025-03-27 13:42:22.321,-4.823141342956274
2025-03-27 13:42:22.322,-3.561556629862202
2025-03-27 13:42:22.322,1.1583079301084753
2025-03-27 13:42:22.322,5.629569610403533
2025-03-27 13:42:22.322,5.238875250270422
2025-03-27 13:42:22.335,-0.3958054501146736
2025-03-27 13:42:22.335,-5.956198288169102
2025-03-27 13:42:22.335,-5.7535460359491655
2025-03-27 13:42:22.335,-0.14317885486585996
2025-03-27 13:42:22.335,4.910688435374526
2025-03-27 13:42:22.341,4.700711799271274
2025-03-27 13:42:22.341,0.6528641555968171
2025-03-27 13:42:22.341,-2.342511466891564
2025-03-27 13:42:22.342,-2.0724345236418515
2025-03-27 13:42:22.342,-0.7375607547204924
2025-03-27 13:42:22.351,-0.8314308282242293
2025-03-27 13:42:22.351,-1.4305744456098288
2025-03-27 13:42:22.351,-0.012106799145304055
2025-03-27 13:42:22.351,3.115494925396447
2025-03-27 13:42:22.351,4.366615395899437
2025-03-27 13:42:22.360,1.37600600924217
2025-03-27 13:42:22.360,-3.5285497451414454
2025-03-27 13:42:22.360,-5.549817776776455
2025-03-27 13:42:22.360,-2.650828519641485
2025-03-27 13:42:22.360,2.378624602725552
2025-03-27 13:42:22.369,4.992821224377326
2025-03-27 13:42:22.369,3.30189211605627
2025-03-27 13:42:22.370,-0.6837637267755601
2025-03-27 13:42:22.370,-3.515918072351142
2025-03-27 13:42:22.379,-3.380341263580714
2025-03-27 13:42:22.379,-0.9011771322437845
2025-03-27 13:42:22.380,2.0864544463230255
2025-03-27 13:42:22.380,3.6613800043496108
2025-03-27 13:42:22.380,2.3272391398258665
2025-03-27 13:42:22.389,-1.7125734986068883
2025-03-27 13:42:22.389,-5.180693212336588
2025-03-27 13:42:22.389,-3.7202441568828606
2025-03-27 13:42:22.389,2.694415310370856
2025-03-27 13:42:22.390,7.699032579570025
2025-03-27 13:42:22.399,4.889897598073115
2025-03-27 13:42:22.399,-3.7945756947539437
2025-03-27 13:42:22.399,-9.111261196777145
2025-03-27 13:42:22.400,-5.146048846959885
2025-03-27 13:42:22.400,3.571109448523431
2025-03-27 13:42:22.409,7.624130024309567
2025-03-27 13:42:22.409,3.7344184650800387
2025-03-27 13:42:22.409,-2.411107885049521
2025-03-27 13:42:22.409,-3.9458686104847045
2025-03-27 13:42:22.409,-0.7046615965834983
2025-03-27 13:42:22.419,1.9216944959730875
2025-03-27 13:42:22.419,0.4252477143079211
2025-03-27 13:42:22.419,-2.7047243570696535
2025-03-27 13:42:22.419,-2.6788325317901847
2025-03-27 13:42:22.419,1.266457794486889
2025-03-27 13:42:22.429,4.793475268785911
2025-03-27 13:42:22.429,3.7081796284592983
2025-03-27 13:42:22.429,-1.0706410992172273
2025-03-27 13:42:22.429,-4.683556119145978
2025-03-27 13:42:22.429,-3.8274104606103676
2025-03-27 13:42:22.439,0.027341354436134696
2025-03-27 13:42:22.439,2.8777381791935395
2025-03-27 13:42:22.439,2.6123642450182687
2025-03-27 13:42:22.439,0.6086269709861258
2025-03-27 13:42:22.439,-0.6015816882422438
2025-03-27 13:42:22.448,-0.37412007852858453
2025-03-27 13:42:22.448,-0.2003219341384318
2025-03-27 13:42:22.448,-1.1785627066760243
2025-03-27 13:42:22.448,-2.1004710671407336
2025-03-27 13:42:22.448,-0.8880749239320825
2025-03-27 13:42:22.457,2.1954859339515425
2025-03-27 13:42:22.458,3.9522678775480333
2025-03-27 13:42:22.458,1.7861633881542067
2025-03-27 13:42:22.458,-2.684441383239783
2025-03-27 13:42:22.458,-4.825975019730056
2025-03-27 13:42:22.468,-2.1211316762667196
2025-03-27 13:42:22.468,2.8173875308669087
2025-03-27 13:42:22.468,5.012744230234378
2025-03-27 13:42:22.468,2.3834888910519467
2025-03-27 13:42:22.468,-2.3997165223927586
2025-03-27 13:42:22.478,-4.926047543245076
2025-03-27 13:42:22.478,-3.1668253129805652
2025-03-27 13:42:22.478,1.1884686658622572
2025-03-27 13:42:22.478,4.545810858621993
2025-03-27 13:42:22.478,4.277551865220127
2025-03-27 13:42:22.488,0.623007183149939
2025-03-27 13:42:22.488,-3.49401443167854
2025-03-27 13:42:22.488,-4.771036036668494
2025-03-27 13:42:22.488,-2.3239220621668135
2025-03-27 13:42:22.499,1.6164289314240534
2025-03-27 13:42:22.500,3.8979360158621823
2025-03-27 13:42:22.500,3.1976477261112333
2025-03-27 13:42:22.500,0.588080737744832
2025-03-27 13:42:22.500,-1.9712418774213958
2025-03-27 13:42:22.508,-3.0750563019328006
2025-03-27 13:42:22.508,-2.245887607849213
2025-03-27 13:42:22.508,0.038058563710912846
2025-03-27 13:42:22.508,2.31923172116165
2025-03-27 13:42:22.508,2.8673515978071995
2025-03-27 13:42:22.517,1.1531397446604448
2025-03-27 13:42:22.517,-1.410191309306949
2025-03-27 13:42:22.517,-2.626373603783052
2025-03-27 13:42:22.517,-1.565768627336701
2025-03-27 13:42:22.518,0.6327649093941171
2025-03-27 13:42:22.527,1.954757586953098
2025-03-27 13:42:22.527,1.4076186182692356
2025-03-27 13:42:22.527,-0.1619535849281985
2025-03-27 13:42:22.528,-1.0510323371409571
2025-03-27 13:42:22.528,-0.5816679279808835
2025-03-27 13:42:22.537,0.1506327627184787
2025-03-27 13:42:22.537,-0.1807616787142423
2025-03-27 13:42:22.537,-1.0448311854899022
2025-03-27 13:42:22.537,-0.5325769352309195
2025-03-27 13:42:22.538,1.6653611781403377
2025-03-27 13:42:22.547,2.9824046213815167
2025-03-27 13:42:22.547,1.0194397101657358
2025-03-27 13:42:22.547,-2.7574586363866698
2025-03-27 13:42:22.547,-4.164712265619549
2025-03-27 13:42:22.548,-1.4024867070372706
2025-03-27 13:42:22.557,2.610180558922646
2025-03-27 13:42:22.557,3.8059054309700233
2025-03-27 13:42:22.557,1.5883843329787743
2025-03-27 13:42:22.557,-1.249422669979152
2025-03-27 13:42:22.557,-2.2481613866966543
2025-03-27 13:42:22.567,-1.422693282750326
2025-03-27 13:42:22.567,-0.07921315105434383
2025-03-27 13:42:22.567,0.8675498972890713
2025-03-27 13:42:22.567,1.01931495234621
2025-03-27 13:42:22.567,0.22636373387453207
2025-03-27 13:42:22.577,-0.9125844393846143
2025-03-27 13:42:22.577,-1.0117633196166795
2025-03-27 13:42:22.577,0.5603351233018746
2025-03-27 13:42:22.577,2.305089281051829
2025-03-27 13:42:22.577,1.8510327969270062
2025-03-27 13:42:22.585,-1.0704790079263184
2025-03-27 13:42:22.585,-3.7165379697518306
2025-03-27 13:42:22.586,-3.119935038087994
2025-03-27 13:42:22.586,0.4994149182405332
2025-03-27 13:42:22.595,3.785251133871843
2025-03-27 13:42:22.595,3.759853442466545
2025-03-27 13:42:22.595,0.7878328589784639
2025-03-27 13:42:22.595,-2.167195630933993
2025-03-27 13:42:22.595,-2.812532998254075
2025-03-27 13:42:22.605,-1.5533854990368132
2025-03-27 13:42:22.605,-0.2910060229354639
2025-03-27 13:42:22.605,0.18874227978347102
2025-03-27 13:42:22.605,0.8594152707349322
2025-03-27 13:42:22.606,2.3237480668697494
2025-03-27 13:42:22.615,3.0235791262701883
2025-03-27 13:42:22.615,0.9163146356596246
2025-03-27 13:42:22.615,-3.1230225757634957
2025-03-27 13:42:22.615,-5.187564530389975
2025-03-27 13:42:22.615,-2.618530700876316
2025-03-27 13:42:22.625,2.5053198947889657
2025-03-27 13:42:22.625,5.338379991069811
2025-03-27 13:42:22.625,3.4384468673048185
2025-03-27 13:42:22.625,-0.9544331509346387
2025-03-27 13:42:22.625,-3.723665146429394
2025-03-27 13:42:22.635,-3.0746918878873988
2025-03-27 13:42:22.635,-0.5850229412645781
2025-03-27 13:42:22.635,1.2780119432415202
2025-03-27 13:42:22.635,1.7264009874098574
2025-03-27 13:42:22.635,1.4968782427402547
2025-03-27 13:42:22.644,1.0162194759740406
2025-03-27 13:42:22.644,-0.10575139419163002
2025-03-27 13:42:22.644,-1.7182296504742707
2025-03-27 13:42:22.644,-2.460365116136386
2025-03-27 13:42:22.644,-1.2472725903336774
2025-03-27 13:42:22.656,1.1486864857132506
2025-03-27 13:42:22.656,2.7695559320722545
2025-03-27 13:42:22.656,2.4236980915762123
2025-03-27 13:42:22.656,0.43495174969231193
2025-03-27 13:42:22.656,-2.016311238068342
2025-03-27 13:42:22.663,-3.4730412552312586
2025-03-27 13:42:22.664,-2.6242403403052106
2025-03-27 13:42:22.664,0.5375364916539117
2025-03-27 13:42:22.664,3.811058373070917
2025-03-27 13:42:22.664,4.210853180582804
2025-03-27 13:42:22.673,1.0414640324434965
2025-03-27 13:42:22.673,-2.9651731048580245
2025-03-27 13:42:22.674,-4.2340929066571595
2025-03-27 13:42:22.674,-1.9186123280138667
2025-03-27 13:42:22.683,1.478723021036296
2025-03-27 13:42:22.683,2.8783571628502216
2025-03-27 13:42:22.684,1.5987028045749911
2025-03-27 13:42:22.684,-0.4510631074440023
2025-03-27 13:42:22.684,-1.148191402979488
2025-03-27 13:42:22.693,-0.3333435337954055
2025-03-27 13:42:22.693,0.4468444833359386
2025-03-27 13:42:22.693,0.021007358754951227
2025-03-27 13:42:22.693,-1.050175320571559
2025-03-27 13:42:22.693,-1.2633915018218624
2025-03-27 13:42:22.703,0.03587374939905938
2025-03-27 13:42:22.703,1.8476141947585658
2025-03-27 13:42:22.703,2.376379973774159
2025-03-27 13:42:22.703,0.743548820355428
2025-03-27 13:42:22.703,-1.9043534622352798
2025-03-27 13:42:22.713,-3.1405618692654658
2025-03-27 13:42:22.713,-1.5965536851760516
2025-03-27 13:42:22.713,1.4098312401398871
2025-03-27 13:42:22.713,3.053663178394781
2025-03-27 13:42:22.714,1.9304155285359732
2025-03-27 13:42:22.723,-0.6154427751657765
2025-03-27 13:42:22.723,-2.193107536247725
2025-03-27 13:42:22.723,-1.8249877731591722
2025-03-27 13:42:22.723,-0.35378460365960723
2025-03-27 13:42:22.723,1.003970542278637
2025-03-27 13:42:22.733,1.6900152232363852
2025-03-27 13:42:22.733,1.5329299608185663
2025-03-27 13:42:22.733,0.3791692845778121
2025-03-27 13:42:22.733,-1.4757777627235809
2025-03-27 13:42:22.733,-2.829148963941817
2025-03-27 13:42:22.743,-2.189236020218507
2025-03-27 13:42:22.743,0.6929839618375703
2025-03-27 13:42:22.743,3.833959855562043
2025-03-27 13:42:22.743,4.144833666146257
2025-03-27 13:42:22.743,0.5192379330819561
2025-03-27 13:42:22.751,-4.1029444739687575
2025-03-27 13:42:22.752,-5.002044156030882
2025-03-27 13:42:22.752,-0.946555050695185
2025-03-27 13:42:22.752,3.7218825898529526
2025-03-27 13:42:22.752,3.764702437538413
2025-03-27 13:42:22.762,-0.5264300293653325
2025-03-27 13:42:22.762,-3.44512635291812
2025-03-27 13:42:22.762,-1.051402679229319
2025-03-27 13:42:22.762,3.5134343961321837
2025-03-27 13:42:22.762,3.793769238549102
2025-03-27 13:42:22.772,-1.488561970897596
2025-03-27 13:42:22.772,-6.193978000793594
2025-03-27 13:42:22.772,-4.177337999900736
2025-03-27 13:42:22.772,2.801448753112615
2025-03-27 13:42:22.781,6.883213895392458
2025-03-27 13:42:22.782,3.5597229445856184
2025-03-27 13:42:22.782,-3.048938502144694
2025-03-27 13:42:22.782,-5.457746476126837
2025-03-27 13:42:22.782,-1.7121492369186364
2025-03-27 13:42:22.794,2.9771758707794196
2025-03-27 13:42:22.794,3.126949917776947
2025-03-27 13:42:22.794,-0.6235248952424521
2025-03-27 13:42:22.794,-3.0773713432910745
2025-03-27 13:42:22.794,-1.2117218522978612
2025-03-27 13:42:22.801,2.4488133768161573
2025-03-27 13:42:22.801,3.33988842569158
2025-03-27 13:42:22.801,0.3521119137459011
2025-03-27 13:42:22.801,-3.1598371485564565
2025-03-27 13:42:22.801,-3.4147649271010008
2025-03-27 13:42:22.811,-0.32531128188361347
2025-03-27 13:42:22.811,2.690908519960476
2025-03-27 13:42:22.811,2.668259571941164
2025-03-27 13:42:22.811,0.3070104429033478
2025-03-27 13:42:22.812,-1.2416736186494313
2025-03-27 13:42:22.821,-0.5497119822068487
2025-03-27 13:42:22.821,0.34906831949834255
2025-03-27 13:42:22.821,-0.8153132330874135
2025-03-27 13:42:22.821,-2.6814482420572654
2025-03-27 13:42:22.821,-1.5657190324148933
2025-03-27 13:42:22.831,3.046179240340454
2025-03-27 13:42:22.831,6.221801075757333
2025-03-27 13:42:22.831,2.8049365939329656
2025-03-27 13:42:22.831,-5.310036965898594
2025-03-27 13:42:22.831,-9.487291447357102
2025-03-27 13:42:22.841,-3.730847084546723
2025-03-27 13:42:22.841,7.260012911256705
2025-03-27 13:42:22.841,11.939130000524672
2025-03-27 13:42:22.841,4.532662023587217
2025-03-27 13:42:22.841,-7.940508959005994
2025-03-27 13:42:22.849,-12.786636776854538
2025-03-27 13:42:22.850,-5.1790731284897165
2025-03-27 13:42:22.850,6.877996261516779
2025-03-27 13:42:22.850,11.372142166357749
2025-03-27 13:42:22.859,4.867301853214622
2025-03-27 13:42:22.859,-4.815006673886113
2025-03-27 13:42:22.859,-7.936053102555436
2025-03-27 13:42:22.859,-3.035556602327612
2025-03-27 13:42:22.860,3.063411922878408
2025-03-27 13:42:22.869,3.9628512752623166
2025-03-27 13:42:22.869,0.2786485063896674
2025-03-27 13:42:22.869,-2.566634130673127
2025-03-27 13:42:22.869,-1.2351346361631945
2025-03-27 13:42:22.870,2.1946283443179704
2025-03-27 13:42:22.879,3.254279665618022
2025-03-27 13:42:22.879,0.3074293338115369
2025-03-27 13:42:22.879,-3.6179359726888523
2025-03-27 13:42:22.879,-4.091884596081725
2025-03-27 13:42:22.879,-0.2528429044737787
2025-03-27 13:42:22.889,3.944547047428897
2025-03-27 13:42:22.889,4.018034605339554
2025-03-27 13:42:22.889,0.09145598257832055
2025-03-27 13:42:22.889,-3.365348093595863
2025-03-27 13:42:22.889,-2.9146216969467442
2025-03-27 13:42:22.899,0.1554361589591092
2025-03-27 13:42:22.899,2.1403426790349283
2025-03-27 13:42:22.899,1.534482112529022
2025-03-27 13:42:22.899,-0.058188775571171
2025-03-27 13:42:22.899,-0.8271117958249881
2025-03-27 13:42:22.909,-0.7168445261636089
2025-03-27 13:42:22.909,-0.3725413754343674
2025-03-27 13:42:22.909,0.15624544006233837
2025-03-27 13:42:22.909,0.7965976090860489
2025-03-27 13:42:22.909,0.7415076204152706
2025-03-27 13:42:22.919,-0.41735312028450655
2025-03-27 13:42:22.919,-1.47152938201985
2025-03-27 13:42:22.919,-0.8230078548616672
2025-03-27 13:42:22.919,1.1435652416849218
2025-03-27 13:42:22.920,2.117696520189698
2025-03-27 13:42:22.929,0.7213996735577186
2025-03-27 13:42:22.929,-1.5889759817587334
2025-03-27 13:42:22.929,-2.253715192686636
2025-03-27 13:42:22.930,-0.7006001988991568
2025-03-27 13:42:22.930,1.2710905166675268
2025-03-27 13:42:22.939,1.9366196761996797
2025-03-27 13:42:22.939,1.247010136100114
2025-03-27 13:42:22.939,-0.11780356505100234
2025-03-27 13:42:22.939,-1.7563467593286388
2025-03-27 13:42:22.939,-2.782901880669657
2025-03-27 13:42:22.949,-1.558668622509643
2025-03-27 13:42:22.949,2.0581024643067103
2025-03-27 13:42:22.949,4.912061984954739
2025-03-27 13:42:22.949,3.2288383466512025
2025-03-27 13:42:22.949,-2.396534681740311
2025-03-27 13:42:22.959,-6.458561705445137
2025-03-27 13:42:22.959,-4.330388627685891
2025-03-27 13:42:22.959,2.192685377239977
2025-03-27 13:42:22.959,6.5213884257736945
2025-03-27 13:42:22.959,4.412425073339454
2025-03-27 13:42:22.967,-1.5830228044014056
2025-03-27 13:42:22.968,-5.208489099249292
2025-03-27 13:42:22.968,-3.321603579877496
2025-03-27 13:42:22.968,1.1809735018649796
2025-03-27 13:42:22.968,3.202245255795553
2025-03-27 13:42:22.978,1.3066422890861968
2025-03-27 13:42:22.978,-1.1942065990294668
2025-03-27 13:42:22.978,-0.9354078187732284
2025-03-27 13:42:22.978,1.0989864328626882
2025-03-27 13:42:22.978,1.2117098569050557
2025-03-27 13:42:22.987,-1.4809681378456843
2025-03-27 13:42:22.988,-3.2902800164459194
2025-03-27 13:42:22.988,-0.857582171283681
2025-03-27 13:42:22.988,3.6877494166311364
2025-03-27 13:42:22.997,4.707821159221585
2025-03-27 13:42:22.997,0.20479290854266588
2025-03-27 13:42:22.998,-5.068197550124695
2025-03-27 13:42:22.998,-4.935815249836132
2025-03-27 13:42:22.998,0.7114321212287085
2025-03-27 13:42:23.007,5.475934712350746
2025-03-27 13:42:23.007,3.8698743518006844
2025-03-27 13:42:23.007,-2.1250026600616234
2025-03-27 13:42:23.008,-5.324489269171644
2025-03-27 13:42:23.008,-1.9519431887086731
2025-03-27 13:42:23.017,3.7860514168659027
2025-03-27 13:42:23.017,4.886434077273136
2025-03-27 13:42:23.017,0.13501969735478891
2025-03-27 13:42:23.017,-4.645662605039363
2025-03-27 13:42:23.018,-4.038391800735504
2025-03-27 13:42:23.027,0.6042168610662444
2025-03-27 13:42:23.027,3.7242338577611775
2025-03-27 13:42:23.028,2.7547959395610553
2025-03-27 13:42:23.028,0.15573594185838904
2025-03-27 13:42:23.028,-1.2113251250835757
2025-03-27 13:42:23.037,-1.566729197858219
2025-03-27 13:42:23.037,-1.9571095831720517
2025-03-27 13:42:23.037,-1.3522680832570562
2025-03-27 13:42:23.037,1.328087813413992
2025-03-27 13:42:23.038,3.789082869317499
2025-03-27 13:42:23.047,2.359568457335159
2025-03-27 13:42:23.047,-2.36293137743366
2025-03-27 13:42:23.047,-4.921210316029867
2025-03-27 13:42:23.047,-1.6651274861726415
2025-03-27 13:42:23.048,3.9836714587720334
2025-03-27 13:42:23.057,5.265753103631385
2025-03-27 13:42:23.057,0.41795854865863497
2025-03-27 13:42:23.057,-5.060771924187801
2025-03-27 13:42:23.057,-5.010830396205327
2025-03-27 13:42:23.057,0.28452654670957617
2025-03-27 13:42:23.067,4.905937858464214
2025-03-27 13:42:23.067,4.288498395448264
2025-03-27 13:42:23.067,-0.20285677740738622
2025-03-27 13:42:23.067,-3.6644981113830126
2025-03-27 13:42:23.067,-3.172890604757965
2025-03-27 13:42:23.077,-0.14489737835748465
2025-03-27 13:42:23.077,2.051959503724965
2025-03-27 13:42:23.077,1.7709008658684267
2025-03-27 13:42:23.077,0.187322445495426
2025-03-27 13:42:23.077,-0.6824657905387391
2025-03-27 13:42:23.086,-0.35437518674819996
2025-03-27 13:42:23.086,0.07598757516000197
2025-03-27 13:42:23.086,-0.16861291731864045
2025-03-27 13:42:23.086,-0.5383164627085639
2025-03-27 13:42:23.096,-0.29029159258770687
2025-03-27 13:42:23.096,0.2785128056708966
2025-03-27 13:42:23.096,0.4383916118862447
2025-03-27 13:42:23.096,0.25071428268322343
2025-03-27 13:42:23.096,0.29977490942168844
2025-03-27 13:42:23.096,0.5001714664998612
2025-03-27 13:42:23.108,0.11434197220495325
2025-03-27 13:42:23.109,-0.929884040664059
2025-03-27 13:42:23.109,-1.517917215572637
2025-03-27 13:42:23.109,-0.64942549802716
2025-03-27 13:42:23.119,1.061011103144775
2025-03-27 13:42:23.119,1.8085466698978205
2025-03-27 13:42:23.119,0.7178340019513332
2025-03-27 13:42:23.119,-0.922787232525612
2025-03-27 13:42:23.119,-1.1400651038164582
2025-03-27 13:42:23.125,0.15785874717240805
2025-03-27 13:42:23.125,0.9882747340642873
2025-03-27 13:42:23.126,0.0329255053215699
2025-03-27 13:42:23.126,-1.3806475230593211
2025-03-27 13:42:23.126,-1.0540519650265046
2025-03-27 13:42:23.135,0.8552512108081842
2025-03-27 13:42:23.135,1.8143342138539573
2025-03-27 13:42:23.135,0.38815749708024316
2025-03-27 13:42:23.136,-1.5556092037974107
2025-03-27 13:42:23.136,-1.1738032690828306
2025-03-27 13:42:23.145,1.3612456002004785
2025-03-27 13:42:23.145,2.618023005202477
2025-03-27 13:42:23.145,0.22704675926100196
2025-03-27 13:42:23.145,-3.5425647724465277
2025-03-27 13:42:23.146,-3.970012313751791
2025-03-27 13:42:23.155,0.24285605833109133
2025-03-27 13:42:23.155,4.76148241621451
2025-03-27 13:42:23.155,4.461420867866149
2025-03-27 13:42:23.155,-0.3080678455013493
2025-03-27 13:42:23.156,-4.052317878747896
2025-03-27 13:42:23.165,-2.912240567163708
2025-03-27 13:42:23.165,0.7332278495202537
2025-03-27 13:42:23.165,1.8215625327437985
2025-03-27 13:42:23.165,-0.49356519069546845
2025-03-27 13:42:23.166,-1.9543173155000637
2025-03-27 13:42:23.175,0.4948301494973246
2025-03-27 13:42:23.175,3.989307619819954
2025-03-27 13:42:23.175,3.3528877498637963
2025-03-27 13:42:23.175,-1.6878946763774243
2025-03-27 13:42:23.175,-5.553352877347727
2025-03-27 13:42:23.185,-3.6883615813960593
2025-03-27 13:42:23.185,1.692539483394445
2025-03-27 13:42:23.185,4.485447548689724
2025-03-27 13:42:23.185,2.2748332361651022
2025-03-27 13:42:23.185,-1.2784412205852613
2025-03-27 13:42:23.195,-1.8082933108511767
2025-03-27 13:42:23.195,0.29219591371014647
2025-03-27 13:42:23.195,1.2656777932237697
2025-03-27 13:42:23.195,-0.5279644637606467
2025-03-27 13:42:23.195,-2.6356466186939724
2025-03-27 13:42:23.205,-2.0075489942233236
2025-03-27 13:42:23.205,1.1149718830318422
2025-03-27 13:42:23.205,3.5617097051919653
2025-03-27 13:42:23.205,2.8667330116478698
2025-03-27 13:42:23.205,-0.1720824572791551
2025-03-27 13:42:23.215,-2.60595569526246
2025-03-27 13:42:23.215,-2.575439558220935
2025-03-27 13:42:23.215,-0.939634559097018
2025-03-27 13:42:23.215,0.35570720176238535
2025-03-27 13:42:23.215,0.7577128652664135
2025-03-27 13:42:23.225,1.1448707107325666
2025-03-27 13:42:23.225,1.7682944411602701
2025-03-27 13:42:23.225,1.4739431568823527
2025-03-27 13:42:23.225,-0.4550401986845469
2025-03-27 13:42:23.225,-2.60728082865772
2025-03-27 13:42:23.235,-2.691685204574496
2025-03-27 13:42:23.235,-0.3461250198979826
2025-03-27 13:42:23.235,2.192494325435653
2025-03-27 13:42:23.235,2.507577172101354
2025-03-27 13:42:23.235,0.5683467672903209
2025-03-27 13:42:23.244,-1.4665072075479593
2025-03-27 13:42:23.244,-1.6787517858211405
2025-03-27 13:42:23.244,-0.21904309567696298
2025-03-27 13:42:23.244,1.1813553589611596
2025-03-27 13:42:23.244,1.1342403073680012
2025-03-27 13:42:23.253,-0.12469747811288583
2025-03-27 13:42:23.254,-1.2140827050648122
2025-03-27 13:42:23.254,-1.113625944271964
2025-03-27 13:42:23.254,-0.05396171709559401
2025-03-27 13:42:23.263,0.9739094986450239
2025-03-27 13:42:23.263,1.2458064837515723
2025-03-27 13:42:23.264,0.6909731565593348
2025-03-27 13:42:23.264,-0.34944427799945516
2025-03-27 13:42:23.264,-1.2531543159734928
2025-03-27 13:42:23.273,-1.2123395037133116
2025-03-27 13:42:23.274,0.035538579851898545
2025-03-27 13:42:23.274,1.3855520224730666
2025-03-27 13:42:23.274,1.1174037741144152
2025-03-27 13:42:23.274,-0.839724955677334
2025-03-27 13:42:23.283,-2.0773581828857064
2025-03-27 13:42:23.284,-0.40845809447829445
2025-03-27 13:42:23.284,2.7201767819207947
2025-03-27 13:42:23.284,3.1831891737843216
2025-03-27 13:42:23.284,-0.5507404521484012
2025-03-27 13:42:23.293,-4.534398085248254
2025-03-27 13:42:23.293,-3.6766104703580673
2025-03-27 13:42:23.294,1.5045167704733264
2025-03-27 13:42:23.294,4.902523695340024
2025-03-27 13:42:23.294,2.43631201999004
2025-03-27 13:42:23.303,-2.5475291414170713
2025-03-27 13:42:23.304,-3.5627127373838614
2025-03-27 13:42:23.304,0.4933963763607679
2025-03-27 13:42:23.304,3.8945601787246984
2025-03-27 13:42:23.304,1.653482285196821
2025-03-27 13:42:23.313,-3.803252074813199
2025-03-27 13:42:23.314,-5.450716057484281
2025-03-27 13:42:23.314,-0.42473553602371245
2025-03-27 13:42:23.314,6.094249863895988
2025-03-27 13:42:23.314,6.637325339634677
2025-03-27 13:42:23.323,0.11970772828604198
2025-03-27 13:42:23.323,-6.701830878039998
2025-03-27 13:42:23.323,-6.724828444520048
2025-03-27 13:42:23.323,-0.2809050113793189
2025-03-27 13:42:23.324,5.660780012159167
2025-03-27 13:42:23.333,5.469941708902648
2025-03-27 13:42:23.333,0.47439206483236535
2025-03-27 13:42:23.333,-3.629045173032568
2025-03-27 13:42:23.333,-3.3952319572945426
2025-03-27 13:42:23.334,-0.4270675830005124
2025-03-27 13:42:23.343,1.6613010104358514
2025-03-27 13:42:23.343,1.4000806881272796
2025-03-27 13:42:23.343,0.12902697204049152
2025-03-27 13:42:23.343,-0.4318993342228138
2025-03-27 13:42:23.343,-0.15554296043184418
2025-03-27 13:42:23.353,0.004672697743678851
2025-03-27 13:42:23.353,-0.2922244022976529
2025-03-27 13:42:23.353,-0.3309043082777912
2025-03-27 13:42:23.353,0.3973220671997468
2025-03-27 13:42:23.353,1.1432880303967359
2025-03-27 13:42:23.362,0.6830529266138357
2025-03-27 13:42:23.362,-0.9905081298604882
2025-03-27 13:42:23.362,-2.291217797801425
2025-03-27 13:42:23.362,-1.5764390128303063
2025-03-27 13:42:23.362,1.0208351067081645
2025-03-27 13:42:23.371,3.3446732305523112
2025-03-27 13:42:23.372,2.988385806417074
2025-03-27 13:42:23.372,-0.2690558664006419
2025-03-27 13:42:23.372,-3.7419468285314865
2025-03-27 13:42:23.382,-4.103366141757151
2025-03-27 13:42:23.382,-0.7791469457648481
2025-03-27 13:42:23.382,3.1959449149190635
2025-03-27 13:42:23.382,4.131362302594325
2025-03-27 13:42:23.382,1.4140613021782484
2025-03-27 13:42:23.382,-2.037282211479412
2025-03-27 13:42:23.392,-3.000128493555392
2025-03-27 13:42:23.392,-1.1760559361437313
2025-03-27 13:42:23.392,1.0032482760492583
2025-03-27 13:42:23.392,1.3358598585083288
2025-03-27 13:42:23.392,0.06473463114348885
2025-03-27 13:42:23.403,-0.7894780082206293
2025-03-27 13:42:23.403,0.11164991680447109
2025-03-27 13:42:23.403,1.756384169288034
2025-03-27 13:42:23.403,1.6664602818703453
2025-03-27 13:42:23.403,-1.118925186045799
2025-03-27 13:42:23.413,-4.015920243542759
2025-03-27 13:42:23.413,-3.0774416372759035
2025-03-27 13:42:23.413,1.940030002492148
2025-03-27 13:42:23.413,5.932292378211922
2025-03-27 13:42:23.413,3.8161043723426604
2025-03-27 13:42:23.425,-2.783597493433085
2025-03-27 13:42:23.425,-6.558392031986347
2025-03-27 13:42:23.425,-3.0808775967015056
2025-03-27 13:42:23.425,3.6172342965646815
2025-03-27 13:42:23.425,5.790174153238775
2025-03-27 13:42:23.432,1.241473718849317
2025-03-27 13:42:23.432,-4.333305114708785
2025-03-27 13:42:23.432,-4.430898325611519
2025-03-27 13:42:23.432,0.6853793763432208
2025-03-27 13:42:23.432,4.770427253341043
2025-03-27 13:42:23.442,3.193082083838309
2025-03-27 13:42:23.442,-1.906989212877831
2025-03-27 13:42:23.442,-4.6009408050374
2025-03-27 13:42:23.442,-2.185007053765894
2025-03-27 13:42:23.451,2.1533998891134236
2025-03-27 13:42:23.451,3.5966149546503883
2025-03-27 13:42:23.452,1.21934750677232
2025-03-27 13:42:23.452,-1.668256724691234
2025-03-27 13:42:23.452,-1.9800100205453142
2025-03-27 13:42:23.461,-0.2242850234547577
2025-03-27 13:42:23.462,0.9399464375300922
2025-03-27 13:42:23.462,0.36656270826918996
2025-03-27 13:42:23.462,-0.5666024268009533
2025-03-27 13:42:23.462,-0.3547045962843976
2025-03-27 13:42:23.471,0.5693819402128747
2025-03-27 13:42:23.471,0.7893908276401393
2025-03-27 13:42:23.471,0.051874337850132415
2025-03-27 13:42:23.472,-0.5691925712642135
2025-03-27 13:42:23.472,-0.3701675401757626
2025-03-27 13:42:23.481,0.13552924965955326
2025-03-27 13:42:23.481,0.19134750345300122
2025-03-27 13:42:23.481,-0.2040849016017865
2025-03-27 13:42:23.482,-0.5526905662807265
2025-03-27 13:42:23.482,-0.460244616387732
2025-03-27 13:42:23.491,0.24699081289217578
2025-03-27 13:42:23.491,1.3086349392889831
2025-03-27 13:42:23.491,1.6911790737702923
2025-03-27 13:42:23.492,0.36043356375724667
2025-03-27 13:42:23.492,-2.039174825664325
2025-03-27 13:42:23.501,-3.0864621251344
2025-03-27 13:42:23.501,-1.1204503904242202
2025-03-27 13:42:23.501,2.375263189613193
2025-03-27 13:42:23.501,3.8345047929224303
2025-03-27 13:42:23.501,1.4350380149643367
2025-03-27 13:42:23.511,-2.5217866434109406
2025-03-27 13:42:23.511,-3.7462870409621987
2025-03-27 13:42:23.511,-0.7859905146157935
2025-03-27 13:42:23.511,2.915980804176746
2025-03-27 13:42:23.512,2.8126519123521887
2025-03-27 13:42:23.521,-1.0305597374236772
2025-03-27 13:42:23.521,-3.5786935275516325
2025-03-27 13:42:23.521,-1.1252711178230048
2025-03-27 13:42:23.522,3.4556215317298413
2025-03-27 13:42:23.522,3.949506715040992
2025-03-27 13:42:23.531,-0.909288162677614
2025-03-27 13:42:23.531,-5.164483748255245
2025-03-27 13:42:23.531,-3.204204517867329
2025-03-27 13:42:23.531,2.628886565238398
2025-03-27 13:42:23.531,4.9886023254962115
2025-03-27 13:42:23.541,1.250491299874009
2025-03-27 13:42:23.541,-3.3424728476229673
2025-03-27 13:42:23.541,-3.138687752941742
2025-03-27 13:42:23.541,0.6655014309278824
2025-03-27 13:42:23.541,2.686190079290819
2025-03-27 13:42:23.550,1.0430335914609472
2025-03-27 13:42:23.550,-1.0646432700476494
2025-03-27 13:42:23.550,-0.9126838243985613
2025-03-27 13:42:23.550,0.15478258703756015
2025-03-27 13:42:23.550,-0.17534454065299993
2025-03-27 13:42:23.560,-1.1597874291218082
2025-03-27 13:42:23.560,-0.3951635467608555
2025-03-27 13:42:23.560,1.8898061338154142
2025-03-27 13:42:23.560,2.5405562960545454
2025-03-27 13:42:23.560,-0.021033459095645468
2025-03-27 13:42:23.570,-2.9770090824933213
2025-03-27 13:42:23.570,-2.4660377950772285
2025-03-27 13:42:23.570,1.079329019914847
2025-03-27 13:42:23.570,3.1109302060036437
2025-03-27 13:42:23.570,0.9143307980076464
2025-03-27 13:42:23.580,-2.607294824969382
