timestamp,bandpass_and_notch
2025-03-30 17:21:22.472,-0.11382623406958936
2025-03-30 17:21:22.473,5.793290559639076
2025-03-30 17:21:22.473,6.975434357411908
2025-03-30 17:21:22.473,-3.683051793246807
2025-03-30 17:21:22.481,-22.015079339212125
2025-03-30 17:21:22.482,-25.951701586587195
2025-03-30 17:21:22.482,-0.15888306550479148
2025-03-30 17:21:22.482,35.23128677520251
2025-03-30 17:21:22.482,39.275764140066904
2025-03-30 17:21:22.490,0.017321438731318528
2025-03-30 17:21:22.490,-44.33392666894389
2025-03-30 17:21:22.490,-45.88279536325697
2025-03-30 17:21:22.491,-2.1365124947538106
2025-03-30 17:21:22.498,41.63296991743033
2025-03-30 17:21:22.498,43.801037325439
2025-03-30 17:21:22.498,8.786698947371539
2025-03-30 17:21:22.499,-24.92175971432332
2025-03-30 17:21:22.499,-29.06765863118378
2025-03-30 17:21:22.508,-9.632918480658963
2025-03-30 17:21:22.508,8.806165419409288
2025-03-30 17:21:22.508,12.100422559032994
2025-03-30 17:21:22.509,6.099185642672117
2025-03-30 17:21:22.509,2.507258023393668
2025-03-30 17:21:22.518,2.750155721027788
2025-03-30 17:21:22.518,-0.5594276584851445
2025-03-30 17:21:22.518,-9.04337526228046
2025-03-30 17:21:22.519,-12.688247653164144
2025-03-30 17:21:22.519,-2.939904980908393
2025-03-30 17:21:22.528,12.361154781577067
2025-03-30 17:21:22.528,15.173634143411114
2025-03-30 17:21:22.528,0.023103854872895013
2025-03-30 17:21:22.528,-16.36850617497505
2025-03-30 17:21:22.536,-13.992831790052355
2025-03-30 17:21:22.536,5.321764198964334
2025-03-30 17:21:22.536,19.099679131358084
2025-03-30 17:21:22.537,11.228394664490299
2025-03-30 17:21:22.537,-8.913937047932006
2025-03-30 17:21:22.546,-18.53079276208977
2025-03-30 17:21:22.546,-8.419624623828941
2025-03-30 17:21:22.546,8.354971940310833
2025-03-30 17:21:22.546,14.10862335259242
2025-03-30 17:21:22.556,6.227140724850832
2025-03-30 17:21:22.556,-3.9135961512600907
2025-03-30 17:21:22.556,-6.8047272419628015
2025-03-30 17:21:22.556,-3.5470812364854147
2025-03-30 17:21:22.556,-0.10831559049457229
2025-03-30 17:21:22.566,0.8023832206375116
2025-03-30 17:21:22.566,0.3045380521326081
2025-03-30 17:21:22.566,0.229784064862669
2025-03-30 17:21:22.566,1.9046928047247578
2025-03-30 17:21:22.567,4.8250976067084315
2025-03-30 17:21:22.576,4.72115983452146
2025-03-30 17:21:22.576,-2.7158732210247387
2025-03-30 17:21:22.576,-12.999879476677844
2025-03-30 17:21:22.576,-13.004659922241306
2025-03-30 17:21:22.576,3.258254622502144
2025-03-30 17:21:22.584,21.85682098739645
2025-03-30 17:21:22.584,20.909821540323648
2025-03-30 17:21:22.584,-2.8270048654436932
2025-03-30 17:21:22.584,-26.56775802782334
2025-03-30 17:21:22.594,-25.503574697198683
2025-03-30 17:21:22.594,-0.5305636665423017
2025-03-30 17:21:22.594,23.143036714806538
2025-03-30 17:21:22.594,23.96672087617128
2025-03-30 17:21:22.594,5.432146029765744
2025-03-30 17:21:22.604,-11.954794942857646
2025-03-30 17:21:22.604,-14.894428905487818
2025-03-30 17:21:22.604,-7.867819681970126
2025-03-30 17:21:22.604,-1.500429770974474
2025-03-30 17:21:22.604,1.5664029932022683
2025-03-30 17:21:22.613,5.339368288305863
2025-03-30 17:21:22.614,10.073980557133167
2025-03-30 17:21:22.614,9.81948536472111
2025-03-30 17:21:22.614,0.8701632952626657
2025-03-30 17:21:22.614,-11.068827062838958
2025-03-30 17:21:22.622,-14.84246645749246
2025-03-30 17:21:22.622,-5.537613782289126
2025-03-30 17:21:22.622,8.570823140129049
2025-03-30 17:21:22.622,13.133499380669422
2025-03-30 17:21:22.632,3.628580998667916
2025-03-30 17:21:22.632,-8.131682382683215
2025-03-30 17:21:22.632,-7.488378057271267
2025-03-30 17:21:22.632,4.263756615079246
2025-03-30 17:21:22.632,10.779562864208536
2025-03-30 17:21:22.640,2.011039160288614
2025-03-30 17:21:22.640,-11.90834716594959
2025-03-30 17:21:22.641,-13.316824790847727
2025-03-30 17:21:22.641,0.4073809903797394
2025-03-30 17:21:22.641,13.724110574747193
2025-03-30 17:21:22.650,12.22320361354951
2025-03-30 17:21:22.650,-0.7530826651470363
2025-03-30 17:21:22.650,-9.74605699714601
2025-03-30 17:21:22.650,-6.31691403489276
2025-03-30 17:21:22.660,2.2201285508221034
2025-03-30 17:21:22.660,3.90721786092883
2025-03-30 17:21:22.660,-2.246369241456149
2025-03-30 17:21:22.660,-6.00359397795324
2025-03-30 17:21:22.660,-0.2694138149531835
2025-03-30 17:21:22.668,9.155505684615056
2025-03-30 17:21:22.668,10.61613721543185
2025-03-30 17:21:22.668,0.8361081473023964
2025-03-30 17:21:22.669,-11.09263511519567
2025-03-30 17:21:22.678,-13.617514556755369
2025-03-30 17:21:22.678,-4.451419816104297
2025-03-30 17:21:22.678,7.882966042952782
2025-03-30 17:21:22.678,12.78091273754202
2025-03-30 17:21:22.678,7.310677790559794
2025-03-30 17:21:22.688,-2.028895709779607
2025-03-30 17:21:22.688,-6.832691647133543
2025-03-30 17:21:22.688,-5.541106509803093
2025-03-30 17:21:22.688,-3.321696933991788
2025-03-30 17:21:22.688,-3.3154334001682626
2025-03-30 17:21:22.697,-1.5970995045901608
2025-03-30 17:21:22.698,5.844947389050177
2025-03-30 17:21:22.698,13.628279774852857
2025-03-30 17:21:22.698,10.683027058531826
2025-03-30 17:21:22.698,-4.7523261679852595
2025-03-30 17:21:22.706,-18.88792310152756
2025-03-30 17:21:22.706,-16.212207072265894
2025-03-30 17:21:22.706,1.769750144607142
2025-03-30 17:21:22.706,16.789359897472988
2025-03-30 17:21:22.716,14.301973778099715
2025-03-30 17:21:22.716,-0.3559266778511526
2025-03-30 17:21:22.716,-9.788937613537252
2025-03-30 17:21:22.716,-5.90874735295702
2025-03-30 17:21:22.716,2.1876120852055507
2025-03-30 17:21:22.726,2.546817863430283
2025-03-30 17:21:22.726,-3.4474317050206253
2025-03-30 17:21:22.726,-4.742542569036597
2025-03-30 17:21:22.726,2.1650931432943596
2025-03-30 17:21:22.726,7.710317135811034
2025-03-30 17:21:22.736,3.5491676767853564
2025-03-30 17:21:22.736,-4.526025458795688
2025-03-30 17:21:22.736,-4.7425405674335055
2025-03-30 17:21:22.736,2.922418337448746
2025-03-30 17:21:22.736,5.949423540882801
2025-03-30 17:21:22.746,-2.3440122802124965
2025-03-30 17:21:22.746,-11.559619246307737
2025-03-30 17:21:22.746,-7.341700317644768
2025-03-30 17:21:22.746,8.225178160002761
2025-03-30 17:21:22.746,17.25319571700703
2025-03-30 17:21:22.754,8.146114058266708
2025-03-30 17:21:22.754,-9.47603214234393
2025-03-30 17:21:22.754,-16.462583930547485
2025-03-30 17:21:22.754,-7.020053186011184
2025-03-30 17:21:22.764,6.257232249471647
2025-03-30 17:21:22.764,9.610190715287128
2025-03-30 17:21:22.764,3.68361997020776
2025-03-30 17:21:22.764,-1.2559029241718624
2025-03-30 17:21:22.764,-0.6537248629267214
2025-03-30 17:21:22.772,0.2161462340443493
2025-03-30 17:21:22.772,-3.1123102087423726
2025-03-30 17:21:22.772,-6.1355589116626135
2025-03-30 17:21:22.773,-2.0280961925615224
2025-03-30 17:21:22.773,6.6468108270433275
2025-03-30 17:21:22.782,8.98262730292683
2025-03-30 17:21:22.782,0.03586996133135667
2025-03-30 17:21:22.782,-10.51849862529384
2025-03-30 17:21:22.782,-8.809647030444076
2025-03-30 17:21:22.792,5.1462358213110155
2025-03-30 17:21:22.792,15.146854669532607
2025-03-30 17:21:22.792,7.542501021704416
2025-03-30 17:21:22.792,-10.890631957999856
2025-03-30 17:21:22.792,-19.13242085530329
2025-03-30 17:21:22.800,-6.537370161761801
2025-03-30 17:21:22.800,13.808155274004525
2025-03-30 17:21:22.800,20.038485419864532
2025-03-30 17:21:22.801,6.575168062744677
2025-03-30 17:21:22.810,-11.225485874050815
2025-03-30 17:21:22.810,-16.42986317634876
2025-03-30 17:21:22.810,-7.951386869838263
2025-03-30 17:21:22.810,3.272913976977882
2025-03-30 17:21:22.810,9.088912905405737
2025-03-30 17:21:22.820,9.464485607980299
2025-03-30 17:21:22.820,6.3359351296030955
2025-03-30 17:21:22.820,-0.38047159994409596
2025-03-30 17:21:22.820,-8.88627988384743
2025-03-30 17:21:22.820,-12.787506701888617
2025-03-30 17:21:22.830,-6.868530211057024
2025-03-30 17:21:22.830,5.360087974205908
2025-03-30 17:21:22.830,13.423531154885152
2025-03-30 17:21:22.830,10.320214312531997
2025-03-30 17:21:22.830,-0.3807486765206669
2025-03-30 17:21:22.840,-8.799005580233908
2025-03-30 17:21:22.840,-8.927330969247532
2025-03-30 17:21:22.840,-3.333468256548028
2025-03-30 17:21:22.840,1.625666455542983
2025-03-30 17:21:22.840,3.240193204223981
2025-03-30 17:21:22.848,3.707457218965992
2025-03-30 17:21:22.848,4.828187836638515
2025-03-30 17:21:22.848,4.2860709884942265
2025-03-30 17:21:22.849,-0.7453172017790287
2025-03-30 17:21:22.858,-7.70896959456485
2025-03-30 17:21:22.858,-9.75234941022254
2025-03-30 17:21:22.858,-3.6880465822579165
2025-03-30 17:21:22.858,5.518123756729886
2025-03-30 17:21:22.859,9.997332647837078
2025-03-30 17:21:22.866,7.164294075182669
2025-03-30 17:21:22.866,0.7249172232959953
2025-03-30 17:21:22.866,-4.896346588204644
2025-03-30 17:21:22.867,-7.888706710124035
2025-03-30 17:21:22.876,-7.267282260191295
2025-03-30 17:21:22.876,-2.0664079357467604
2025-03-30 17:21:22.876,5.558164215930957
2025-03-30 17:21:22.876,9.547802603558944
2025-03-30 17:21:22.877,5.840760969236003
2025-03-30 17:21:22.885,-1.9390600899811303
2025-03-30 17:21:22.886,-5.941874320999431
2025-03-30 17:21:22.886,-3.4388113547313552
2025-03-30 17:21:22.886,0.22353337617528668
2025-03-30 17:21:22.886,-0.6014024534132164
2025-03-30 17:21:22.894,-3.72622496726812
2025-03-30 17:21:22.894,-2.1448688150971646
2025-03-30 17:21:22.894,5.348026996024593
2025-03-30 17:21:22.895,10.702701520860582
2025-03-30 17:21:22.904,6.150336336244001
2025-03-30 17:21:22.904,-5.337743483292582
2025-03-30 17:21:22.904,-12.704069885533368
2025-03-30 17:21:22.904,-9.323141033941143
2025-03-30 17:21:22.904,0.5603435629246676
2025-03-30 17:21:22.914,8.284291341246126
2025-03-30 17:21:22.914,9.854645964167151
2025-03-30 17:21:22.914,6.555208319579234
2025-03-30 17:21:22.914,0.21082827006735533
2025-03-30 17:21:22.914,-7.498233788453684
2025-03-30 17:21:22.924,-12.141067696343075
2025-03-30 17:21:22.924,-8.312103289390818
2025-03-30 17:21:22.924,3.3075313891888443
2025-03-30 17:21:22.924,13.404669935420019
2025-03-30 17:21:22.924,12.075118143909377
2025-03-30 17:21:22.932,-0.05426785322788774
2025-03-30 17:21:22.932,-10.947833175846018
2025-03-30 17:21:22.932,-9.670819421536663
2025-03-30 17:21:22.932,0.8805662877135132
2025-03-30 17:21:22.942,7.157358279902197
2025-03-30 17:21:22.942,1.9954233076425978
2025-03-30 17:21:22.942,-5.855265817001327
2025-03-30 17:21:22.942,-3.579298165351303
2025-03-30 17:21:22.943,7.272094835842707
2025-03-30 17:21:22.950,11.496917152549981
2025-03-30 17:21:22.950,0.7774602052303526
2025-03-30 17:21:22.950,-13.505524752443037
2025-03-30 17:21:22.951,-13.752256107150636
2025-03-30 17:21:22.951,1.1181901928440392
2025-03-30 17:21:22.960,13.938743886788581
2025-03-30 17:21:22.960,10.826560120855094
2025-03-30 17:21:22.960,-2.4476704673546523
2025-03-30 17:21:22.960,-9.488491254476372
2025-03-30 17:21:22.970,-4.071258486444923
2025-03-30 17:21:22.970,4.131287403945314
2025-03-30 17:21:22.970,3.828641086714521
2025-03-30 17:21:22.970,-3.589481261273526
2025-03-30 17:21:22.970,-6.965908469333001
2025-03-30 17:21:22.978,-0.160598664652414
2025-03-30 17:21:22.978,9.803828950048313
2025-03-30 17:21:22.979,10.563419788706131
2025-03-30 17:21:22.979,-0.8908972858211144
2025-03-30 17:21:22.979,-13.404710683274187
2025-03-30 17:21:22.988,-13.120928070555474
2025-03-30 17:21:22.988,0.6640863502493022
2025-03-30 17:21:22.988,13.733690430774633
2025-03-30 17:21:22.988,12.635077485472637
2025-03-30 17:21:22.998,-0.25848241758640345
2025-03-30 17:21:22.998,-10.549028331040901
2025-03-30 17:21:22.998,-9.06596618482983
2025-03-30 17:21:22.998,-0.5827891488622216
2025-03-30 17:21:22.998,4.994544386434898
2025-03-30 17:21:23.008,4.667772627693872
2025-03-30 17:21:23.008,2.2995193488322023
2025-03-30 17:21:23.008,0.5446859642723747
2025-03-30 17:21:23.008,-1.656489861917636
2025-03-30 17:21:23.008,-4.247527345895443
2025-03-30 17:21:23.018,-4.013905466731651
2025-03-30 17:21:23.018,0.46374961570787065
2025-03-30 17:21:23.018,5.02482716237529
2025-03-30 17:21:23.018,4.386479270061946
2025-03-30 17:21:23.018,-0.6444910442124414
2025-03-30 17:21:23.026,-3.69205102989276
2025-03-30 17:21:23.026,-1.2465964049425597
2025-03-30 17:21:23.027,2.314491951630837
2025-03-30 17:21:23.027,0.7094136921889491
2025-03-30 17:21:23.027,-4.755047002067999
2025-03-30 17:21:23.036,-5.679953161691134
2025-03-30 17:21:23.036,2.1357198744864685
2025-03-30 17:21:23.036,11.193940486787561
2025-03-30 17:21:23.036,9.841741464952637
2025-03-30 17:21:23.046,-3.110077453574647
2025-03-30 17:21:23.046,-15.037746958173773
2025-03-30 17:21:23.046,-12.894325454944813
2025-03-30 17:21:23.046,1.8779670809638949
2025-03-30 17:21:23.046,14.585090160824
2025-03-30 17:21:23.054,13.220127450797685
2025-03-30 17:21:23.054,0.6157068769990295
2025-03-30 17:21:23.054,-10.209896274548587
2025-03-30 17:21:23.055,-10.494035357153681
2025-03-30 17:21:23.064,-3.0461474793274843
2025-03-30 17:21:23.064,3.82556056244337
2025-03-30 17:21:23.064,5.8813793579892195
2025-03-30 17:21:23.065,4.552733034892964
2025-03-30 17:21:23.065,1.9082536711719373
2025-03-30 17:21:23.065,-1.6512644284270739
2025-03-30 17:21:23.074,-4.774294622376965
2025-03-30 17:21:23.074,-4.529684171005265
2025-03-30 17:21:23.075,-0.46808030650428295
2025-03-30 17:21:23.075,3.451792410369912
2025-03-30 17:21:23.084,3.4461072893357763
2025-03-30 17:21:23.084,0.6394390516153678
2025-03-30 17:21:23.084,-1.0761916296941538
2025-03-30 17:21:23.084,-0.5002183433072659
2025-03-30 17:21:23.085,0.11951442516202884
2025-03-30 17:21:23.094,-0.8168327273539551
2025-03-30 17:21:23.094,-1.9296600665972525
2025-03-30 17:21:23.094,-1.1392215455986217
2025-03-30 17:21:23.094,1.3001382474480658
2025-03-30 17:21:23.095,2.9289526571385816
2025-03-30 17:21:23.104,1.7901033285950176
2025-03-30 17:21:23.104,-1.2921230744797978
2025-03-30 17:21:23.104,-3.1135026456821904
2025-03-30 17:21:23.104,-1.3369895863598185
2025-03-30 17:21:23.105,2.301403385922966
2025-03-30 17:21:23.114,3.2156391132673785
2025-03-30 17:21:23.114,-0.3928381980263074
2025-03-30 17:21:23.114,-4.343106369649523
2025-03-30 17:21:23.115,-3.1544900641385585
2025-03-30 17:21:23.115,2.51270044689367
2025-03-30 17:21:23.124,5.897373548619377
2025-03-30 17:21:23.124,2.5672759463020984
2025-03-30 17:21:23.124,-3.6323720164987177
2025-03-30 17:21:23.124,-5.339686642536388
2025-03-30 17:21:23.125,-1.1480546242752154
2025-03-30 17:21:23.132,2.8478624101381205
2025-03-30 17:21:23.132,1.6700410543949953
2025-03-30 17:21:23.132,-1.550214126233674
2025-03-30 17:21:23.133,-0.3628415881870128
2025-03-30 17:21:23.133,4.676082944530352
2025-03-30 17:21:23.142,5.407907947526762
2025-03-30 17:21:23.142,-2.3068633951536164
2025-03-30 17:21:23.143,-10.708235666015545
2025-03-30 17:21:23.143,-8.75288593978766
2025-03-30 17:21:23.143,3.0563122135580767
2025-03-30 17:21:23.152,12.17555272866141
2025-03-30 17:21:23.152,9.313868479636701
2025-03-30 17:21:23.152,-0.904325203539553
2025-03-30 17:21:23.153,-7.360037784917899
2025-03-30 17:21:23.164,-6.288452731780628
2025-03-30 17:21:23.164,-2.910125355618049
2025-03-30 17:21:23.164,-1.3137240549750628
2025-03-30 17:21:23.164,0.9411796040308504
2025-03-30 17:21:23.164,6.132443071247659
2025-03-30 17:21:23.165,9.395140394595693
2025-03-30 17:21:23.172,4.027327966013558
2025-03-30 17:21:23.172,-7.353560632154203
2025-03-30 17:21:23.172,-13.041734231052324
2025-03-30 17:21:23.173,-6.109833960187519
2025-03-30 17:21:23.182,6.231190229564797
2025-03-30 17:21:23.182,11.10002811173382
2025-03-30 17:21:23.182,5.153020692609811
2025-03-30 17:21:23.182,-3.2591596680559967
2025-03-30 17:21:23.182,-5.843440473683691
2025-03-30 17:21:23.192,-3.024567134869793
2025-03-30 17:21:23.192,-0.056337774408999425
2025-03-30 17:21:23.192,0.756587671663766
2025-03-30 17:21:23.192,1.0055469155179724
2025-03-30 17:21:23.193,1.9073504867123041
2025-03-30 17:21:23.202,2.355871308605941
2025-03-30 17:21:23.202,0.9228184500527
2025-03-30 17:21:23.202,-1.9344213485194561
2025-03-30 17:21:23.202,-3.822848987787741
2025-03-30 17:21:23.202,-2.354838552694204
2025-03-30 17:21:23.210,1.965243638000454
2025-03-30 17:21:23.210,4.772598046263745
2025-03-30 17:21:23.211,1.9485236419681415
2025-03-30 17:21:23.211,-4.187571548725717
2025-03-30 17:21:23.211,-5.676644956961312
2025-03-30 17:21:23.220,1.031795206219311
2025-03-30 17:21:23.220,8.281977831870208
2025-03-30 17:21:23.220,5.650629902062501
2025-03-30 17:21:23.221,-5.337275341869013
2025-03-30 17:21:23.230,-11.249841977872583
2025-03-30 17:21:23.230,-3.8506229489723545
2025-03-30 17:21:23.230,8.42703074701443
2025-03-30 17:21:23.230,10.887563138703632
2025-03-30 17:21:23.230,1.10342857759132
2025-03-30 17:21:23.239,-8.829661118657064
2025-03-30 17:21:23.240,-7.993950040025956
2025-03-30 17:21:23.240,0.9237029017108389
2025-03-30 17:21:23.240,6.949188832205881
2025-03-30 17:21:23.240,4.652153451403175
2025-03-30 17:21:23.248,-1.2393639434611203
2025-03-30 17:21:23.248,-3.769927996967204
2025-03-30 17:21:23.248,-2.0368016596301666
2025-03-30 17:21:23.248,-0.020660908270817346
2025-03-30 17:21:23.258,0.0610044018529103
2025-03-30 17:21:23.258,0.05912450022998847
2025-03-30 17:21:23.259,1.8069240716966692
2025-03-30 17:21:23.259,3.524817175327436
2025-03-30 17:21:23.259,2.002543292453407
2025-03-30 17:21:23.259,-2.651139497462231
2025-03-30 17:21:23.268,-6.2645035847405
2025-03-30 17:21:23.268,-4.864183046588257
2025-03-30 17:21:23.268,1.180603643331993
2025-03-30 17:21:23.269,7.296344736510578
2025-03-30 17:21:23.278,8.364086631837525
2025-03-30 17:21:23.278,2.7871780967929327
2025-03-30 17:21:23.278,-5.751439448946224
2025-03-30 17:21:23.278,-10.609173915291857
2025-03-30 17:21:23.279,-7.577454971802514
2025-03-30 17:21:23.288,1.342259371858714
2025-03-30 17:21:23.288,9.56155841501292
2025-03-30 17:21:23.288,11.06852483652757
2025-03-30 17:21:23.288,4.516756352700487
2025-03-30 17:21:23.288,-5.800806158844292
2025-03-30 17:21:23.296,-12.185234492957768
2025-03-30 17:21:23.296,-9.00579882550548
2025-03-30 17:21:23.297,1.6703552028851945
2025-03-30 17:21:23.297,10.746554957232338
2025-03-30 17:21:23.306,10.407423867400981
2025-03-30 17:21:23.306,1.6553147567209145
2025-03-30 17:21:23.306,-7.33774762054328
2025-03-30 17:21:23.306,-9.459076342577564
2025-03-30 17:21:23.306,-4.182166511987885
2025-03-30 17:21:23.316,3.568764683980137
2025-03-30 17:21:23.316,7.842556896253996
2025-03-30 17:21:23.316,5.609386166251277
2025-03-30 17:21:23.316,-1.1417401139484777
2025-03-30 17:21:23.316,-6.538841542594192
2025-03-30 17:21:23.326,-5.68652749899595
2025-03-30 17:21:23.326,0.448351421324089
2025-03-30 17:21:23.326,5.613236041774303
2025-03-30 17:21:23.326,4.651591583149576
2025-03-30 17:21:23.327,-0.8569942939982892
2025-03-30 17:21:23.336,-4.327933020744575
2025-03-30 17:21:23.336,-2.003737108111997
2025-03-30 17:21:23.336,2.1852425312694854
2025-03-30 17:21:23.336,1.612987594167068
2025-03-30 17:21:23.337,-3.4870469975632
2025-03-30 17:21:23.346,-4.981432989598476
2025-03-30 17:21:23.346,2.239484823122095
2025-03-30 17:21:23.346,11.150950834601675
2025-03-30 17:21:23.346,9.369589291497896
2025-03-30 17:21:23.347,-4.711542659863606
2025-03-30 17:21:23.354,-17.356361718485733
2025-03-30 17:21:23.354,-14.104557873380243
2025-03-30 17:21:23.354,3.382560720559124
2025-03-30 17:21:23.355,18.443637491814275
2025-03-30 17:21:23.364,16.922553608245735
2025-03-30 17:21:23.364,1.0927966374221212
2025-03-30 17:21:23.364,-14.00638899736431
2025-03-30 17:21:23.364,-15.9228097751778
2025-03-30 17:21:23.365,-5.4037819469471025
2025-03-30 17:21:23.374,6.769541862120636
2025-03-30 17:21:23.374,11.132039957860867
2025-03-30 17:21:23.374,6.911654810316801
2025-03-30 17:21:23.374,-0.22536697612368
2025-03-30 17:21:23.374,-4.968946801295227
2025-03-30 17:21:23.384,-5.75713001868566
2025-03-30 17:21:23.384,-3.36881579531941
2025-03-30 17:21:23.384,0.7380412534034015
2025-03-30 17:21:23.384,4.044592948214904
2025-03-30 17:21:23.384,3.6048717333939884
2025-03-30 17:21:23.394,-0.505228733439338
2025-03-30 17:21:23.394,-3.6286850861677995
2025-03-30 17:21:23.394,-1.4488902484695683
2025-03-30 17:21:23.394,3.6572459310894945
2025-03-30 17:21:23.394,4.584914860848639
2025-03-30 17:21:23.404,-1.0700056420688508
2025-03-30 17:21:23.404,-6.9299941844452775
2025-03-30 17:21:23.404,-5.682293546291991
2025-03-30 17:21:23.404,1.5458212514673357
2025-03-30 17:21:23.405,6.960127126571608
2025-03-30 17:21:23.412,5.788351479257247
2025-03-30 17:21:23.412,0.6503877670368194
2025-03-30 17:21:23.412,-3.339244707756968
2025-03-30 17:21:23.413,-4.281047605280159
2025-03-30 17:21:23.424,-3.3442162102418953
2025-03-30 17:21:23.424,-1.5786318838610147
2025-03-30 17:21:23.424,1.0570421253298798
2025-03-30 17:21:23.424,4.084612164598199
2025-03-30 17:21:23.424,5.4085963447196965
2025-03-30 17:21:23.424,2.826991200205715
2025-03-30 17:21:23.432,-2.901673223024653
2025-03-30 17:21:23.432,-7.183795990350857
2025-03-30 17:21:23.432,-5.465446948465987
2025-03-30 17:21:23.433,1.3971181092058786
2025-03-30 17:21:23.442,6.987875318966405
2025-03-30 17:21:23.442,5.806505217233035
2025-03-30 17:21:23.442,-0.6432237908779965
2025-03-30 17:21:23.442,-5.438861082202619
2025-03-30 17:21:23.442,-3.987699435162629
2025-03-30 17:21:23.452,0.9499607196905911
2025-03-30 17:21:23.452,3.0124381201803767
2025-03-30 17:21:23.452,0.3964343332319774
2025-03-30 17:21:23.452,-1.9821047574834514
2025-03-30 17:21:23.452,0.30764343493901947
2025-03-30 17:21:23.462,4.156120435673954
2025-03-30 17:21:23.462,2.6642920013740077
2025-03-30 17:21:23.462,-4.3107478087097215
2025-03-30 17:21:23.462,-7.992729069476039
2025-03-30 17:21:23.462,-1.9271363197646032
2025-03-30 17:21:23.470,7.929840421401143
2025-03-30 17:21:23.470,9.404807413967177
2025-03-30 17:21:23.470,-0.1891223875496607
2025-03-30 17:21:23.471,-9.844656938045198
2025-03-30 17:21:23.480,-8.320914290441786
2025-03-30 17:21:23.480,2.3061766641759966
2025-03-30 17:21:23.480,9.955616382358407
2025-03-30 17:21:23.481,6.888797003852918
2025-03-30 17:21:23.481,-2.9889648843019216
2025-03-30 17:21:23.490,-9.865503326972895
2025-03-30 17:21:23.490,-7.506758050329948
2025-03-30 17:21:23.490,2.2732126936019035
2025-03-30 17:21:23.491,11.07199999529018
2025-03-30 17:21:23.491,10.098729108260102
2025-03-30 17:21:23.500,-1.2810596067784104
2025-03-30 17:21:23.500,-12.666281012549158
2025-03-30 17:21:23.500,-12.032878358567679
2025-03-30 17:21:23.500,0.5744356346691861
2025-03-30 17:21:23.501,12.04192331517245
2025-03-30 17:21:23.508,10.839203340518093
2025-03-30 17:21:23.508,-0.1827929332586059
2025-03-30 17:21:23.508,-8.337078488724462
2025-03-30 17:21:23.508,-6.3282191532269945
2025-03-30 17:21:23.518,0.7841688122013889
2025-03-30 17:21:23.518,3.7180422317466224
2025-03-30 17:21:23.518,0.4219567040387562
2025-03-30 17:21:23.519,-2.9563186429584145
2025-03-30 17:21:23.519,-1.0240889549123664
2025-03-30 17:21:23.528,4.0672951967957305
2025-03-30 17:21:23.528,5.775880090743805
2025-03-30 17:21:23.528,1.317437276694041
2025-03-30 17:21:23.528,-5.173511205694736
2025-03-30 17:21:23.529,-7.376133182315666
2025-03-30 17:21:23.538,-3.3374900393449347
2025-03-30 17:21:23.538,3.0698684476616123
2025-03-30 17:21:23.538,6.407500938363778
2025-03-30 17:21:23.538,4.683499427879034
2025-03-30 17:21:23.539,0.35779976372334377
2025-03-30 17:21:23.548,-2.863144177439078
2025-03-30 17:21:23.548,-3.601806762065789
2025-03-30 17:21:23.548,-3.0292593347267545
2025-03-30 17:21:23.548,-2.0858150603452064
2025-03-30 17:21:23.549,0.12481382413440142
2025-03-30 17:21:23.558,4.050263996551715
2025-03-30 17:21:23.558,6.748361828109196
2025-03-30 17:21:23.558,3.896421617483225
2025-03-30 17:21:23.558,-4.009424638106809
2025-03-30 17:21:23.559,-9.606515174515915
2025-03-30 17:21:23.566,-5.9287165432082585
2025-03-30 17:21:23.567,4.2870016106711235
2025-03-30 17:21:23.567,9.909117377398509
2025-03-30 17:21:23.567,4.2349461205337935
2025-03-30 17:21:23.567,-5.884196140088233
2025-03-30 17:21:23.576,-7.733696166639321
2025-03-30 17:21:23.576,0.9279711944069846
2025-03-30 17:21:23.576,8.296684953186368
2025-03-30 17:21:23.577,3.834166833082249
2025-03-30 17:21:23.586,-7.135486276149482
2025-03-30 17:21:23.586,-9.75156617181516
2025-03-30 17:21:23.586,0.5591550880623151
2025-03-30 17:21:23.586,11.2638121708363
2025-03-30 17:21:23.587,8.734273954554673
2025-03-30 17:21:23.596,-3.9732909668785235
2025-03-30 17:21:23.596,-11.300656300030075
2025-03-30 17:21:23.596,-5.333449955169531
2025-03-30 17:21:23.596,5.149746529860352
2025-03-30 17:21:23.597,7.508713024346525
2025-03-30 17:21:23.604,1.1582607165562502
2025-03-30 17:21:23.604,-4.0921596403774485
2025-03-30 17:21:23.604,-2.3435732551005013
2025-03-30 17:21:23.605,1.9466708527143008
2025-03-30 17:21:23.605,2.1503745980842117
2025-03-30 17:21:23.614,-1.2677035004985506
2025-03-30 17:21:23.614,-2.8449612636914727
2025-03-30 17:21:23.615,-0.5799084056490744
2025-03-30 17:21:23.615,1.89082717371594
2025-03-30 17:21:23.624,1.3279645351870089
2025-03-30 17:21:23.624,-0.5169963123506842
2025-03-30 17:21:23.624,-0.1246437496216719
2025-03-30 17:21:23.624,2.008605965876726
2025-03-30 17:21:23.625,1.7142073214384281
2025-03-30 17:21:23.634,-2.4638579257170923
2025-03-30 17:21:23.634,-5.840900682711772
2025-03-30 17:21:23.634,-2.942727533111221
2025-03-30 17:21:23.634,4.545683893306914
2025-03-30 17:21:23.634,8.320969362741645
2025-03-30 17:21:23.644,3.2701625002580377
2025-03-30 17:21:23.644,-5.534527654412722
2025-03-30 17:21:23.644,-8.259114829441948
2025-03-30 17:21:23.644,-2.0326503758469903
2025-03-30 17:21:23.644,5.619339614146556
2025-03-30 17:21:23.654,6.011424926056853
2025-03-30 17:21:23.654,-0.3430383281875681
2025-03-30 17:21:23.654,-5.050438375595434
2025-03-30 17:21:23.654,-2.7230250625311117
2025-03-30 17:21:23.654,2.621988411711912
2025-03-30 17:21:23.664,3.5372839059594026
2025-03-30 17:21:23.664,-0.7722713702121806
2025-03-30 17:21:23.664,-3.719128144328517
2025-03-30 17:21:23.664,-0.7824761302119005
2025-03-30 17:21:23.664,3.93015260298794
2025-03-30 17:21:23.672,3.3135977458951764
2025-03-30 17:21:23.672,-2.5288844296828388
2025-03-30 17:21:23.672,-5.89998854603011
2025-03-30 17:21:23.673,-1.8835028798946907
2025-03-30 17:21:23.682,4.756009405202389
2025-03-30 17:21:23.682,5.754578915587582
2025-03-30 17:21:23.682,0.18213097704558145
2025-03-30 17:21:23.683,-4.6939520096349705
2025-03-30 17:21:23.683,-3.2522725108720607
2025-03-30 17:21:23.692,1.4924128945899715
2025-03-30 17:21:23.692,2.72050606656689
2025-03-30 17:21:23.692,-0.7666503961980755
2025-03-30 17:21:23.692,-3.2825142185547596
2025-03-30 17:21:23.693,-0.37627190294634744
2025-03-30 17:21:23.702,4.739403146794578
2025-03-30 17:21:23.702,4.996148162317643
2025-03-30 17:21:23.702,-1.1718079158078463
2025-03-30 17:21:23.702,-6.977051897655044
2025-03-30 17:21:23.703,-5.3497377458820985
2025-03-30 17:21:23.710,1.841902445466299
2025-03-30 17:21:23.710,5.901795532968653
2025-03-30 17:21:23.711,2.716925076771761
2025-03-30 17:21:23.711,-2.0199646151380297
2025-03-30 17:21:23.720,-1.3719668912328993
2025-03-30 17:21:23.720,2.6826598243429736
2025-03-30 17:21:23.720,2.360814759100657
2025-03-30 17:21:23.720,-3.9472686867713205
2025-03-30 17:21:23.720,-8.273521008781701
2025-03-30 17:21:23.730,-3.5060659013733764
2025-03-30 17:21:23.730,6.545001903695854
2025-03-30 17:21:23.730,11.088409589527005
2025-03-30 17:21:23.730,5.1309368297777445
2025-03-30 17:21:23.730,-5.089248930177199
2025-03-30 17:21:23.740,-9.832203452021927
2025-03-30 17:21:23.740,-6.160060149899852
2025-03-30 17:21:23.740,0.9590349150464016
2025-03-30 17:21:23.741,5.529500395468378
2025-03-30 17:21:23.741,5.733203324715693
2025-03-30 17:21:23.750,3.0330285820580167
2025-03-30 17:21:23.750,-0.6991354587890345
2025-03-30 17:21:23.750,-3.7999479696944576
2025-03-30 17:21:23.750,-4.4852273822354185
2025-03-30 17:21:23.751,-2.1541818326262328
2025-03-30 17:21:23.760,1.2335802167792054
2025-03-30 17:21:23.760,2.8221936323398995
2025-03-30 17:21:23.760,2.136089592413631
2025-03-30 17:21:23.760,1.1467329077580113
2025-03-30 17:21:23.761,0.7286524505037799
2025-03-30 17:21:23.770,-0.7119524633176056
2025-03-30 17:21:23.770,-3.532380938086579
2025-03-30 17:21:23.770,-4.157694540787911
2025-03-30 17:21:23.770,0.42086759543606217
2025-03-30 17:21:23.770,6.356412279292026
2025-03-30 17:21:23.780,5.787185102333638
2025-03-30 17:21:23.780,-2.472437987182116
2025-03-30 17:21:23.780,-9.174844789182968
2025-03-30 17:21:23.780,-5.27221405262151
2025-03-30 17:21:23.781,5.832316858891316
2025-03-30 17:21:23.788,11.194720865774892
2025-03-30 17:21:23.788,3.8009883214348132
2025-03-30 17:21:23.788,-8.60063406659013
2025-03-30 17:21:23.789,-12.216949348344382
2025-03-30 17:21:23.798,-2.8620530272032028
2025-03-30 17:21:23.798,9.5885157328262
2025-03-30 17:21:23.798,12.229145229608374
2025-03-30 17:21:23.798,2.773670439251956
2025-03-30 17:21:23.799,-8.669710782026073
2025-03-30 17:21:23.808,-10.70814837399947
2025-03-30 17:21:23.808,-2.411894398884251
2025-03-30 17:21:23.808,6.5705714243966575
2025-03-30 17:21:23.808,7.150847737579587
2025-03-30 17:21:23.809,0.5185020919561109
2025-03-30 17:21:23.818,-4.4735415808306636
2025-03-30 17:21:23.818,-2.4725741969178356
2025-03-30 17:21:23.818,2.5724824652408893
2025-03-30 17:21:23.818,3.4677364424688797
2025-03-30 17:21:23.819,-0.9613911654979406
2025-03-30 17:21:23.828,-5.077052000610324
2025-03-30 17:21:23.828,-3.9208138308365785
2025-03-30 17:21:23.828,1.242791043649119
2025-03-30 17:21:23.828,5.411597398965413
2025-03-30 17:21:23.828,5.518086578638032
2025-03-30 17:21:23.836,1.9841010582732008
2025-03-30 17:21:23.836,-3.4048515831623014
2025-03-30 17:21:23.837,-8.045206545374432
2025-03-30 17:21:23.837,-7.683372044809653
2025-03-30 17:21:23.846,0.3950427114659608
2025-03-30 17:21:23.846,11.249422935353158
2025-03-30 17:21:23.846,13.47945837201333
2025-03-30 17:21:23.846,1.6184345604835197
2025-03-30 17:21:23.846,-14.070167515529743
2025-03-30 17:21:23.854,-16.34641935024349
2025-03-30 17:21:23.854,-1.3625857385543911
2025-03-30 17:21:23.854,14.926870326997053
2025-03-30 17:21:23.855,14.732298691162844
2025-03-30 17:21:23.864,-0.645853190928705
2025-03-30 17:21:23.864,-13.145968652367818
2025-03-30 17:21:23.864,-9.936114837316042
2025-03-30 17:21:23.864,2.7636345517264886
2025-03-30 17:21:23.865,9.504541251071
2025-03-30 17:21:23.874,4.485453735204992
2025-03-30 17:21:23.874,-3.796812067985159
2025-03-30 17:21:23.874,-5.140974000170807
2025-03-30 17:21:23.875,0.16371898039124716
2025-03-30 17:21:23.875,3.7555485723010595
2025-03-30 17:21:23.884,0.9260721346464543
2025-03-30 17:21:23.884,-3.818737427275328
2025-03-30 17:21:23.884,-3.3759753438513043
2025-03-30 17:21:23.884,2.4098191383746967
2025-03-30 17:21:23.885,6.340123766253446
2025-03-30 17:21:23.894,2.9293321091874036
2025-03-30 17:21:23.894,-4.439426744135137
2025-03-30 17:21:23.894,-7.2793103649093895
2025-03-30 17:21:23.894,-2.146485753096614
2025-03-30 17:21:23.894,5.231842478103553
2025-03-30 17:21:23.902,6.711351941914359
2025-03-30 17:21:23.902,1.0718784246852033
2025-03-30 17:21:23.903,-5.017256006536533
2025-03-30 17:21:23.903,-5.083442893363596
2025-03-30 17:21:23.912,-0.10092062209031127
2025-03-30 17:21:23.912,3.555506319479909
2025-03-30 17:21:23.912,2.376726245482903
2025-03-30 17:21:23.912,-0.475017140287652
2025-03-30 17:21:23.913,-0.44523393298177394
2025-03-30 17:21:23.922,1.6140952736940046
2025-03-30 17:21:23.922,0.8141672201390475
2025-03-30 17:21:23.922,-3.873857227050951
2025-03-30 17:21:23.922,-6.5236662981245015
2025-03-30 17:21:23.923,-1.486202860308655
2025-03-30 17:21:23.930,7.87280721069926
2025-03-30 17:21:23.931,11.169605399641673
2025-03-30 17:21:23.931,2.868137026672836
2025-03-30 17:21:23.931,-9.95129326452573
2025-03-30 17:21:23.931,-14.061131702746282
2025-03-30 17:21:23.940,-4.436651638926119
2025-03-30 17:21:23.940,9.610953163522222
2025-03-30 17:21:23.941,14.024877740264674
2025-03-30 17:21:23.941,5.034684248561185
2025-03-30 17:21:23.950,-7.279110104115711
2025-03-30 17:21:23.950,-10.685070595009272
2025-03-30 17:21:23.950,-3.848811463458068
2025-03-30 17:21:23.950,3.982623971191073
2025-03-30 17:21:23.951,4.856267450410039
2025-03-30 17:21:23.960,0.6814157281773878
2025-03-30 17:21:23.960,-1.0812062578762551
2025-03-30 17:21:23.960,1.8547489887585171
2025-03-30 17:21:23.960,3.5858869385566754
2025-03-30 17:21:23.961,-1.0812392768024766
2025-03-30 17:21:23.970,-7.739889501901942
2025-03-30 17:21:23.970,-6.779463377054224
2025-03-30 17:21:23.970,3.239415891244564
2025-03-30 17:21:23.970,11.467139713620643
2025-03-30 17:21:23.971,7.362694830739594
2025-03-30 17:21:23.978,-5.432747364765756
2025-03-30 17:21:23.979,-12.571799581819041
2025-03-30 17:21:23.979,-6.072887716018628
2025-03-30 17:21:23.979,6.541947978638867
2025-03-30 17:21:23.979,11.72794895314913
2025-03-30 17:21:23.988,5.0475360784911425
2025-03-30 17:21:23.988,-5.75347828147808
2025-03-30 17:21:23.988,-10.392593527526438
2025-03-30 17:21:23.988,-5.650956860670947
2025-03-30 17:21:23.998,3.5068806222056006
2025-03-30 17:21:23.998,9.253597920370927
2025-03-30 17:21:23.998,7.10550404280974
2025-03-30 17:21:23.998,-0.8150442189948617
2025-03-30 17:21:23.998,-7.537713252552846
2025-03-30 17:21:24.008,-7.32676821916371
2025-03-30 17:21:24.008,-1.0789486965971051
2025-03-30 17:21:24.008,4.720549904088532
2025-03-30 17:21:24.008,4.952913012292747
2025-03-30 17:21:24.009,1.0105420884207357
2025-03-30 17:21:24.018,-1.8134177157605427
2025-03-30 17:21:24.018,-1.0011982380266993
2025-03-30 17:21:24.018,0.8897557701895737
2025-03-30 17:21:24.018,0.41719292777324335
2025-03-30 17:21:24.019,-2.077043010371337
2025-03-30 17:21:24.026,-3.039389146954507
2025-03-30 17:21:24.026,-0.45456635558487046
2025-03-30 17:21:24.027,3.1692700350000576
2025-03-30 17:21:24.027,3.544766152107849
2025-03-30 17:21:24.027,0.06763231471262612
2025-03-30 17:21:24.036,-3.0526135545839908
2025-03-30 17:21:24.037,-1.9827779749234098
2025-03-30 17:21:24.037,1.7381974684172494
2025-03-30 17:21:24.037,3.070010037867206
2025-03-30 17:21:24.037,-0.06919771499075264
2025-03-30 17:21:24.046,-4.0268750349038935
2025-03-30 17:21:24.046,-3.8019286140711817
2025-03-30 17:21:24.046,0.9003670826270167
2025-03-30 17:21:24.047,5.218992585672097
2025-03-30 17:21:24.056,4.595759396213709
2025-03-30 17:21:24.056,-0.28748092845744866
2025-03-30 17:21:24.056,-4.472052782500073
2025-03-30 17:21:24.057,-4.215759777223219
2025-03-30 17:21:24.057,-0.7647780221834063
2025-03-30 17:21:24.066,1.8352021600853008
2025-03-30 17:21:24.066,1.9515970704823935
2025-03-30 17:21:24.066,1.5734950586219887
2025-03-30 17:21:24.066,2.009552958543614
2025-03-30 17:21:24.067,1.154074001069342
2025-03-30 17:21:24.076,-2.554738826476966
2025-03-30 17:21:24.076,-5.578226045504782
2025-03-30 17:21:24.076,-2.842934756452331
2025-03-30 17:21:24.076,4.171991349976359
2025-03-30 17:21:24.076,7.323172760192541
2025-03-30 17:21:24.084,1.9891329417050592
2025-03-30 17:21:24.084,-5.9115622132114485
2025-03-30 17:21:24.085,-6.765971210897833
2025-03-30 17:21:24.085,0.40277487474093865
2025-03-30 17:21:24.085,6.680054005115045
2025-03-30 17:21:24.094,4.7090537690281264
2025-03-30 17:21:24.094,-2.4458405535244054
2025-03-30 17:21:24.095,-5.989905588140186
2025-03-30 17:21:24.095,-2.477611796563273
2025-03-30 17:21:24.104,2.9513743347968693
2025-03-30 17:21:24.104,4.003225611192781
2025-03-30 17:21:24.104,0.8121745761487105
2025-03-30 17:21:24.104,-1.6400195506398771
2025-03-30 17:21:24.105,-0.9198094963592086
2025-03-30 17:21:24.114,0.19870443121403653
2025-03-30 17:21:24.114,-1.0554760456493824
2025-03-30 17:21:24.114,-2.65158704484953
2025-03-30 17:21:24.115,-0.7626631124650092
2025-03-30 17:21:24.115,3.851742242777733
2025-03-30 17:21:24.124,5.730642671218853
2025-03-30 17:21:24.124,1.5280879036707944
2025-03-30 17:21:24.124,-5.298446741592505
2025-03-30 17:21:24.124,-7.883940576899652
2025-03-30 17:21:24.124,-3.1479700107186424
2025-03-30 17:21:24.132,5.0265056387726785
2025-03-30 17:21:24.132,9.228485336855215
2025-03-30 17:21:24.133,5.1954008754763015
2025-03-30 17:21:24.133,-3.8908692655432207
2025-03-30 17:21:24.133,-9.683079741571646
2025-03-30 17:21:24.142,-6.42785084469484
2025-03-30 17:21:24.143,2.9701382332681536
2025-03-30 17:21:24.143,9.310288502286413
2025-03-30 17:21:24.143,6.220303734506251
2025-03-30 17:21:24.152,-3.102680905005696
2025-03-30 17:21:24.152,-8.825231553446272
2025-03-30 17:21:24.153,-4.752309578615779
2025-03-30 17:21:24.153,4.631614432413309
2025-03-30 17:21:24.153,8.735077653689904
2025-03-30 17:21:24.162,2.8072280748488248
2025-03-30 17:21:24.162,-6.5265507086855346
2025-03-30 17:21:24.162,-8.976107592695016
2025-03-30 17:21:24.163,-2.1388324648981114
2025-03-30 17:21:24.163,6.725547712458946
2025-03-30 17:21:24.172,9.321525412597074
2025-03-30 17:21:24.172,4.154593057817054
2025-03-30 17:21:24.172,-3.9008617373081065
2025-03-30 17:21:24.172,-8.939350264029077
2025-03-30 17:21:24.173,-7.884042697842921
2025-03-30 17:21:24.180,-1.420072165662847
2025-03-30 17:21:24.180,6.47986125661614
2025-03-30 17:21:24.181,10.45626165865152
2025-03-30 17:21:24.181,7.27938459216684
2025-03-30 17:21:24.190,-1.4265831287246682
2025-03-30 17:21:24.190,-9.892474118160845
2025-03-30 17:21:24.190,-11.85012705592855
2025-03-30 17:21:24.190,-4.808035635189094
2025-03-30 17:21:24.191,7.082966699380206
2025-03-30 17:21:24.198,14.330357767875793
2025-03-30 17:21:24.198,9.445711443449548
2025-03-30 17:21:24.198,-4.525569509750215
2025-03-30 17:21:24.199,-14.624961060648301
2025-03-30 17:21:24.208,-10.506590621584545
2025-03-30 17:21:24.208,3.682732979848339
2025-03-30 17:21:24.208,12.942482161567673
2025-03-30 17:21:24.209,8.036830867834839
2025-03-30 17:21:24.209,-4.122622865151667
2025-03-30 17:21:24.218,-9.210861904991622
2025-03-30 17:21:24.218,-2.964111483088744
2025-03-30 17:21:24.218,4.453040938762967
2025-03-30 17:21:24.218,2.8487772043764434
2025-03-30 17:21:24.219,-3.9174529417540356
2025-03-30 17:21:24.228,-3.7261578835752216
2025-03-30 17:21:24.228,5.509992905060889
2025-03-30 17:21:24.228,11.041703760213506
2025-03-30 17:21:24.228,2.382367144449936
2025-03-30 17:21:24.229,-12.596859528356118
2025-03-30 17:21:24.236,-15.7977325683492
2025-03-30 17:21:24.236,-1.6816946721650374
2025-03-30 17:21:24.237,15.058248460680918
2025-03-30 17:21:24.237,16.603005302884235
2025-03-30 17:21:24.237,2.018592819487396
2025-03-30 17:21:24.246,-13.098841141876301
2025-03-30 17:21:24.246,-14.324955166920896
2025-03-30 17:21:24.246,-2.3251589846802845
2025-03-30 17:21:24.247,9.959888638190977
2025-03-30 17:21:24.256,11.050075932902896
2025-03-30 17:21:24.256,1.3856667425148734
2025-03-30 17:21:24.256,-8.289298595933586
2025-03-30 17:21:24.256,-8.217389295558164
2025-03-30 17:21:24.257,0.5428195732753921
2025-03-30 17:21:24.264,7.893503166238968
2025-03-30 17:21:24.264,6.156615471938912
2025-03-30 17:21:24.265,-1.8604334129082152
2025-03-30 17:21:24.265,-7.096131907034852
2025-03-30 17:21:24.274,-4.683552826815947
2025-03-30 17:21:24.275,1.7935885065542734
2025-03-30 17:21:24.275,5.489046100854495
2025-03-30 17:21:24.275,3.4599927117862057
2025-03-30 17:21:24.275,-1.4444081718021478
2025-03-30 17:21:24.275,-4.158161475964201
2025-03-30 17:21:24.284,-2.2485349956645546
2025-03-30 17:21:24.284,1.947845705062711
2025-03-30 17:21:24.285,3.710225107161663
2025-03-30 17:21:24.285,1.0386577579017566
2025-03-30 17:21:24.285,-2.8330063399471186
2025-03-30 17:21:24.294,-3.1501569418282704
2025-03-30 17:21:24.295,0.31251641431811017
2025-03-30 17:21:24.295,2.8192337672678742
2025-03-30 17:21:24.295,1.035674184205454
2025-03-30 17:21:24.295,-2.1993345866268887
2025-03-30 17:21:24.304,-1.5935118452214758
2025-03-30 17:21:24.304,2.897154716697529
2025-03-30 17:21:24.305,4.935054559603306
2025-03-30 17:21:24.305,-0.10586988946560105
2025-03-30 17:21:24.314,-7.670189733261725
2025-03-30 17:21:24.314,-7.989454077616095
2025-03-30 17:21:24.314,1.6023360101513555
2025-03-30 17:21:24.314,11.453538225360592
2025-03-30 17:21:24.315,9.904790958970544
2025-03-30 17:21:24.324,-2.3885631924114197
2025-03-30 17:21:24.324,-12.337457901876268
2025-03-30 17:21:24.324,-9.497630411016306
2025-03-30 17:21:24.324,2.1124618951468284
2025-03-30 17:21:24.325,9.728675093100259
2025-03-30 17:21:24.334,6.939096007182917
2025-03-30 17:21:24.334,-0.8273588530613107
2025-03-30 17:21:24.334,-5.115763313511301
2025-03-30 17:21:24.334,-3.9467474820337785
2025-03-30 17:21:24.335,-0.8518226262825063
2025-03-30 17:21:24.344,1.4177268087908301
2025-03-30 17:21:24.344,2.502356296165229
2025-03-30 17:21:24.344,1.922151638085568
2025-03-30 17:21:24.344,-0.751260813035553
2025-03-30 17:21:24.345,-3.28461906227069
2025-03-30 17:21:24.352,-2.0484653105281327
2025-03-30 17:21:24.353,2.7103695897045545
2025-03-30 17:21:24.353,5.5298159945177
2025-03-30 17:21:24.353,1.9923629929320523
2025-03-30 17:21:24.353,-5.019726675536254
2025-03-30 17:21:24.364,-7.83592147662685
2025-03-30 17:21:24.364,-2.6982201427668864
2025-03-30 17:21:24.364,5.796970677937703
2025-03-30 17:21:24.364,9.329152595952287
2025-03-30 17:21:24.364,4.151950469549208
2025-03-30 17:21:24.372,-5.15744388093255
2025-03-30 17:21:24.372,-9.82637019428076
2025-03-30 17:21:24.373,-5.3035234695527835
2025-03-30 17:21:24.373,4.009034025126714
2025-03-30 17:21:24.382,9.054831284531174
2025-03-30 17:21:24.382,5.409678322994304
2025-03-30 17:21:24.382,-2.540192120697249
2025-03-30 17:21:24.382,-6.870948102715853
2025-03-30 17:21:24.383,-4.39078097055188
2025-03-30 17:21:24.390,1.0704512806782709
2025-03-30 17:21:24.390,3.7619106434512233
2025-03-30 17:21:24.391,2.1342332618690394
2025-03-30 17:21:24.391,-0.48980603019071844
2025-03-30 17:21:24.391,-0.704650061568326
2025-03-30 17:21:24.402,0.8036382227376774
2025-03-30 17:21:24.402,0.853977440432452
2025-03-30 17:21:24.402,-1.2251862641230364
2025-03-30 17:21:24.402,-2.4461528138997712
2025-03-30 17:21:24.403,-0.8015968467229619
2025-03-30 17:21:24.410,1.3486107320415341
2025-03-30 17:21:24.410,0.8825753016357205
2025-03-30 17:21:24.411,-0.8243915391724189
2025-03-30 17:21:24.411,0.11840825167999543
2025-03-30 17:21:24.420,3.2744778246809387
2025-03-30 17:21:24.420,3.404078689209681
2025-03-30 17:21:24.420,-1.626463595389138
2025-03-30 17:21:24.421,-6.455732401995251
2025-03-30 17:21:24.421,-5.002246248963706
2025-03-30 17:21:24.430,1.0818938285121051
2025-03-30 17:21:24.430,4.886461888767977
2025-03-30 17:21:24.430,3.7995379846727384
2025-03-30 17:21:24.431,1.7786635304228997
2025-03-30 17:21:24.431,1.7244620364959924
2025-03-30 17:21:24.440,0.6683769643179874
2025-03-30 17:21:24.440,-4.4393981294642755
2025-03-30 17:21:24.440,-9.538463098342625
2025-03-30 17:21:24.441,-6.872877325304525
2025-03-30 17:21:24.441,4.29813002124613
2025-03-30 17:21:24.448,14.125407027407702
2025-03-30 17:21:24.448,11.8559016742858
2025-03-30 17:21:24.449,-1.743417907042625
2025-03-30 17:21:24.449,-13.9600012798337
2025-03-30 17:21:24.458,-13.091527755985489
2025-03-30 17:21:24.458,-0.69511969481641
2025-03-30 17:21:24.458,10.465552695395237
2025-03-30 17:21:24.459,10.250654386918209
2025-03-30 17:21:24.459,1.1839496735519837
2025-03-30 17:21:24.468,-5.9377827442585644
2025-03-30 17:21:24.468,-4.807235809355566
2025-03-30 17:21:24.468,0.3685749459942229
2025-03-30 17:21:24.468,1.8576096779429678
2025-03-30 17:21:24.469,-1.297787543905849
2025-03-30 17:21:24.478,-2.902537983706311
2025-03-30 17:21:24.478,0.9928664848087034
2025-03-30 17:21:24.478,5.989666041317214
2025-03-30 17:21:24.478,4.980020432304793
2025-03-30 17:21:24.479,-2.0482177918757998
2025-03-30 17:21:24.486,-7.418304113303822
2025-03-30 17:21:24.486,-5.329841617181887
2025-03-30 17:21:24.487,1.2313712334740772
2025-03-30 17:21:24.487,5.093626959750487
2025-03-30 17:21:24.487,3.8776492365551234
2025-03-30 17:21:24.496,1.079059512629942
2025-03-30 17:21:24.496,-0.527002345594472
2025-03-30 17:21:24.497,-2.101468981222807
2025-03-30 17:21:24.497,-4.2971956811207885
2025-03-30 17:21:24.497,-3.8599641615843083
2025-03-30 17:21:24.506,1.5818945513074798
2025-03-30 17:21:24.507,7.469466270513838
2025-03-30 17:21:24.507,6.148047029782141
2025-03-30 17:21:24.507,-2.5274688512873698
2025-03-30 17:21:24.516,-9.07318638590317
2025-03-30 17:21:24.516,-5.708086377262937
2025-03-30 17:21:24.517,3.5498993663110583
2025-03-30 17:21:24.517,8.063723296407675
2025-03-30 17:21:24.517,3.812208861286102
2025-03-30 17:21:24.526,-3.077691710938655
2025-03-30 17:21:24.526,-5.357974631170011
2025-03-30 17:21:24.526,-2.528267045753035
2025-03-30 17:21:24.527,1.2244572395474207
2025-03-30 17:21:24.527,2.9098110371739314
2025-03-30 17:21:24.536,2.357227169358706
2025-03-30 17:21:24.536,0.5196708662261013
2025-03-30 17:21:24.536,-1.3893786008308235
2025-03-30 17:21:24.536,-2.114618113052922
2025-03-30 17:21:24.537,-1.3189618922976734
2025-03-30 17:21:24.546,0.10845490029083979
2025-03-30 17:21:24.546,1.188294799179763
2025-03-30 17:21:24.546,1.5260639082309029
2025-03-30 17:21:24.546,0.9361213418437505
2025-03-30 17:21:24.547,-0.30531413018724746
2025-03-30 17:21:24.556,-1.0265510978389945
2025-03-30 17:21:24.556,-0.558685938280613
2025-03-30 17:21:24.556,-0.16061733992709737
2025-03-30 17:21:24.557,-1.0592829622501079
2025-03-30 17:21:24.557,-1.6509942445875552
2025-03-30 17:21:24.566,0.5374963737622682
2025-03-30 17:21:24.566,4.1206117926923325
2025-03-30 17:21:24.566,4.3705481214524315
2025-03-30 17:21:24.566,-0.427252060712868
2025-03-30 17:21:24.567,-5.843302889078386
2025-03-30 17:21:24.574,-6.199631867485512
2025-03-30 17:21:24.574,-0.8754277845895495
2025-03-30 17:21:24.575,5.444464649832648
2025-03-30 17:21:24.575,7.287024133006854
2025-03-30 17:21:24.584,2.65785212862462
2025-03-30 17:21:24.584,-4.9783317636874385
2025-03-30 17:21:24.585,-8.408273281106815
2025-03-30 17:21:24.585,-3.2420137202619075
2025-03-30 17:21:24.585,6.005350808307507
2025-03-30 17:21:24.594,9.330985719551053
2025-03-30 17:21:24.594,2.576639372115472
2025-03-30 17:21:24.594,-7.152822113515398
2025-03-30 17:21:24.595,-9.538735490294153
2025-03-30 17:21:24.595,-2.56947806961864
2025-03-30 17:21:24.602,6.285530867519256
2025-03-30 17:21:24.603,9.005740174127604
2025-03-30 17:21:24.603,4.42592287791189
2025-03-30 17:21:24.603,-2.817307703397015
2025-03-30 17:21:24.603,-7.6174561546002835
2025-03-30 17:21:24.612,-7.363822025016029
2025-03-30 17:21:24.612,-2.0914699323297454
2025-03-30 17:21:24.613,5.289915193016838
2025-03-30 17:21:24.613,9.413585977464466
2025-03-30 17:21:24.622,6.216284819732938
2025-03-30 17:21:24.622,-2.337337830785678
2025-03-30 17:21:24.622,-8.90259843653523
2025-03-30 17:21:24.622,-7.707055461591809
2025-03-30 17:21:24.622,-0.3965154464611706
2025-03-30 17:21:24.632,5.944692667074141
2025-03-30 17:21:24.632,6.147278731935262
2025-03-30 17:21:24.632,1.5029940916173221
2025-03-30 17:21:24.633,-2.5981472690002985
2025-03-30 17:21:24.633,-2.4866046061784535
2025-03-30 17:21:24.642,0.4248819349859134
2025-03-30 17:21:24.642,1.5175455234429547
2025-03-30 17:21:24.642,-1.6369071114874216
2025-03-30 17:21:24.643,-5.54747805852257
2025-03-30 17:21:24.643,-3.8353510194619878
2025-03-30 17:21:24.652,4.550428005327046
2025-03-30 17:21:24.652,11.609031629363448
2025-03-30 17:21:24.652,7.994447969994361
2025-03-30 17:21:24.652,-5.120977476250217
2025-03-30 17:21:24.652,-15.083352069738927
2025-03-30 17:21:24.660,-11.020028968027479
2025-03-30 17:21:24.660,3.5224073454354397
2025-03-30 17:21:24.661,14.033583631607181
2025-03-30 17:21:24.661,10.891761396963053
2025-03-30 17:21:24.670,-1.0203950982743912
2025-03-30 17:21:24.670,-9.314204591089291
2025-03-30 17:21:24.670,-7.856982421822891
2025-03-30 17:21:24.671,-1.1093283578827329
2025-03-30 17:21:24.671,3.5296970411987645
2025-03-30 17:21:24.680,3.8389346867918834
2025-03-30 17:21:24.680,2.316139420276978
2025-03-30 17:21:24.680,0.8286370328508117
2025-03-30 17:21:24.681,-1.0229149651167233
2025-03-30 17:21:24.681,-2.9213970029596683
2025-03-30 17:21:24.688,-2.6720652966640728
2025-03-30 17:21:24.689,0.47760749243309913
2025-03-30 17:21:24.689,3.452171662315819
2025-03-30 17:21:24.689,2.5743795591443877
2025-03-30 17:21:24.689,-1.471075781620137
2025-03-30 17:21:24.700,-4.013724144020202
2025-03-30 17:21:24.700,-2.0122771240117037
2025-03-30 17:21:24.700,2.3707421792074
2025-03-30 17:21:24.700,4.53001547155328
2025-03-30 17:21:24.701,2.419852339718315
2025-03-30 17:21:24.708,-2.0699128509775027
2025-03-30 17:21:24.708,-5.344369442332333
2025-03-30 17:21:24.709,-4.531093244229544
2025-03-30 17:21:24.709,0.6936481487147048
2025-03-30 17:21:24.718,6.687239256364227
2025-03-30 17:21:24.718,7.495238386349024
2025-03-30 17:21:24.718,0.7864396743949444
2025-03-30 17:21:24.719,-7.832672213873989
2025-03-30 17:21:24.719,-9.268852551479462
2025-03-30 17:21:24.728,-1.180809092973985
2025-03-30 17:21:24.728,8.1323804140716
2025-03-30 17:21:24.728,8.468431011551264
2025-03-30 17:21:24.728,-0.31874707222601095
2025-03-30 17:21:24.729,-7.891716872214963
2025-03-30 17:21:24.738,-5.6549814340961895
2025-03-30 17:21:24.738,3.1740695513132846
2025-03-30 17:21:24.738,7.772050495255683
2025-03-30 17:21:24.739,2.6793582413978703
2025-03-30 17:21:24.739,-5.979218617726672
2025-03-30 17:21:24.748,-7.8688913006701195
2025-03-30 17:21:24.748,-0.5870705310117159
2025-03-30 17:21:24.748,7.488444676196513
2025-03-30 17:21:24.748,7.144827153656025
2025-03-30 17:21:24.749,-0.6856871552619697
2025-03-30 17:21:24.758,-6.534058865275541
2025-03-30 17:21:24.758,-4.493323451055475
2025-03-30 17:21:24.758,1.106161031335977
2025-03-30 17:21:24.758,2.804540665612389
2025-03-30 17:21:24.759,0.22862246992543417
2025-03-30 17:21:24.768,-0.7951327968271853
2025-03-30 17:21:24.768,2.122060101716345
2025-03-30 17:21:24.768,4.130024184675859
2025-03-30 17:21:24.768,0.5245960711868385
2025-03-30 17:21:24.769,-5.683237394494513
2025-03-30 17:21:24.776,-6.9912741681398245
2025-03-30 17:21:24.776,-1.0536074990498556
2025-03-30 17:21:24.776,6.15304447835213
2025-03-30 17:21:24.776,7.402612555109151
2025-03-30 17:21:24.777,2.2086919003805283
2025-03-30 17:21:24.786,-3.6275645632107545
2025-03-30 17:21:24.786,-5.124979803489087
2025-03-30 17:21:24.786,-2.780353145377079
2025-03-30 17:21:24.786,-0.13630342779404703
2025-03-30 17:21:24.796,1.1273053700931044
2025-03-30 17:21:24.796,1.8956862399776022
2025-03-30 17:21:24.796,2.5346391764856806
2025-03-30 17:21:24.796,1.9029407593743917
2025-03-30 17:21:24.796,-0.09522238745637207
2025-03-30 17:21:24.806,-1.5864890190517178
2025-03-30 17:21:24.806,-1.6356274264209159
2025-03-30 17:21:24.806,-1.6687583683707703
2025-03-30 17:21:24.807,-2.2342276119304145
2025-03-30 17:21:24.807,-0.9831583745745954
2025-03-30 17:21:24.816,3.1764447485002916
2025-03-30 17:21:24.816,6.0902821831176235
2025-03-30 17:21:24.816,2.787771585977433
2025-03-30 17:21:24.816,-4.58298505433913
2025-03-30 17:21:24.817,-7.665476466110656
2025-03-30 17:21:24.826,-2.1847574626535624
2025-03-30 17:21:24.826,5.90699195821952
2025-03-30 17:21:24.826,7.181694854611865
2025-03-30 17:21:24.826,0.1576553143215209
2025-03-30 17:21:24.827,-6.898654049789938
2025-03-30 17:21:24.834,-5.906804987952088
2025-03-30 17:21:24.835,1.6395773412935486
2025-03-30 17:21:24.835,6.976264059697289
2025-03-30 17:21:24.835,4.56346563698372
2025-03-30 17:21:24.835,-2.194223836680245
2025-03-30 17:21:24.844,-5.912736313904906
2025-03-30 17:21:24.844,-3.5810580048692713
2025-03-30 17:21:24.845,1.4159168980009949
2025-03-30 17:21:24.845,4.134701741031366
2025-03-30 17:21:24.854,2.957532485258527
2025-03-30 17:21:24.854,-0.07221450078029767
2025-03-30 17:21:24.854,-2.0667087440902976
2025-03-30 17:21:24.855,-1.8630925432258891
2025-03-30 17:21:24.855,-0.6097572450765817
2025-03-30 17:21:24.864,-0.17341892981191362
2025-03-30 17:21:24.864,-0.6456587182791484
2025-03-30 17:21:24.865,-0.015678377937394933
2025-03-30 17:21:24.865,2.599958472405156
2025-03-30 17:21:24.865,4.290506644380885
2025-03-30 17:21:24.874,1.341280546813468
2025-03-30 17:21:24.874,-4.8389241913818735
2025-03-30 17:21:24.874,-7.547341358022554
2025-03-30 17:21:24.875,-2.469187163386297
2025-03-30 17:21:24.875,6.045949193671498
2025-03-30 17:21:24.884,8.988493599689752
2025-03-30 17:21:24.884,2.9883108113433092
2025-03-30 17:21:24.884,-5.596242243002857
2025-03-30 17:21:24.884,-7.962101117661443
2025-03-30 17:21:24.885,-2.6711016798684852
2025-03-30 17:21:24.894,3.6562294796529358
2025-03-30 17:21:24.894,4.743152415950184
2025-03-30 17:21:24.894,1.336928763348002
2025-03-30 17:21:24.894,-1.299423449814132
2025-03-30 17:21:24.895,-0.6070661009601803
2025-03-30 17:21:24.902,0.8105651815377894
2025-03-30 17:21:24.903,-0.20856078550631152
2025-03-30 17:21:24.903,-2.625478409833802
2025-03-30 17:21:24.903,-2.7465563547823972
2025-03-30 17:21:24.903,0.37986073565039813
2025-03-30 17:21:24.912,3.402568651469475
2025-03-30 17:21:24.913,3.081504907590236
2025-03-30 17:21:24.913,0.35482051303624706
2025-03-30 17:21:24.913,-1.5169170380998909
2025-03-30 17:21:24.922,-1.5031658569883226
2025-03-30 17:21:24.922,-1.202242190822089
2025-03-30 17:21:24.922,-1.2840187783801027
2025-03-30 17:21:24.923,-0.46908367111759935
2025-03-30 17:21:24.923,1.394189624735165
2025-03-30 17:21:24.932,2.2011245310248326
2025-03-30 17:21:24.932,0.9932262197854117
2025-03-30 17:21:24.933,-0.20653661196991485
2025-03-30 17:21:24.933,0.055713642426468174
2025-03-30 17:21:24.933,-0.09648453364554965
2025-03-30 17:21:24.942,-2.2695589112078216
2025-03-30 17:21:24.943,-3.675756356663043
2025-03-30 17:21:24.943,-0.6192707245216109
2025-03-30 17:21:24.943,4.686602895655909
2025-03-30 17:21:24.943,5.445840195931052
2025-03-30 17:21:24.952,-0.24528849314456946
2025-03-30 17:21:24.952,-5.50829352883445
2025-03-30 17:21:24.952,-3.5702199440383637
2025-03-30 17:21:24.953,2.5761036550154466
2025-03-30 17:21:24.953,4.237438344493611
2025-03-30 17:21:24.962,-0.616439355653426
2025-03-30 17:21:24.962,-4.706553835044932
2025-03-30 17:21:24.963,-2.090937715543598
2025-03-30 17:21:24.963,3.6995729567494116
2025-03-30 17:21:24.963,5.139047513589696
2025-03-30 17:21:24.972,0.8581646130290304
2025-03-30 17:21:24.972,-3.625903421062636
2025-03-30 17:21:24.973,-3.8232464397995454
2025-03-30 17:21:24.973,-0.9232815967171434
2025-03-30 17:21:24.973,1.5564597971327865
2025-03-30 17:21:24.982,2.1629285323994023
2025-03-30 17:21:24.982,1.2578780865850754
2025-03-30 17:21:24.982,-0.6135301233241404
2025-03-30 17:21:24.983,-2.0323963383627515
2025-03-30 17:21:24.983,-0.8025582339355444
2025-03-30 17:21:24.992,2.645930220577039
2025-03-30 17:21:24.992,3.850358063260632
2025-03-30 17:21:24.992,-0.37927541361689326
2025-03-30 17:21:24.992,-6.186891259607151
2025-03-30 17:21:24.993,-6.049102272229848
2025-03-30 17:21:25.002,1.37176252139125
2025-03-30 17:21:25.002,8.232560267086878
2025-03-30 17:21:25.002,6.6405561658017875
2025-03-30 17:21:25.002,-1.5036485030532298
2025-03-30 17:21:25.003,-6.989522784740603
2025-03-30 17:21:25.010,-4.78467170503889
2025-03-30 17:21:25.010,0.6385293070983613
2025-03-30 17:21:25.011,2.494820984983703
2025-03-30 17:21:25.011,0.8075887996658433
2025-03-30 17:21:25.020,0.9179488521246782
2025-03-30 17:21:25.021,4.099551049935532
2025-03-30 17:21:25.021,4.426913463556978
2025-03-30 17:21:25.021,-2.4664406993911463
2025-03-30 17:21:25.021,-10.699988914748443
2025-03-30 17:21:25.030,-9.37416110729312
2025-03-30 17:21:25.030,3.057079496679126
2025-03-30 17:21:25.030,14.397007406753506
2025-03-30 17:21:25.031,12.001798901632892
2025-03-30 17:21:25.031,-2.029950966302034
2025-03-30 17:21:25.040,-13.098269854368233
2025-03-30 17:21:25.040,-10.991825065579704
2025-03-30 17:21:25.040,-0.2927421800055583
2025-03-30 17:21:25.041,7.297244655762596
2025-03-30 17:21:25.041,6.83568211486984
2025-03-30 17:21:25.048,2.721435976779281
2025-03-30 17:21:25.049,-0.025793263561980327
2025-03-30 17:21:25.049,-1.617910042243914
2025-03-30 17:21:25.049,-3.8407166482808246
2025-03-30 17:21:25.049,-5.108584447390576
2025-03-30 17:21:25.058,-2.520827059187536
2025-03-30 17:21:25.059,2.870456003491856
2025-03-30 17:21:25.059,6.178343047425889
2025-03-30 17:21:25.059,4.379524705378799
2025-03-30 17:21:25.059,-0.2811045208225863
2025-03-30 17:21:25.068,-3.475422879635767
2025-03-30 17:21:25.068,-3.7209597179573914
2025-03-30 17:21:25.069,-2.617231970695176
2025-03-30 17:21:25.069,-1.2703056020906207
2025-03-30 17:21:25.078,1.1388468006894836
2025-03-30 17:21:25.078,4.649207467997391
2025-03-30 17:21:25.078,6.231755465887228
2025-03-30 17:21:25.078,2.3741387963763114
2025-03-30 17:21:25.079,-5.59678849584507
2025-03-30 17:21:25.088,-10.475341236810614
2025-03-30 17:21:25.088,-5.832100181720507
2025-03-30 17:21:25.088,5.7903121475989225
2025-03-30 17:21:25.088,13.413468171245022
2025-03-30 17:21:25.089,8.454265649592223
2025-03-30 17:21:25.096,-5.307761759219354
2025-03-30 17:21:25.097,-14.43665374849403
2025-03-30 17:21:25.097,-9.481006762561266
2025-03-30 17:21:25.097,4.692252676543464
2025-03-30 17:21:25.097,13.447829476421026
2025-03-30 17:21:25.106,7.89213297936544
2025-03-30 17:21:25.106,-5.161144641288186
2025-03-30 17:21:25.107,-10.715707162823037
2025-03-30 17:21:25.107,-3.1523059971545098
2025-03-30 17:21:25.116,7.000189713809428
2025-03-30 17:21:25.116,6.476548718309257
2025-03-30 17:21:25.117,-3.4634391610341853
2025-03-30 17:21:25.117,-8.783417012464055
2025-03-30 17:21:25.117,-1.6378995923318673
2025-03-30 17:21:25.124,8.930127276512208
2025-03-30 17:21:25.125,8.980544541461029
2025-03-30 17:21:25.125,-2.0713887626618743
2025-03-30 17:21:25.125,-10.950876920457194
2025-03-30 17:21:25.134,-7.331805931995049
2025-03-30 17:21:25.134,4.0450062056828475
2025-03-30 17:21:25.135,9.934767680369763
2025-03-30 17:21:25.135,4.301988067642181
2025-03-30 17:21:25.135,-5.546885645870061
2025-03-30 17:21:25.144,-8.151818950587895
2025-03-30 17:21:25.144,-0.8439245438786295
2025-03-30 17:21:25.144,7.766016791540877
2025-03-30 17:21:25.145,7.6272299458808
2025-03-30 17:21:25.145,-1.5870192703348174
2025-03-30 17:21:25.154,-9.953832966118675
2025-03-30 17:21:25.154,-8.146684083948903
2025-03-30 17:21:25.154,2.095052292802323
2025-03-30 17:21:25.155,9.86184720374162
2025-03-30 17:21:25.155,7.423980091404336
2025-03-30 17:21:25.162,-1.3996820251845268
2025-03-30 17:21:25.163,-6.552398379388267
2025-03-30 17:21:25.163,-3.7853724476001323
2025-03-30 17:21:25.163,1.3238494570082886
2025-03-30 17:21:25.172,1.6813683766467613
2025-03-30 17:21:25.172,-1.8875302378532521
2025-03-30 17:21:25.173,-2.4677720840087733
2025-03-30 17:21:25.173,2.4827101297804535
2025-03-30 17:21:25.173,6.68630780156208
2025-03-30 17:21:25.182,3.409248098038343
2025-03-30 17:21:25.182,-4.6473284108979955
2025-03-30 17:21:25.183,-8.084031048507228
2025-03-30 17:21:25.183,-2.9067970251652784
2025-03-30 17:21:25.183,4.504371175833119
2025-03-30 17:21:25.192,5.998452886701224
2025-03-30 17:21:25.192,1.5246606344713223
2025-03-30 17:21:25.192,-2.5859847314120485
2025-03-30 17:21:25.193,-2.6701114358578946
2025-03-30 17:21:25.193,-0.8854567844432162
2025-03-30 17:21:25.202,0.008830513291150886
2025-03-30 17:21:25.202,0.5769123293352652
2025-03-30 17:21:25.202,1.9232795051042988
2025-03-30 17:21:25.203,2.350957099386341
2025-03-30 17:21:25.203,-0.22504269225400847
2025-03-30 17:21:25.212,-3.9280207198956836
2025-03-30 17:21:25.212,-4.161565731433909
2025-03-30 17:21:25.213,0.3575542529000449
2025-03-30 17:21:25.213,5.1459292485503445
2025-03-30 17:21:25.213,4.9672249561514095
2025-03-30 17:21:25.222,0.0436687229891668
2025-03-30 17:21:25.222,-4.378371013575377
2025-03-30 17:21:25.222,-4.188116035502214
2025-03-30 17:21:25.223,-0.5726420265827717
2025-03-30 17:21:25.223,2.147025511188765
2025-03-30 17:21:25.232,1.633581430666459
2025-03-30 17:21:25.233,-0.25665915101867887
2025-03-30 17:21:25.233,-0.15932165730400397
2025-03-30 17:21:25.233,2.321953431398264
2025-03-30 17:21:25.233,3.453020367936671
2025-03-30 17:21:25.242,-0.26734503588166836
2025-03-30 17:21:25.242,-6.47998994498955
2025-03-30 17:21:25.243,-7.808444264043361
2025-03-30 17:21:25.243,-0.5074422461162267
2025-03-30 17:21:25.243,9.038075774635468
2025-03-30 17:21:25.252,10.146485934201428
2025-03-30 17:21:25.252,0.808367098811164
2025-03-30 17:21:25.252,-8.872007161220266
2025-03-30 17:21:25.253,-8.49522363527571
2025-03-30 17:21:25.253,0.25760128055857556
2025-03-30 17:21:25.262,6.573551379438283
2025-03-30 17:21:25.262,4.298560781734482
2025-03-30 17:21:25.262,-1.633640607285177
2025-03-30 17:21:25.262,-3.334288533362735
2025-03-30 17:21:25.263,-0.3842019616213077
2025-03-30 17:21:25.270,1.3577065409780855
2025-03-30 17:21:25.271,-0.5736442712866039
2025-03-30 17:21:25.271,-1.7762697400925016
2025-03-30 17:21:25.271,1.3888232671865477
2025-03-30 17:21:25.280,4.940935779508186
2025-03-30 17:21:25.280,2.3136932649819046
2025-03-30 17:21:25.281,-5.276584743397136
2025-03-30 17:21:25.281,-8.554184506777661
2025-03-30 17:21:25.281,-1.903261401382951
2025-03-30 17:21:25.290,8.22566182914705
2025-03-30 17:21:25.290,10.113650598643805
2025-03-30 17:21:25.290,0.9360383322694701
2025-03-30 17:21:25.290,-9.333472576780984
2025-03-30 17:21:25.291,-9.334422489524112
2025-03-30 17:21:25.298,0.5323279141777434
2025-03-30 17:21:25.299,8.83665700303726
2025-03-30 17:21:25.299,6.737718075032238
2025-03-30 17:21:25.299,-2.0498185376679574
2025-03-30 17:21:25.299,-6.901089880707312
2025-03-30 17:21:25.308,-3.5668894835761074
2025-03-30 17:21:25.309,2.285299955008283
2025-03-30 17:21:25.309,4.172392819383816
2025-03-30 17:21:25.309,2.1463238003586462
2025-03-30 17:21:25.318,-0.5080706193678719
2025-03-30 17:21:25.318,-2.685841154568573
2025-03-30 17:21:25.319,-4.031829079989658
2025-03-30 17:21:25.319,-2.224324431567228
2025-03-30 17:21:25.319,3.405995247574616
2025-03-30 17:21:25.328,7.747112656957216
2025-03-30 17:21:25.328,4.638094893994281
2025-03-30 17:21:25.328,-4.31377294439167
2025-03-30 17:21:25.329,-10.00766959712098
2025-03-30 17:21:25.329,-6.291416356903762
2025-03-30 17:21:25.337,2.9264782518501873
2025-03-30 17:21:25.337,8.736534352444108
2025-03-30 17:21:25.337,7.001316027290262
2025-03-30 17:21:25.337,0.8796352717840937
2025-03-30 17:21:25.337,-4.493917236259876
2025-03-30 17:21:25.346,-6.618306720115221
2025-03-30 17:21:25.347,-5.223318446627494
2025-03-30 17:21:25.347,-0.6916964783525366
2025-03-30 17:21:25.347,5.125964190200343
2025-03-30 17:21:25.356,8.166736235944686
2025-03-30 17:21:25.356,5.038908157965049
2025-03-30 17:21:25.357,-2.6872035303314465
2025-03-30 17:21:25.357,-8.661693837671097
2025-03-30 17:21:25.357,-7.550912178664079
2025-03-30 17:21:25.366,-0.3459966577279199
2025-03-30 17:21:25.366,6.727790229345373
2025-03-30 17:21:25.367,8.135836438531909
2025-03-30 17:21:25.367,3.338331404117235
2025-03-30 17:21:25.367,-3.728208973514703
2025-03-30 17:21:25.376,-7.756371209019002
2025-03-30 17:21:25.376,-5.295962029929738
2025-03-30 17:21:25.376,2.2100416465450725
2025-03-30 17:21:25.377,7.851279287699946
2025-03-30 17:21:25.377,5.011126123280344
2025-03-30 17:21:25.384,-4.080579561484356
2025-03-30 17:21:25.385,-8.745112023374979
2025-03-30 17:21:25.385,-2.398092599434281
2025-03-30 17:21:25.385,7.937193649352403
2025-03-30 17:21:25.385,9.51933116632971
2025-03-30 17:21:25.394,-0.05380827457485948
2025-03-30 17:21:25.395,-10.032394826959548
2025-03-30 17:21:25.395,-9.89778985611086
2025-03-30 17:21:25.395,-0.5969813798634404
2025-03-30 17:21:25.404,8.684363881588146
2025-03-30 17:21:25.404,10.488185534814079
2025-03-30 17:21:25.404,3.9915664359445233
2025-03-30 17:21:25.405,-5.887232798631632
2025-03-30 17:21:25.405,-11.318051832452316
2025-03-30 17:21:25.412,-6.764377514256667
2025-03-30 17:21:25.413,4.642247852784337
2025-03-30 17:21:25.413,11.673834178805908
2025-03-30 17:21:25.413,6.24854711505096
2025-03-30 17:21:25.422,-6.100282804245674
2025-03-30 17:21:25.422,-11.116140260954067
2025-03-30 17:21:25.423,-2.547669571497517
2025-03-30 17:21:25.423,9.462013366108192
2025-03-30 17:21:25.423,9.899416525359547
2025-03-30 17:21:25.432,-2.67294784816375
2025-03-30 17:21:25.432,-13.386291777674819
2025-03-30 17:21:25.432,-8.462840104892953
2025-03-30 17:21:25.433,7.607133873452869
2025-03-30 17:21:25.433,16.361322329282338
2025-03-30 17:21:25.440,6.967546826835752
2025-03-30 17:21:25.441,-10.537819975282137
2025-03-30 17:21:25.441,-16.665971934001
2025-03-30 17:21:25.441,-5.137720811851204
2025-03-30 17:21:25.450,10.369209602127025
2025-03-30 17:21:25.450,13.10322065902056
2025-03-30 17:21:25.450,2.583642012457263
2025-03-30 17:21:25.451,-7.053716263518594
2025-03-30 17:21:25.451,-5.9754028673390165
2025-03-30 17:21:25.460,0.4083714248376831
2025-03-30 17:21:25.460,1.5681826031802946
2025-03-30 17:21:25.460,-2.649073566286387
2025-03-30 17:21:25.461,-2.9762417278950393
2025-03-30 17:21:25.461,4.159196452812471
2025-03-30 17:21:25.470,9.799572476226727
2025-03-30 17:21:25.470,4.406163922413496
2025-03-30 17:21:25.470,-7.879131304126302
2025-03-30 17:21:25.471,-13.02206162373751
2025-03-30 17:21:25.471,-4.56179619644192
2025-03-30 17:21:25.478,8.254317090794515
2025-03-30 17:21:25.479,11.819238939241522
2025-03-30 17:21:25.479,3.7915887592036372
2025-03-30 17:21:25.479,-5.9090530310144915
2025-03-30 17:21:25.488,-7.737283415892493
2025-03-30 17:21:25.488,-2.3113461925177465
2025-03-30 17:21:25.488,2.7759725192870564
2025-03-30 17:21:25.489,2.8459445312805682
2025-03-30 17:21:25.489,0.3418575488383312
2025-03-30 17:21:25.498,-0.21343999723892304
2025-03-30 17:21:25.498,1.3021665014809063
2025-03-30 17:21:25.498,1.2014973762415295
2025-03-30 17:21:25.499,-1.7739636015148943
2025-03-30 17:21:25.499,-3.7668302541372443
2025-03-30 17:21:25.508,-1.0718665448840103
2025-03-30 17:21:25.508,3.7572128777397054
2025-03-30 17:21:25.508,4.301111600908529
2025-03-30 17:21:25.509,-1.005881450712572
2025-03-30 17:21:25.509,-5.794618703714313
2025-03-30 17:21:25.518,-3.550390741124928
2025-03-30 17:21:25.518,3.569545442766933
2025-03-30 17:21:25.518,6.996950010908985
2025-03-30 17:21:25.519,2.578869635696558
2025-03-30 17:21:25.519,-4.279278296595097
2025-03-30 17:21:25.526,-5.851500090464935
2025-03-30 17:21:25.526,-1.7314600806117135
2025-03-30 17:21:25.527,1.9138302329051917
2025-03-30 17:21:25.527,1.5155686265036652
2025-03-30 17:21:25.536,0.34283586780911923
2025-03-30 17:21:25.537,2.2547976386560604
2025-03-30 17:21:25.537,4.771193695888848
2025-03-30 17:21:25.537,2.153029419800254
2025-03-30 17:21:25.537,-5.4419068206044
2025-03-30 17:21:25.546,-10.00282530694525
2025-03-30 17:21:25.547,-4.9596929438623265
2025-03-30 17:21:25.547,5.773410994594612
2025-03-30 17:21:25.547,11.289727180047658
2025-03-30 17:21:25.547,6.192625303314999
2025-03-30 17:21:25.556,-3.3832705063489557
2025-03-30 17:21:25.556,-7.673501187548081
2025-03-30 17:21:25.556,-4.637148450515057
2025-03-30 17:21:25.557,-0.34880909425029333
2025-03-30 17:21:25.557,0.6953689110990948
2025-03-30 17:21:25.566,1.0224794076956394
2025-03-30 17:21:25.566,4.048477774765439
2025-03-30 17:21:25.566,6.521410600128531
2025-03-30 17:21:25.567,2.2899495227541404
2025-03-30 17:21:25.567,-6.994167787721837
2025-03-30 17:21:25.575,-10.897276877242884
2025-03-30 17:21:25.575,-3.107295090232445
2025-03-30 17:21:25.575,8.715569283993167
2025-03-30 17:21:25.575,11.131686898680515
2025-03-30 17:21:25.575,1.5701111697088896
2025-03-30 17:21:25.584,-8.603622544538327
2025-03-30 17:21:25.585,-8.46726105778503
2025-03-30 17:21:25.585,-0.07773241108004558
2025-03-30 17:21:25.585,6.197756879473109
2025-03-30 17:21:25.594,5.178278681087101
2025-03-30 17:21:25.594,0.9516148433562095
2025-03-30 17:21:25.594,-1.3512571813239125
2025-03-30 17:21:25.594,-2.344978113260822
2025-03-30 17:21:25.595,-4.576706310671348
2025-03-30 17:21:25.604,-5.704500838480426
2025-03-30 17:21:25.604,-0.6121267633911391
2025-03-30 17:21:25.604,9.29036433794253
2025-03-30 17:21:25.605,13.628149484519941
2025-03-30 17:21:25.605,4.261443747108381
2025-03-30 17:21:25.612,-12.331845649503142
2025-03-30 17:21:25.613,-19.159862072705653
2025-03-30 17:21:25.613,-7.582026035482942
2025-03-30 17:21:25.613,11.460612543125789
2025-03-30 17:21:25.620,18.92649045760885
2025-03-30 17:21:25.621,8.684205925803193
2025-03-30 17:21:25.621,-7.102530288177275
2025-03-30 17:21:25.621,-13.110505041118683
2025-03-30 17:21:25.630,-6.7443315170120055
2025-03-30 17:21:25.630,2.569776703805236
2025-03-30 17:21:25.631,5.855976605685652
2025-03-30 17:21:25.631,2.744175536504418
2025-03-30 17:21:25.631,-1.162748630209222
2025-03-30 17:21:25.640,-1.4049546355837657
2025-03-30 17:21:25.640,1.4324803471720258
2025-03-30 17:21:25.641,3.1701735996464033
2025-03-30 17:21:25.641,0.7631758477703721
2025-03-30 17:21:25.641,-3.9809703380393917
2025-03-30 17:21:25.650,-5.883709040664831
2025-03-30 17:21:25.650,-2.22861370984685
2025-03-30 17:21:25.651,3.7617695150329724
2025-03-30 17:21:25.651,6.387313956897124
2025-03-30 17:21:25.651,3.7033394421882058
2025-03-30 17:21:25.660,-1.0419541501741605
2025-03-30 17:21:25.660,-3.7558277525851818
2025-03-30 17:21:25.660,-3.6353927650739424
2025-03-30 17:21:25.661,-2.5090181074995987
2025-03-30 17:21:25.661,-1.2957388342700689
2025-03-30 17:21:25.670,1.227506131082803
2025-03-30 17:21:25.670,5.317055024950964
2025-03-30 17:21:25.671,7.202953926144361
2025-03-30 17:21:25.671,2.314266173562144
2025-03-30 17:21:25.671,-7.152410740200223
2025-03-30 17:21:25.680,-11.451333884411724
2025-03-30 17:21:25.680,-4.137051145355634
2025-03-30 17:21:25.680,8.159576072070927
2025-03-30 17:21:25.681,11.983543947848746
2025-03-30 17:21:25.681,3.244728002478408
2025-03-30 17:21:25.688,-7.804063761648584
2025-03-30 17:21:25.689,-9.387523388638886
2025-03-30 17:21:25.689,-1.6333810003614824
2025-03-30 17:21:25.689,5.764705171407514
2025-03-30 17:21:25.689,6.0169760585945555
2025-03-30 17:21:25.700,1.2181628790609047
2025-03-30 17:21:25.700,-2.8222694077813335
2025-03-30 17:21:25.700,-3.398255565284827
2025-03-30 17:21:25.701,-1.6788534576040375
2025-03-30 17:21:25.701,0.2948188542839179
2025-03-30 17:21:25.709,1.397853359928178
2025-03-30 17:21:25.709,1.4105469765474024
2025-03-30 17:21:25.709,0.8351245091253823
2025-03-30 17:21:25.709,0.5533571285625104
2025-03-30 17:21:25.709,0.785696632134268
2025-03-30 17:21:25.719,0.3670926618600419
2025-03-30 17:21:25.719,-2.043444930137158
2025-03-30 17:21:25.719,-5.2480692414114225
2025-03-30 17:21:25.719,-4.854205506970392
2025-03-30 17:21:25.719,2.1476988140341815
2025-03-30 17:21:25.728,11.208411080894857
2025-03-30 17:21:25.729,11.863760097150001
2025-03-30 17:21:25.729,-0.5701290680853741
2025-03-30 17:21:25.729,-16.18237445915551
2025-03-30 17:21:25.738,-18.389669814870313
2025-03-30 17:21:25.738,-2.486542516938343
2025-03-30 17:21:25.738,17.13875468386783
2025-03-30 17:21:25.739,21.342759422659714
2025-03-30 17:21:25.739,6.3479661377812056
2025-03-30 17:21:25.746,-13.0519004995325
2025-03-30 17:21:25.747,-19.516714054945044
2025-03-30 17:21:25.747,-9.527361197122081
2025-03-30 17:21:25.747,6.05188500446458
2025-03-30 17:21:25.756,14.131504683617363
2025-03-30 17:21:25.756,10.25917017809926
2025-03-30 17:21:25.757,-0.07224257783166932
2025-03-30 17:21:25.757,-7.740842195514274
2025-03-30 17:21:25.757,-7.708283980830657
2025-03-30 17:21:25.766,-2.343976329487184
2025-03-30 17:21:25.766,2.2399129743437616
2025-03-30 17:21:25.767,3.0388915697608416
2025-03-30 17:21:25.767,2.183893402181173
2025-03-30 17:21:25.767,1.9424127457496787
2025-03-30 17:21:25.776,0.7726041895687374
2025-03-30 17:21:25.776,-2.7900952757911486
2025-03-30 17:21:25.776,-4.994676417853393
2025-03-30 17:21:25.777,-1.0234293083676116
2025-03-30 17:21:25.777,6.064318619620586
2025-03-30 17:21:25.784,6.80271219384642
2025-03-30 17:21:25.784,-1.8034897619885553
2025-03-30 17:21:25.785,-10.190620759751269
2025-03-30 17:21:25.785,-7.54978361955171
2025-03-30 17:21:25.794,4.01344020086011
2025-03-30 17:21:25.794,11.865528813107462
2025-03-30 17:21:25.794,8.188424721726598
2025-03-30 17:21:25.795,-2.170825378163274
2025-03-30 17:21:25.795,-9.484507891054385
2025-03-30 17:21:25.804,-9.555429811508562
2025-03-30 17:21:25.804,-4.0738879828655135
2025-03-30 17:21:25.804,4.3074219501891315
2025-03-30 17:21:25.805,11.838322804067568
2025-03-30 17:21:25.805,11.639008467572733
2025-03-30 17:21:25.812,-0.11191573123957554
2025-03-30 17:21:25.813,-14.70421819266176
2025-03-30 17:21:25.813,-15.783256415875732
2025-03-30 17:21:25.813,0.6727663004862721
2025-03-30 17:21:25.822,17.100668039040162
2025-03-30 17:21:25.822,13.586146766794599
2025-03-30 17:21:25.823,-6.087176829849689
2025-03-30 17:21:25.823,-17.58757452260147
2025-03-30 17:21:25.823,-6.824830711128085
2025-03-30 17:21:25.831,12.165962818450078
2025-03-30 17:21:25.831,15.941708416726186
2025-03-30 17:21:25.831,1.0133066394829904
2025-03-30 17:21:25.831,-14.181039774295993
2025-03-30 17:21:25.840,-13.523979474219711
2025-03-30 17:21:25.840,-0.33751108340009994
2025-03-30 17:21:25.840,10.63879781911982
2025-03-30 17:21:25.841,10.879312135249213
2025-03-30 17:21:25.841,3.6984138225779075
2025-03-30 17:21:25.848,-3.3910878727602913
2025-03-30 17:21:25.849,-6.591816501517223
2025-03-30 17:21:25.849,-6.417890799034188
2025-03-30 17:21:25.849,-4.2076174747173525
2025-03-30 17:21:25.858,-0.272408811478172
2025-03-30 17:21:25.858,4.873863790035113
2025-03-30 17:21:25.859,8.767002083333045
2025-03-30 17:21:25.859,7.838062720247245
2025-03-30 17:21:25.859,0.9744443642711257
2025-03-30 17:21:25.868,-7.992551689528156
2025-03-30 17:21:25.868,-12.470941506134384
2025-03-30 17:21:25.868,-8.442551677651274
2025-03-30 17:21:25.869,2.0890103565527576
2025-03-30 17:21:25.869,12.148827973304671
2025-03-30 17:21:25.876,14.140898746654242
2025-03-30 17:21:25.877,5.386377719633552
2025-03-30 17:21:25.877,-8.26538931616215
2025-03-30 17:21:25.877,-15.511849968057065
2025-03-30 17:21:25.886,-9.651610019250658
2025-03-30 17:21:25.886,3.8513370171442864
2025-03-30 17:21:25.887,12.324948329296474
2025-03-30 17:21:25.887,9.04500909220364
2025-03-30 17:21:25.887,-0.7815289231830589
2025-03-30 17:21:25.896,-7.362419135448117
2025-03-30 17:21:25.896,-6.407979928441285
2025-03-30 17:21:25.896,-0.7856574697506267
2025-03-30 17:21:25.897,4.320482301659368
2025-03-30 17:21:25.897,5.286204043790247
2025-03-30 17:21:25.906,1.478968238058661
2025-03-30 17:21:25.906,-4.087948518093183
2025-03-30 17:21:25.906,-6.281993406034757
2025-03-30 17:21:25.907,-2.3858355787548193
2025-03-30 17:21:25.907,4.533988539224397
2025-03-30 17:21:25.916,7.882982455189673
2025-03-30 17:21:25.916,3.9152433087659695
2025-03-30 17:21:25.916,-4.0343253866915365
2025-03-30 17:21:25.917,-8.277352177101525
2025-03-30 17:21:25.917,-4.608857249987443
2025-03-30 17:21:25.926,2.865770397326814
2025-03-30 17:21:25.926,6.140721612173785
2025-03-30 17:21:25.926,2.6377883972827867
2025-03-30 17:21:25.927,-1.9471979000088553
2025-03-30 17:21:25.927,-1.4443249230513053
2025-03-30 17:21:25.935,2.236581858883929
2025-03-30 17:21:25.935,1.7584012111826128
2025-03-30 17:21:25.935,-4.522570061725796
2025-03-30 17:21:25.935,-8.429274163935531
2025-03-30 17:21:25.935,-2.1693883398219995
2025-03-30 17:21:25.944,9.750195750347507
2025-03-30 17:21:25.944,13.717748180434276
2025-03-30 17:21:25.945,3.071175237271713
2025-03-30 17:21:25.945,-12.575587913369983
2025-03-30 17:21:25.954,-16.802971765685065
2025-03-30 17:21:25.954,-4.263927226348322
2025-03-30 17:21:25.954,12.998273360252286
2025-03-30 17:21:25.955,17.62345753060289
2025-03-30 17:21:25.955,4.760172185354457
2025-03-30 17:21:25.962,-12.58859103139386
2025-03-30 17:21:25.962,-16.55936783286641
2025-03-30 17:21:25.963,-3.218766757836919
2025-03-30 17:21:25.963,12.682537315550213
2025-03-30 17:21:25.972,13.612247829414962
2025-03-30 17:21:25.972,-0.7559020454555702
2025-03-30 17:21:25.973,-12.985187227912379
2025-03-30 17:21:25.973,-8.670179524574953
2025-03-30 17:21:25.973,6.093009696017876
2025-03-30 17:21:25.980,12.444402253646917
2025-03-30 17:21:25.981,2.4733029071594532
2025-03-30 17:21:25.981,-10.897393778940822
2025-03-30 17:21:25.981,-10.501715707264172
2025-03-30 17:21:25.981,3.203220737668679
2025-03-30 17:21:25.990,13.050129799628778
2025-03-30 17:21:25.990,7.242131659490401
2025-03-30 17:21:25.991,-6.353289404450906
2025-03-30 17:21:25.991,-11.384660949842948
2025-03-30 17:21:26.000,-3.509505836290889
2025-03-30 17:21:26.000,6.307643418284738
2025-03-30 17:21:26.000,7.247169347688062
2025-03-30 17:21:26.001,0.7434053133625028
2025-03-30 17:21:26.001,-4.447116562073229
2025-03-30 17:21:26.010,-3.8602527010918766
2025-03-30 17:21:26.010,-0.09559707849873367
2025-03-30 17:21:26.010,2.877968377506156
2025-03-30 17:21:26.011,3.5055816324630276
2025-03-30 17:21:26.011,1.5803768190857275
2025-03-30 17:21:26.020,-2.4071610530957215
2025-03-30 17:21:26.020,-5.814670577854395
2025-03-30 17:21:26.020,-4.535404258794797
2025-03-30 17:21:26.021,2.4336286649632464
2025-03-30 17:21:26.021,9.476923427468453
2025-03-30 17:21:26.028,8.096921492839202
2025-03-30 17:21:26.028,-3.179877351712794
2025-03-30 17:21:26.029,-13.715260540391464
2025-03-30 17:21:26.029,-10.436479009932786
2025-03-30 17:21:26.038,5.479780240299886
2025-03-30 17:21:26.038,16.725997493963632
2025-03-30 17:21:26.038,9.594466600376254
2025-03-30 17:21:26.039,-8.043325418339226
2025-03-30 17:21:26.039,-15.557100306019487
2025-03-30 17:21:26.048,-5.351984271877175
2025-03-30 17:21:26.048,8.32612940555472
2025-03-30 17:21:26.048,9.043388005143411
2025-03-30 17:21:26.049,-0.8566595490492854
2025-03-30 17:21:26.049,-5.764728408396151
2025-03-30 17:21:26.058,0.5653072747801587
2025-03-30 17:21:26.058,7.042620378512763
2025-03-30 17:21:26.058,1.9555640773624297
2025-03-30 17:21:26.059,-9.527523782514471
2025-03-30 17:21:26.059,-11.362285814400877
2025-03-30 17:21:26.066,1.5689496233088838
2025-03-30 17:21:26.067,15.011796709388909
2025-03-30 17:21:26.067,12.3814429285535
2025-03-30 17:21:26.067,-4.0804432951554865
2025-03-30 17:21:26.076,-15.528983241241063
2025-03-30 17:21:26.076,-9.559903624668078
2025-03-30 17:21:26.076,5.344600835846514
2025-03-30 17:21:26.077,11.523263814172475
2025-03-30 17:21:26.077,3.7416679994105015
2025-03-30 17:21:26.086,-6.325157221915055
2025-03-30 17:21:26.086,-6.060468990701821
2025-03-30 17:21:26.087,3.037253223390333
2025-03-30 17:21:26.087,8.574355608322742
2025-03-30 17:21:26.087,2.8746914148862794
2025-03-30 17:21:26.094,-8.024196734830294
2025-03-30 17:21:26.095,-11.581325166409481
2025-03-30 17:21:26.095,-3.164982461172337
2025-03-30 17:21:26.095,8.759595328559659
2025-03-30 17:21:26.104,12.292246217593002
2025-03-30 17:21:26.104,5.121231619617213
2025-03-30 17:21:26.104,-4.398232737708119
2025-03-30 17:21:26.104,-8.279198738827372
2025-03-30 17:21:26.105,-6.788175122285328
2025-03-30 17:21:26.112,-3.7392413812762793
2025-03-30 17:21:26.113,0.9136004192798497
2025-03-30 17:21:26.113,8.114766612650195
2025-03-30 17:21:26.113,12.28135886234432
2025-03-30 17:21:26.113,5.421378328444432
2025-03-30 17:21:26.122,-9.494630588116795
2025-03-30 17:21:26.123,-17.113241817660267
2025-03-30 17:21:26.123,-7.363681232517288
2025-03-30 17:21:26.123,10.092895440939001
2025-03-30 17:21:26.132,16.074937764219627
2025-03-30 17:21:26.132,4.98312096629944
2025-03-30 17:21:26.132,-9.140902530816469
2025-03-30 17:21:26.133,-10.662285949913395
2025-03-30 17:21:26.133,-0.4775263688486501
2025-03-30 17:21:26.140,7.544588951352029
2025-03-30 17:21:26.141,4.6523286951101905
2025-03-30 17:21:26.141,-3.551310429826348
2025-03-30 17:21:26.141,-6.190777125172234
2025-03-30 17:21:26.150,-0.9935189741519991
2025-03-30 17:21:26.150,4.456224559645186
2025-03-30 17:21:26.151,3.897796579311197
2025-03-30 17:21:26.151,0.06792374533655898
2025-03-30 17:21:26.151,-0.9457125137711723
2025-03-30 17:21:26.160,0.6890234404290014
2025-03-30 17:21:26.160,-0.4275554147499044
2025-03-30 17:21:26.160,-5.083269844235812
2025-03-30 17:21:26.161,-6.459950434063928
2025-03-30 17:21:26.161,0.2976882776601629
2025-03-30 17:21:26.170,9.583420047066033
2025-03-30 17:21:26.170,10.927464705088164
2025-03-30 17:21:26.170,1.7293895889333062
2025-03-30 17:21:26.171,-9.553868436406116
2025-03-30 17:21:26.171,-12.813111130666947
2025-03-30 17:21:26.178,-5.847847429545523
2025-03-30 17:21:26.179,5.306112606682562
2025-03-30 17:21:26.179,12.298208471574405
2025-03-30 17:21:26.179,10.085663227706705
2025-03-30 17:21:26.179,0.07222945866983893
2025-03-30 17:21:26.188,-10.054113715817332
2025-03-30 17:21:26.189,-11.639537214101312
2025-03-30 17:21:26.189,-3.1967523262293236
2025-03-30 17:21:26.189,7.089866090826971
2025-03-30 17:21:26.198,9.322612857000172
2025-03-30 17:21:26.199,2.549511349758303
2025-03-30 17:21:26.199,-4.590924880467119
2025-03-30 17:21:26.199,-4.35023201106069
2025-03-30 17:21:26.199,1.2447832687886882
2025-03-30 17:21:26.208,3.6467588102688135
2025-03-30 17:21:26.208,-1.1219675345396831
2025-03-30 17:21:26.209,-6.885852336141913
2025-03-30 17:21:26.209,-4.389149991022158
2025-03-30 17:21:26.209,6.22175367721789
2025-03-30 17:21:26.216,12.849016181067709
2025-03-30 17:21:26.217,4.971444289161371
2025-03-30 17:21:26.217,-11.163768299927764
2025-03-30 17:21:26.217,-16.794670614311034
2025-03-30 17:21:26.226,-3.1694590348670726
2025-03-30 17:21:26.226,15.30439682922236
2025-03-30 17:21:26.226,16.848972873739942
2025-03-30 17:21:26.227,-0.8053230730766259
2025-03-30 17:21:26.227,-17.047611280376785
2025-03-30 17:21:26.235,-13.538011493890163
2025-03-30 17:21:26.235,4.25340224520908
2025-03-30 17:21:26.235,15.501505816299606
2025-03-30 17:21:26.235,9.369772121870652
2025-03-30 17:21:26.244,-4.855749274792186
2025-03-30 17:21:26.245,-11.635801097437719
2025-03-30 17:21:26.245,-6.393444433119739
2025-03-30 17:21:26.245,3.067944325299316
2025-03-30 17:21:26.245,7.501508158754315
2025-03-30 17:21:26.254,4.701542341003677
2025-03-30 17:21:26.254,-1.08148035998175
2025-03-30 17:21:26.255,-4.498213000958738
2025-03-30 17:21:26.255,-3.344136719079584
2025-03-30 17:21:26.255,0.4595767365956281
2025-03-30 17:21:26.264,2.916337316602358
2025-03-30 17:21:26.264,1.6824533791394567
2025-03-30 17:21:26.264,-1.4821745452642254
2025-03-30 17:21:26.265,-2.463911626079135
2025-03-30 17:21:26.265,0.29985268106309504
2025-03-30 17:21:26.274,3.3669443913298407
2025-03-30 17:21:26.274,2.269522597602572
2025-03-30 17:21:26.275,-2.27294895505749
2025-03-30 17:21:26.275,-4.535876856958975
2025-03-30 17:21:26.275,-1.255364969677655
2025-03-30 17:21:26.283,3.613925532879105
2025-03-30 17:21:26.283,4.0058188349979185
2025-03-30 17:21:26.283,-0.2636145381439715
2025-03-30 17:21:26.283,-3.7793919670568226
2025-03-30 17:21:26.283,-2.8649824127139225
2025-03-30 17:21:26.294,0.7043105943650242
2025-03-30 17:21:26.294,3.2091575350366286
2025-03-30 17:21:26.294,3.0111234691028677
2025-03-30 17:21:26.294,0.5153266028968286
2025-03-30 17:21:26.295,-2.9134661208572687
2025-03-30 17:21:26.304,-4.717079561394712
2025-03-30 17:21:26.304,-2.3840826743738175
2025-03-30 17:21:26.304,3.043921043311553
2025-03-30 17:21:26.305,6.415452269502052
2025-03-30 17:21:26.305,3.7615483157234606
2025-03-30 17:21:26.312,-2.622207812310188
2025-03-30 17:21:26.313,-6.434487990910835
2025-03-30 17:21:26.313,-4.372235568486505
2025-03-30 17:21:26.313,0.8956614953478406
2025-03-30 17:21:26.313,4.517906432527287
2025-03-30 17:21:26.322,4.277215794279443
2025-03-30 17:21:26.323,1.3287077601394188
2025-03-30 17:21:26.323,-1.8963050877988965
2025-03-30 17:21:26.323,-3.3220513969567182
2025-03-30 17:21:26.332,-2.0963263139930177
2025-03-30 17:21:26.333,0.5043950573773822
2025-03-30 17:21:26.333,1.6316970924428449
2025-03-30 17:21:26.333,0.017179767704946225
2025-03-30 17:21:26.333,-1.7160437381561107
2025-03-30 17:21:26.342,0.05314958280849498
2025-03-30 17:21:26.342,4.340987681977868
2025-03-30 17:21:26.342,5.228416930824452
2025-03-30 17:21:26.343,-0.8698235237559453
2025-03-30 17:21:26.343,-8.871014942110504
2025-03-30 17:21:26.352,-9.150659532043138
2025-03-30 17:21:26.352,0.7950009986616842
2025-03-30 17:21:26.352,11.387066037203331
2025-03-30 17:21:26.353,10.881559896758517
2025-03-30 17:21:26.353,-0.5539409976532762
2025-03-30 17:21:26.362,-10.558260410945863
2025-03-30 17:21:26.362,-9.12982265496692
2025-03-30 17:21:26.362,0.39324520662891915
2025-03-30 17:21:26.363,6.995340204374899
2025-03-30 17:21:26.363,5.305449704869496
2025-03-30 17:21:26.370,-0.2107923895804214
2025-03-30 17:21:26.371,-2.8394957256699844
2025-03-30 17:21:26.371,-1.5345733836852857
2025-03-30 17:21:26.371,-0.1344153013391863
2025-03-30 17:21:26.380,-0.8292765006872372
2025-03-30 17:21:26.381,-1.1671191502120648
2025-03-30 17:21:26.381,1.4872812481376352
2025-03-30 17:21:26.381,4.508771445334097
2025-03-30 17:21:26.381,2.4087300565174363
2025-03-30 17:21:26.381,-4.646878805567713
2025-03-30 17:21:26.390,-8.392079951584995
2025-03-30 17:21:26.391,-2.140940782097465
2025-03-30 17:21:26.391,8.777552700140614
2025-03-30 17:21:26.391,11.320664281854627
2025-03-30 17:21:26.400,0.8234261691930534
2025-03-30 17:21:26.400,-11.566842827710012
2025-03-30 17:21:26.401,-11.436693487999708
2025-03-30 17:21:26.401,1.0334856412000186
2025-03-30 17:21:26.401,10.95529853068639
2025-03-30 17:21:26.410,7.362744836342229
2025-03-30 17:21:26.410,-3.2370213461102537
2025-03-30 17:21:26.410,-6.357838806596696
2025-03-30 17:21:26.411,0.6129645581550069
2025-03-30 17:21:26.411,5.4768761136172115
2025-03-30 17:21:26.419,-0.6400553202417683
2025-03-30 17:21:26.419,-9.766730195899035
2025-03-30 17:21:26.419,-7.653981425020156
2025-03-30 17:21:26.419,6.178200486682377
2025-03-30 17:21:26.419,16.522169007774245
2025-03-30 17:21:26.428,10.774989391856174
2025-03-30 17:21:26.428,-6.5234495882310135
2025-03-30 17:21:26.429,-19.145432850525815
2025-03-30 17:21:26.429,-15.55499836182672
2025-03-30 17:21:26.437,1.416968222899209
2025-03-30 17:21:26.437,17.855268243484364
2025-03-30 17:21:26.437,20.033728742488684
2025-03-30 17:21:26.437,5.632064332343642
2025-03-30 17:21:26.446,-13.40510970706795
2025-03-30 17:21:26.446,-20.671350623986612
2025-03-30 17:21:26.447,-10.440518663908048
2025-03-30 17:21:26.447,7.088683606210932
2025-03-30 17:21:26.447,16.343307208872638
2025-03-30 17:21:26.456,11.154318410089619
2025-03-30 17:21:26.456,-1.378222334671294
2025-03-30 17:21:26.457,-9.643973708999527
2025-03-30 17:21:26.457,-8.262640888684212
2025-03-30 17:21:26.457,-1.143021846055852
2025-03-30 17:21:26.465,3.9350613724228047
2025-03-30 17:21:26.465,3.155300619961764
2025-03-30 17:21:26.465,-0.27345323061293636
2025-03-30 17:21:26.465,-0.6614122707679618
2025-03-30 17:21:26.465,2.7067335918526663
2025-03-30 17:21:26.475,4.118002315414864
2025-03-30 17:21:26.475,-0.946150693650074
2025-03-30 17:21:26.475,-8.043065593943854
2025-03-30 17:21:26.475,-7.509554291337108
2025-03-30 17:21:26.484,2.6916167564773157
2025-03-30 17:21:26.484,11.751897133324738
2025-03-30 17:21:26.484,7.885390637645049
2025-03-30 17:21:26.485,-5.968732300277756
2025-03-30 17:21:26.485,-13.5913919386366
2025-03-30 17:21:26.494,-4.69365662510494
2025-03-30 17:21:26.494,11.156843700228233
2025-03-30 17:21:26.494,14.536524962539852
2025-03-30 17:21:26.494,-0.30345841995704326
2025-03-30 17:21:26.495,-16.955278367197483
2025-03-30 17:21:26.503,-15.306783100000418
2025-03-30 17:21:26.503,4.187589501457867
2025-03-30 17:21:26.503,20.114936967321608
2025-03-30 17:21:26.503,14.91296127286614
2025-03-30 17:21:26.512,-4.957889408493136
2025-03-30 17:21:26.512,-17.634533364552244
2025-03-30 17:21:26.512,-11.620483774575174
2025-03-30 17:21:26.513,3.064672532917937
2025-03-30 17:21:26.513,9.781461765047782
2025-03-30 17:21:26.522,5.081151002766672
2025-03-30 17:21:26.522,-0.779921957893558
2025-03-30 17:21:26.523,0.05721733865835529
2025-03-30 17:21:26.523,3.113409657046982
2025-03-30 17:21:26.523,-0.05725741177498843
2025-03-30 17:21:26.530,-8.100744141041206
2025-03-30 17:21:26.531,-10.29796458711992
2025-03-30 17:21:26.531,-0.980143339808396
2025-03-30 17:21:26.531,11.676632148843574
2025-03-30 17:21:26.540,14.436958878011414
2025-03-30 17:21:26.540,3.918063157498051
2025-03-30 17:21:26.541,-10.27219036185293
2025-03-30 17:21:26.541,-15.670643285050417
2025-03-30 17:21:26.541,-7.970909607917635
2025-03-30 17:21:26.549,6.232309873771173
2025-03-30 17:21:26.549,15.061570134879531
2025-03-30 17:21:26.549,10.993954611610704
2025-03-30 17:21:26.549,-2.3180953616515083
2025-03-30 17:21:26.558,-12.8762663805096
2025-03-30 17:21:26.559,-11.59034717272517
2025-03-30 17:21:26.559,-0.7473377242831365
2025-03-30 17:21:26.559,9.249742881176667
2025-03-30 17:21:26.559,10.400311450212579
2025-03-30 17:21:26.568,3.3285369526400026
2025-03-30 17:21:26.568,-5.192810935663212
2025-03-30 17:21:26.569,-8.525099509270465
2025-03-30 17:21:26.569,-4.830307165817941
2025-03-30 17:21:26.569,1.956563598229337
2025-03-30 17:21:26.578,5.714974670020044
2025-03-30 17:21:26.579,4.137832602860039
2025-03-30 17:21:26.579,0.5277056234298639
2025-03-30 17:21:26.579,-1.368285986479217
2025-03-30 17:21:26.579,-2.0163956325053016
2025-03-30 17:21:26.588,-3.19224551340453
2025-03-30 17:21:26.588,-3.1611569926094294
2025-03-30 17:21:26.588,0.7272474671377577
2025-03-30 17:21:26.589,5.752160723760304
2025-03-30 17:21:26.589,5.460208052270575
2025-03-30 17:21:26.598,-1.1735055576995357
2025-03-30 17:21:26.598,-6.719486336810348
2025-03-30 17:21:26.599,-4.427478856307575
2025-03-30 17:21:26.599,2.5254044041026185
2025-03-30 17:21:26.599,5.038258095587871
2025-03-30 17:21:26.608,0.442856794021214
2025-03-30 17:21:26.608,-3.853617999598775
2025-03-30 17:21:26.609,-0.9744938268851964
2025-03-30 17:21:26.609,5.063832439489482
2025-03-30 17:21:26.609,4.401854449426476
2025-03-30 17:21:26.617,-4.154378649108248
2025-03-30 17:21:26.617,-9.657659488228973
2025-03-30 17:21:26.617,-3.198577326949125
2025-03-30 17:21:26.617,8.763425195424103
2025-03-30 17:21:26.618,11.246719817274384
2025-03-30 17:21:26.626,0.14103300616879255
2025-03-30 17:21:26.627,-11.578364336432802
2025-03-30 17:21:26.627,-9.758321793329976
2025-03-30 17:21:26.627,3.273598383880385
2025-03-30 17:21:26.636,11.883661422007583
2025-03-30 17:21:26.637,6.54931641866568
2025-03-30 17:21:26.637,-5.284815901199528
2025-03-30 17:21:26.637,-9.609202865083734
2025-03-30 17:21:26.637,-2.995851606395936
2025-03-30 17:21:26.646,5.072774204655276
2025-03-30 17:21:26.646,5.620640677429413
2025-03-30 17:21:26.647,0.4850513149442861
2025-03-30 17:21:26.647,-2.736655777160507
2025-03-30 17:21:26.647,-1.6410836528046562
2025-03-30 17:21:26.656,-0.2584463502155802
2025-03-30 17:21:26.656,-0.9883529645269374
2025-03-30 17:21:26.657,-0.898664770039349
2025-03-30 17:21:26.657,2.2808075000098986
2025-03-30 17:21:26.657,4.874687935867185
2025-03-30 17:21:26.665,1.8958875048898038
2025-03-30 17:21:26.665,-4.858526727735454
2025-03-30 17:21:26.665,-7.602116420243352
2025-03-30 17:21:26.665,-2.1528398462481864
2025-03-30 17:21:26.665,6.143138096999466
2025-03-30 17:21:26.675,8.1536347969915
2025-03-30 17:21:26.675,1.7680392410713424
2025-03-30 17:21:26.675,-5.400216328466405
2025-03-30 17:21:26.675,-5.369890076773354
2025-03-30 17:21:26.675,0.06634662506034161
2025-03-30 17:21:26.685,2.227352330340884
2025-03-30 17:21:26.685,-1.48060150033132
2025-03-30 17:21:26.685,-3.1378969801398666
2025-03-30 17:21:26.685,3.3314250025340204
2025-03-30 17:21:26.694,10.46451116657551
2025-03-30 17:21:26.694,5.782822965571605
2025-03-30 17:21:26.695,-9.156033285315695
2025-03-30 17:21:26.695,-17.238516981582183
2025-03-30 17:21:26.695,-6.8912366594732575
2025-03-30 17:21:26.703,11.952332861743859
2025-03-30 17:21:26.703,18.96104526268639
2025-03-30 17:21:26.703,7.13371638677312
2025-03-30 17:21:26.703,-10.525554025469992
2025-03-30 17:21:26.712,-16.840232299154902
2025-03-30 17:21:26.713,-7.648080450333728
2025-03-30 17:21:26.713,6.966351448514726
2025-03-30 17:21:26.713,13.884164142106592
2025-03-30 17:21:26.713,7.9969150217830824
2025-03-30 17:21:26.722,-4.393780233577681
2025-03-30 17:21:26.722,-11.30499785367113
2025-03-30 17:21:26.722,-6.421174746242757
2025-03-30 17:21:26.723,4.097783325931006
2025-03-30 17:21:26.723,8.27042832540398
2025-03-30 17:21:26.732,2.3458253923135026
2025-03-30 17:21:26.732,-5.002555525833575
2025-03-30 17:21:26.732,-4.267522692487111
2025-03-30 17:21:26.733,2.5838451661193664
2025-03-30 17:21:26.733,5.403168611216906
2025-03-30 17:21:26.742,0.0007038814128080828
2025-03-30 17:21:26.742,-6.152265118979649
2025-03-30 17:21:26.743,-4.2611886720291166
2025-03-30 17:21:26.743,3.5903189912346694
2025-03-30 17:21:26.743,7.0427252239133695
2025-03-30 17:21:26.751,1.4332677014654753
2025-03-30 17:21:26.751,-5.8248963997746515
2025-03-30 17:21:26.751,-5.1718043155292435
2025-03-30 17:21:26.751,2.3013380458193753
2025-03-30 17:21:26.751,6.425036805522215
2025-03-30 17:21:26.761,1.6134003887506447
2025-03-30 17:21:26.761,-5.761106641228876
2025-03-30 17:21:26.761,-5.890067613606533
2025-03-30 17:21:26.761,1.6868969420115607
2025-03-30 17:21:26.761,7.79254653581657
2025-03-30 17:21:26.770,5.3860359258100825
2025-03-30 17:21:26.771,-2.45972878212047
2025-03-30 17:21:26.771,-7.497049186632774
2025-03-30 17:21:26.771,-5.824880903410204
2025-03-30 17:21:26.780,-0.1690363729180399
2025-03-30 17:21:26.781,4.868384333725982
2025-03-30 17:21:26.781,6.609840795706982
2025-03-30 17:21:26.781,4.346112591161191
2025-03-30 17:21:26.781,-0.940319107305757
2025-03-30 17:21:26.790,-5.986043254785243
2025-03-30 17:21:26.790,-6.789900434400405
2025-03-30 17:21:26.791,-2.583317692636344
2025-03-30 17:21:26.791,2.822284880963465
2025-03-30 17:21:26.791,5.17850760713615
2025-03-30 17:21:26.800,4.244901153861142
2025-03-30 17:21:26.800,2.3397893006560535
2025-03-30 17:21:26.801,-0.05478785477779159
2025-03-30 17:21:26.801,-3.8747536459530396
2025-03-30 17:21:26.801,-7.064639540793943
2025-03-30 17:21:26.810,-5.084869791632977
2025-03-30 17:21:26.810,2.269832242850944
2025-03-30 17:21:26.810,8.26611824233144
2025-03-30 17:21:26.811,6.706022440810244
2025-03-30 17:21:26.811,-0.27962506639625073
2025-03-30 17:21:26.820,-5.242001868267423
2025-03-30 17:21:26.820,-4.5688242838842275
2025-03-30 17:21:26.820,-1.1392756314387575
2025-03-30 17:21:26.821,1.0610865062856107
2025-03-30 17:21:26.821,1.2058546030650674
2025-03-30 17:21:26.830,0.5755011789785085
2025-03-30 17:21:26.830,0.433328924602645
2025-03-30 17:21:26.830,1.4170626964055257
2025-03-30 17:21:26.831,2.7302010663369276
2025-03-30 17:21:26.831,1.7821695187237176
2025-03-30 17:21:26.839,-2.907082542427305
2025-03-30 17:21:26.839,-7.794100540493539
2025-03-30 17:21:26.839,-6.083214701387026
2025-03-30 17:21:26.839,3.853005790197873
2025-03-30 17:21:26.839,13.069127735003805
2025-03-30 17:21:26.848,9.690069457475396
2025-03-30 17:21:26.848,-5.820564106594491
2025-03-30 17:21:26.849,-17.29434773418309
2025-03-30 17:21:26.849,-10.237460374526558
2025-03-30 17:21:26.857,9.175222774102483
2025-03-30 17:21:26.857,19.24374193140734
2025-03-30 17:21:26.857,8.174076968529201
2025-03-30 17:21:26.857,-11.630894860994838
2025-03-30 17:21:26.866,-18.34108558981403
2025-03-30 17:21:26.867,-5.756376900523756
2025-03-30 17:21:26.867,11.263883957203452
2025-03-30 17:21:26.867,14.964940130354707
2025-03-30 17:21:26.867,3.5158795228741795
2025-03-30 17:21:26.876,-9.3028388513389
2025-03-30 17:21:26.876,-10.126846660916149
2025-03-30 17:21:26.877,0.2775244896714105
2025-03-30 17:21:26.877,8.759102946994187
2025-03-30 17:21:26.877,4.770061147254928
2025-03-30 17:21:26.885,-6.8919601673912
2025-03-30 17:21:26.885,-10.775930238803548
2025-03-30 17:21:26.885,0.26792640394372236
2025-03-30 17:21:26.885,14.350243683727001
2025-03-30 17:21:26.885,13.61690595997121
2025-03-30 17:21:26.895,-3.294316028508569
2025-03-30 17:21:26.895,-18.1898009143455
2025-03-30 17:21:26.895,-14.697434337258843
2025-03-30 17:21:26.895,2.657117850620925
2025-03-30 17:21:26.903,15.181826767450254
2025-03-30 17:21:26.903,12.327843694517082
2025-03-30 17:21:26.903,1.04239454800528
2025-03-30 17:21:26.903,-6.41356785147776
2025-03-30 17:21:26.904,-6.820041631550993
2025-03-30 17:21:26.913,-4.867801098385716
2025-03-30 17:21:26.913,-3.034323940122613
2025-03-30 17:21:26.913,0.8075101617242998
2025-03-30 17:21:26.913,6.412304338592448
2025-03-30 17:21:26.923,8.134187393881762
2025-03-30 17:21:26.923,2.229228422160085
2025-03-30 17:21:26.923,-6.083840047607141
2025-03-30 17:21:26.923,-7.567259853270642
2025-03-30 17:21:26.923,-0.7353619865506215
2025-03-30 17:21:26.932,5.612778999200961
2025-03-30 17:21:26.933,3.556843033356012
2025-03-30 17:21:26.933,-3.534278479686105
2025-03-30 17:21:26.933,-5.546112274573664
2025-03-30 17:21:26.933,0.7204309103002404
2025-03-30 17:21:26.941,7.21333144509664
2025-03-30 17:21:26.941,5.376166103750569
2025-03-30 17:21:26.941,-2.859574013556052
2025-03-30 17:21:26.941,-8.18246150476366
2025-03-30 17:21:26.941,-5.440261369929114
2025-03-30 17:21:26.951,1.8771449756386418
2025-03-30 17:21:26.951,7.203494273605089
2025-03-30 17:21:26.951,6.818225911463887
2025-03-30 17:21:26.951,0.985009919954255
2025-03-30 17:21:26.951,-6.444511685876154
2025-03-30 17:21:26.961,-9.260309410587734
2025-03-30 17:21:26.961,-3.7392675706309855
2025-03-30 17:21:26.961,6.290299474653684
2025-03-30 17:21:26.961,11.713900670528906
2025-03-30 17:21:26.961,6.834617448627213
2025-03-30 17:21:26.970,-5.0078283319562695
2025-03-30 17:21:26.971,-14.169384971523888
2025-03-30 17:21:26.971,-12.213566615988547
2025-03-30 17:21:26.971,1.1985872738374126
2025-03-30 17:21:26.979,16.12766164912597
2025-03-30 17:21:26.979,18.79072633305916
2025-03-30 17:21:26.979,4.576688753516057
2025-03-30 17:21:26.979,-14.979307882864354
2025-03-30 17:21:26.988,-21.91277746351241
2025-03-30 17:21:26.988,-9.967393341834018
2025-03-30 17:21:26.989,9.159687435960624
2025-03-30 17:21:26.989,18.430580632064608
2025-03-30 17:21:26.989,12.037310472210912
2025-03-30 17:21:26.998,-1.4796232401377063
2025-03-30 17:21:26.999,-10.034312162544273
2025-03-30 17:21:26.999,-9.298628016659432
2025-03-30 17:21:26.999,-3.6781790822344536
2025-03-30 17:21:26.999,1.1400000420415284
2025-03-30 17:21:27.008,3.7352198209271217
2025-03-30 17:21:27.008,4.935588120750444
2025-03-30 17:21:27.008,3.9918821560411497
2025-03-30 17:21:27.009,0.29192389724950213
2025-03-30 17:21:27.009,-3.137025379362881
2025-03-30 17:21:27.018,-2.7312086646334586
2025-03-30 17:21:27.019,-0.4830836557912015
2025-03-30 17:21:27.019,-1.3722518358053852
2025-03-30 17:21:27.019,-4.1351942136341
2025-03-30 17:21:27.019,-1.4525120163882712
2025-03-30 17:21:27.027,7.544684182587903
2025-03-30 17:21:27.027,11.937934573469144
2025-03-30 17:21:27.027,2.7887289777139643
2025-03-30 17:21:27.027,-12.073618315916798
2025-03-30 17:21:27.036,-15.423184941836382
2025-03-30 17:21:27.037,-2.442022431130613
2025-03-30 17:21:27.037,12.408056890047694
2025-03-30 17:21:27.037,13.007552936511534
2025-03-30 17:21:27.037,0.5693816335797358
2025-03-30 17:21:27.046,-9.61285931036507
2025-03-30 17:21:27.046,-7.434144425102461
2025-03-30 17:21:27.046,1.7502760407867597
2025-03-30 17:21:27.047,6.3615485981750926
2025-03-30 17:21:27.047,2.8202943255203965
2025-03-30 17:21:27.056,-2.7394627402611684
2025-03-30 17:21:27.057,-4.01718971234175
2025-03-30 17:21:27.057,-1.2185829369279761
2025-03-30 17:21:27.057,1.6894061118314059
2025-03-30 17:21:27.057,2.4494855444602726
2025-03-30 17:21:27.065,1.5209678025797722
2025-03-30 17:21:27.065,0.027446971264446327
2025-03-30 17:21:27.065,-1.1312717002579136
2025-03-30 17:21:27.065,-1.251204860131423
2025-03-30 17:21:27.065,-0.5854129276667572
2025-03-30 17:21:27.076,-0.3317199428282184
2025-03-30 17:21:27.076,-0.6809611589738964
2025-03-30 17:21:27.076,-0.11598285130981759
2025-03-30 17:21:27.076,1.8909316248542025
2025-03-30 17:21:27.076,2.964375462055532
2025-03-30 17:21:27.084,0.8246748404447962
2025-03-30 17:21:27.085,-2.7538020387103512
2025-03-30 17:21:27.085,-3.6260208504982554
2025-03-30 17:21:27.085,-0.8288447070517138
2025-03-30 17:21:27.096,2.1313792072526807
2025-03-30 17:21:27.096,2.1700581752278056
2025-03-30 17:21:27.096,0.3611747259256111
2025-03-30 17:21:27.096,-0.546479513450637
2025-03-30 17:21:27.097,-0.12543675058835202
2025-03-30 17:21:27.097,0.2396143870360856
2025-03-30 17:21:27.105,0.059083439318256846
2025-03-30 17:21:27.105,-0.39101087614243213
2025-03-30 17:21:27.105,-1.3161532041873796
2025-03-30 17:21:27.105,-2.1071213848575097
2025-03-30 17:21:27.115,-0.6606390065685508
2025-03-30 17:21:27.115,3.088927850857919
2025-03-30 17:21:27.115,4.959506035904079
2025-03-30 17:21:27.115,1.5680235473377495
2025-03-30 17:21:27.115,-3.9287777732404408
2025-03-30 17:21:27.116,-5.328186054260128
2025-03-30 17:21:27.125,-1.7773383796108988
2025-03-30 17:21:27.125,1.7301994198080957
2025-03-30 17:21:27.125,2.117259535937503
2025-03-30 17:21:27.125,1.708623588547044
2025-03-30 17:21:27.134,2.7120158495821034
2025-03-30 17:21:27.135,2.7735662856261185
2025-03-30 17:21:27.135,-0.8657986946359392
2025-03-30 17:21:27.135,-5.694863560209567
2025-03-30 17:21:27.135,-6.275768247002859
2025-03-30 17:21:27.144,-1.372104438876005
2025-03-30 17:21:27.144,4.47102788387787
2025-03-30 17:21:27.145,6.4875505657808485
2025-03-30 17:21:27.145,4.1800822971888465
2025-03-30 17:21:27.145,-0.07575323818901555
2025-03-30 17:21:27.154,-4.059038835248207
2025-03-30 17:21:27.155,-5.9536465673328856
2025-03-30 17:21:27.155,-4.087955179511248
2025-03-30 17:21:27.155,1.0339462912498756
2025-03-30 17:21:27.155,5.616516048071136
2025-03-30 17:21:27.163,5.848797784158629
2025-03-30 17:21:27.163,1.8640533290415449
2025-03-30 17:21:27.163,-3.0504522199078306
2025-03-30 17:21:27.163,-6.005415805822717
2025-03-30 17:21:27.163,-5.462643209826492
2025-03-30 17:21:27.173,-0.6093289001562813
2025-03-30 17:21:27.173,6.634329895348933
2025-03-30 17:21:27.173,9.880250672788103
2025-03-30 17:21:27.173,3.461436422744398
2025-03-30 17:21:27.182,-8.802685089850046
2025-03-30 17:21:27.182,-14.13325611237583
2025-03-30 17:21:27.183,-4.4166465934781165
2025-03-30 17:21:27.183,12.060216157543838
2025-03-30 17:21:27.183,17.40069422325454
2025-03-30 17:21:27.190,4.2034022855986
2025-03-30 17:21:27.191,-14.620403348142458
2025-03-30 17:21:27.191,-19.233399347175087
2025-03-30 17:21:27.191,-4.574974034826528
2025-03-30 17:21:27.200,14.418580333566299
2025-03-30 17:21:27.200,19.16151555546688
2025-03-30 17:21:27.200,6.265158782213453
2025-03-30 17:21:27.200,-10.872012959262578
2025-03-30 17:21:27.201,-16.884106731682753
2025-03-30 17:21:27.209,-8.394665740726703
2025-03-30 17:21:27.209,5.557742865908899
2025-03-30 17:21:27.209,13.269420135114146
2025-03-30 17:21:27.209,9.537993924406168
2025-03-30 17:21:27.209,-1.5395599643564384
2025-03-30 17:21:27.219,-10.141163554212227
2025-03-30 17:21:27.219,-8.695296433147824
2025-03-30 17:21:27.219,0.9483531383628776
2025-03-30 17:21:27.219,8.658558165957407
2025-03-30 17:21:27.229,6.293478105625036
2025-03-30 17:21:27.229,-3.2056321816834252
2025-03-30 17:21:27.229,-8.738555250800461
2025-03-30 17:21:27.229,-3.6217187729504494
2025-03-30 17:21:27.229,6.3558310077366045
2025-03-30 17:21:27.238,9.280402574322585
2025-03-30 17:21:27.238,1.1560647152176813
2025-03-30 17:21:27.239,-8.9128678249522
2025-03-30 17:21:27.239,-9.135804168775774
2025-03-30 17:21:27.239,1.0983007765809711
2025-03-30 17:21:27.247,10.480177706815903
2025-03-30 17:21:27.247,8.679011813147069
2025-03-30 17:21:27.247,-2.539103676142615
2025-03-30 17:21:27.247,-11.744089082204535
2025-03-30 17:21:27.256,-9.54584348297093
2025-03-30 17:21:27.257,2.6550902475244307
2025-03-30 17:21:27.257,13.7160978086939
2025-03-30 17:21:27.257,12.250300103326618
2025-03-30 17:21:27.257,-2.127797134347513
2025-03-30 17:21:27.266,-16.09272217666674
2025-03-30 17:21:27.266,-14.649406795011451
2025-03-30 17:21:27.267,1.881496015228346
2025-03-30 17:21:27.267,16.38645548858197
2025-03-30 17:21:27.267,13.834261155141679
2025-03-30 17:21:27.275,-1.498063176827328
2025-03-30 17:21:27.275,-12.275650070277816
2025-03-30 17:21:27.275,-9.230479941821375
2025-03-30 17:21:27.275,0.26026356039598597
2025-03-30 17:21:27.284,4.767038886349723
2025-03-30 17:21:27.285,2.9530148471871787
2025-03-30 17:21:27.285,1.242156837207398
2025-03-30 17:21:27.285,2.2469340852745456
2025-03-30 17:21:27.285,2.042116133072252
2025-03-30 17:21:27.294,-1.7776761978587556
2025-03-30 17:21:27.295,-5.2993431662222505
2025-03-30 17:21:27.295,-3.8938243893366242
2025-03-30 17:21:27.295,0.9836438175362228
2025-03-30 17:21:27.295,3.8585319160019314
2025-03-30 17:21:27.304,2.5216955290041256
2025-03-30 17:21:27.304,0.05945274905652856
2025-03-30 17:21:27.305,-0.2419090958242426
2025-03-30 17:21:27.305,0.8502565530875942
2025-03-30 17:21:27.305,0.4982385832682549
2025-03-30 17:21:27.314,-1.9149886958463544
2025-03-30 17:21:27.314,-4.170154263019669
2025-03-30 17:21:27.315,-3.8504929173168287
2025-03-30 17:21:27.315,-0.19079988007192153
2025-03-30 17:21:27.315,5.470585578770552
2025-03-30 17:21:27.322,9.232564901504565
2025-03-30 17:21:27.323,6.182310518593978
2025-03-30 17:21:27.323,-4.116145115745642
2025-03-30 17:21:27.323,-13.822280495932354
2025-03-30 17:21:27.332,-12.609253805714426
2025-03-30 17:21:27.332,0.6676716270242202
2025-03-30 17:21:27.333,14.648593475574318
2025-03-30 17:21:27.333,16.29064068276879
2025-03-30 17:21:27.333,3.9901547101110983
2025-03-30 17:21:27.341,-11.316746504085968
2025-03-30 17:21:27.341,-16.747411199235696
2025-03-30 17:21:27.341,-8.338150580071291
2025-03-30 17:21:27.341,6.3846222518765945
2025-03-30 17:21:27.350,14.84940475516336
2025-03-30 17:21:27.351,10.13211261672271
2025-03-30 17:21:27.351,-2.630526420719744
2025-03-30 17:21:27.351,-11.101821382855912
2025-03-30 17:21:27.351,-8.219505287427571
2025-03-30 17:21:27.360,1.0509877314271323
2025-03-30 17:21:27.361,6.392157691315761
2025-03-30 17:21:27.361,3.897013182840478
2025-03-30 17:21:27.361,-1.177467181672558
2025-03-30 17:21:27.361,-2.501881775495524
2025-03-30 17:21:27.369,-0.030709522276597623
2025-03-30 17:21:27.369,1.8837306723738743
2025-03-30 17:21:27.369,0.8891348026938102
2025-03-30 17:21:27.369,-1.350480101068757
2025-03-30 17:21:27.370,-2.2780543435936296
2025-03-30 17:21:27.380,-1.2308962934991674
2025-03-30 17:21:27.380,0.7122419396903599
2025-03-30 17:21:27.381,2.066047797824956
2025-03-30 17:21:27.381,1.8934844918713092
2025-03-30 17:21:27.381,0.3218611931689193
2025-03-30 17:21:27.389,-1.5252924921925073
2025-03-30 17:21:27.389,-2.257918732665935
2025-03-30 17:21:27.389,-1.069934354171876
2025-03-30 17:21:27.389,1.5392592075508504
2025-03-30 17:21:27.398,3.381571613471526
2025-03-30 17:21:27.399,1.873840020619359
2025-03-30 17:21:27.399,-2.718451673598356
2025-03-30 17:21:27.399,-5.889320904803422
2025-03-30 17:21:27.399,-3.1251862043071643
2025-03-30 17:21:27.408,4.0121392673023575
2025-03-30 17:21:27.409,8.366020983669133
2025-03-30 17:21:27.409,4.9954415072659515
2025-03-30 17:21:27.409,-3.1730821379759293
2025-03-30 17:21:27.409,-8.717664567102336
2025-03-30 17:21:27.418,-7.283045626154575
2025-03-30 17:21:27.419,-0.6143457803474441
2025-03-30 17:21:27.419,6.275548390968021
2025-03-30 17:21:27.419,8.944738246071235
2025-03-30 17:21:27.419,5.520680796076895
2025-03-30 17:21:27.427,-2.2155282890026604
2025-03-30 17:21:27.427,-8.790505335284701
2025-03-30 17:21:27.427,-8.44947390858588
2025-03-30 17:21:27.427,-1.0520182133653
2025-03-30 17:21:27.438,6.428422887516963
2025-03-30 17:21:27.438,6.944290756727119
2025-03-30 17:21:27.439,1.5283205962866608
2025-03-30 17:21:27.439,-2.484231145029166
2025-03-30 17:21:27.439,-1.3259610748145012
2025-03-30 17:21:27.439,0.865050117846626
2025-03-30 17:21:27.447,-0.9594386534043792
2025-03-30 17:21:27.447,-4.9352349988714455
2025-03-30 17:21:27.447,-4.740776183705959
2025-03-30 17:21:27.447,1.541006813865473
2025-03-30 17:21:27.457,8.239409327672634
2025-03-30 17:21:27.457,8.221608074680775
2025-03-30 17:21:27.457,0.6148916048967656
2025-03-30 17:21:27.457,-7.996618043149216
2025-03-30 17:21:27.457,-9.569464679496171
2025-03-30 17:21:27.467,-2.3925862025947136
2025-03-30 17:21:27.467,6.4701263986476265
2025-03-30 17:21:27.467,7.853758464231985
2025-03-30 17:21:27.467,0.7961615408062724
2025-03-30 17:21:27.467,-5.737073767990503
2025-03-30 17:21:27.476,-3.6626915455897
2025-03-30 17:21:27.477,3.711184327163744
2025-03-30 17:21:27.477,5.867818137106458
2025-03-30 17:21:27.477,-0.8319809593237446
2025-03-30 17:21:27.477,-7.961031235929202
2025-03-30 17:21:27.487,-5.901613855126734
2025-03-30 17:21:27.487,3.5559596494838703
2025-03-30 17:21:27.487,9.327884432898752
2025-03-30 17:21:27.487,4.8527408629608475
2025-03-30 17:21:27.487,-4.181033978514144
2025-03-30 17:21:27.497,-7.411583268150709
2025-03-30 17:21:27.497,-2.3061480207949954
2025-03-30 17:21:27.497,3.8954534815553195
2025-03-30 17:21:27.497,3.893631651935456
2025-03-30 17:21:27.497,-1.173485850120978
2025-03-30 17:21:27.506,-4.150849958484801
2025-03-30 17:21:27.507,-1.01382027697591
2025-03-30 17:21:27.507,4.4804580104878
2025-03-30 17:21:27.507,5.457590516129342
2025-03-30 17:21:27.507,-0.025550162708931512
2025-03-30 17:21:27.516,-6.5983583377816935
2025-03-30 17:21:27.517,-7.204851758888183
2025-03-30 17:21:27.517,-0.6017392879364307
2025-03-30 17:21:27.517,7.068516663153018
2025-03-30 17:21:27.517,8.292634904747594
2025-03-30 17:21:27.525,1.7970722306198965
2025-03-30 17:21:27.525,-6.074040084813358
2025-03-30 17:21:27.525,-7.861209471884857
2025-03-30 17:21:27.525,-2.553472835068391
2025-03-30 17:21:27.536,3.998996905314203
2025-03-30 17:21:27.536,5.8711816225801075
2025-03-30 17:21:27.537,2.797561315099103
2025-03-30 17:21:27.537,-1.2243572425249256
2025-03-30 17:21:27.537,-3.1194717032308
2025-03-30 17:21:27.537,-2.843609212480793
2025-03-30 17:21:27.545,-1.5003862226651246
2025-03-30 17:21:27.545,0.35139236828786125
2025-03-30 17:21:27.545,2.302064508486128
2025-03-30 17:21:27.545,3.3977602653486527
2025-03-30 17:21:27.554,2.5112629430721736
2025-03-30 17:21:27.555,-0.581880661552167
2025-03-30 17:21:27.555,-4.229637355334026
2025-03-30 17:21:27.555,-5.335201105899087
2025-03-30 17:21:27.555,-2.0301228462500016
2025-03-30 17:21:27.564,3.6382466428014615
2025-03-30 17:21:27.564,6.814538818850786
2025-03-30 17:21:27.564,4.528773697665095
2025-03-30 17:21:27.565,-1.2144806377125579
2025-03-30 17:21:27.565,-5.613969150790506
2025-03-30 17:21:27.574,-5.742554696822857
2025-03-30 17:21:27.574,-2.392961690643064
2025-03-30 17:21:27.575,1.8441368158486875
2025-03-30 17:21:27.575,4.842332714812175
2025-03-30 17:21:27.575,5.4495059379808515
2025-03-30 17:21:27.583,3.2892295403984284
2025-03-30 17:21:27.583,-1.2013292788210992
2025-03-30 17:21:27.583,-6.51126870022426
2025-03-30 17:21:27.583,-9.401627222676519
2025-03-30 17:21:27.592,-5.528066572462009
2025-03-30 17:21:27.593,5.780800861196258
2025-03-30 17:21:27.593,16.320235544798916
2025-03-30 17:21:27.593,13.661507918906963
2025-03-30 17:21:27.593,-4.104173204856628
2025-03-30 17:21:27.601,-21.321898409755285
2025-03-30 17:21:27.601,-19.294997122772042
2025-03-30 17:21:27.601,1.6887863460585266
2025-03-30 17:21:27.601,20.708144350172983
2025-03-30 17:21:27.602,19.12209311453009
2025-03-30 17:21:27.610,0.7977111070797427
2025-03-30 17:21:27.611,-14.219689274626596
2025-03-30 17:21:27.611,-13.06970649725003
2025-03-30 17:21:27.611,-1.824395625207236
2025-03-30 17:21:27.620,5.538765789378435
2025-03-30 17:21:27.621,4.103907676260055
2025-03-30 17:21:27.621,0.5368271057722369
2025-03-30 17:21:27.621,1.4052506433543281
2025-03-30 17:21:27.621,4.186860425629563
2025-03-30 17:21:27.630,2.0418639185313356
2025-03-30 17:21:27.630,-5.169807233149622
2025-03-30 17:21:27.631,-9.152209952685785
2025-03-30 17:21:27.631,-3.7639539749411512
2025-03-30 17:21:27.631,6.050985459287193
2025-03-30 17:21:27.639,9.558058321541889
2025-03-30 17:21:27.639,3.3794388360310483
2025-03-30 17:21:27.639,-4.713671159415144
2025-03-30 17:21:27.639,-6.050500493764347
2025-03-30 17:21:27.648,-1.3691922792273619
2025-03-30 17:21:27.649,1.9755399073858737
2025-03-30 17:21:27.649,0.7053735202325262
2025-03-30 17:21:27.649,-0.938856163749672
2025-03-30 17:21:27.649,1.1967268221984602
2025-03-30 17:21:27.659,4.293157445583116
2025-03-30 17:21:27.659,2.4563908102726275
2025-03-30 17:21:27.659,-4.06843445285197
2025-03-30 17:21:27.659,-7.594780370242191
2025-03-30 17:21:27.659,-2.5182342064901873
2025-03-30 17:21:27.668,6.393219861012805
2025-03-30 17:21:27.669,8.703323362110195
2025-03-30 17:21:27.669,1.159314732439522
2025-03-30 17:21:27.669,-7.772537326790703
2025-03-30 17:21:27.669,-8.01661983086288
2025-03-30 17:21:27.677,0.2114330950374178
2025-03-30 17:21:27.677,7.482882114079499
2025-03-30 17:21:27.677,6.615311019664679
2025-03-30 17:21:27.677,-0.17098868121309796
2025-03-30 17:21:27.677,-5.424734431304927
2025-03-30 17:21:27.687,-4.932114776395682
2025-03-30 17:21:27.687,-0.7852526828272336
2025-03-30 17:21:27.687,2.4198052925293654
2025-03-30 17:21:27.687,2.5910952874722333
2025-03-30 17:21:27.697,1.2017555739192405
2025-03-30 17:21:27.697,0.4371234567612373
2025-03-30 17:21:27.697,0.34019435567098577
2025-03-30 17:21:27.697,-0.6710192107914371
2025-03-30 17:21:27.697,-2.6660647795239565
2025-03-30 17:21:27.706,-2.975079757055167
2025-03-30 17:21:27.707,0.3044256512707416
2025-03-30 17:21:27.707,4.295103917941236
2025-03-30 17:21:27.707,3.8102320421722116
2025-03-30 17:21:27.707,-1.3092749527643548
2025-03-30 17:21:27.716,-4.689870098995701
2025-03-30 17:21:27.717,-1.7880490722462723
2025-03-30 17:21:27.717,3.212562292309424
2025-03-30 17:21:27.717,2.9940098402357824
2025-03-30 17:21:27.717,-2.1497530318430025
2025-03-30 17:21:27.726,-4.463632874904331
2025-03-30 17:21:27.727,0.003895821270585992
2025-03-30 17:21:27.727,5.541472027800746
2025-03-30 17:21:27.727,4.680362018572816
2025-03-30 17:21:27.727,-1.8791720166539905
2025-03-30 17:21:27.735,-6.729992847764772
2025-03-30 17:21:27.735,-5.016319826614278
2025-03-30 17:21:27.735,1.0805548963259366
2025-03-30 17:21:27.735,6.030310762002368
2025-03-30 17:21:27.744,6.147830350198491
2025-03-30 17:21:27.745,1.4786408373896887
2025-03-30 17:21:27.745,-4.648675954199588
2025-03-30 17:21:27.745,-7.3157110730614265
2025-03-30 17:21:27.745,-3.629201656788047
2025-03-30 17:21:27.755,3.667242672987627
2025-03-30 17:21:27.755,7.500068645008181
2025-03-30 17:21:27.755,3.5809275834405674
2025-03-30 17:21:27.755,-3.9695392139452075
2025-03-30 17:21:27.755,-6.442706987106337
2025-03-30 17:21:27.764,-0.8811308942968152
2025-03-30 17:21:27.764,5.698494808869628
2025-03-30 17:21:27.765,4.718011907758431
2025-03-30 17:21:27.765,-2.871817335747285
2025-03-30 17:21:27.765,-7.528303026384534
2025-03-30 17:21:27.774,-3.310819456088584
2025-03-30 17:21:27.775,4.781081455052101
2025-03-30 17:21:27.775,7.648730761736538
2025-03-30 17:21:27.775,3.0781702201564785
2025-03-30 17:21:27.775,-3.27997414561942
2025-03-30 17:21:27.784,-5.822666071006623
2025-03-30 17:21:27.785,-4.064438200417324
2025-03-30 17:21:27.785,-0.4563898734634005
2025-03-30 17:21:27.785,3.033302375901634
2025-03-30 17:21:27.785,5.081689022275466
2025-03-30 17:21:27.793,4.3032390802051435
2025-03-30 17:21:27.793,0.37317007183312223
2025-03-30 17:21:27.793,-4.615350401238301
2025-03-30 17:21:27.793,-7.002636923504451
2025-03-30 17:21:27.793,-4.2832502189541435
2025-03-30 17:21:27.803,2.420115896439652
2025-03-30 17:21:27.803,8.168917913395974
2025-03-30 17:21:27.803,7.539697921468961
2025-03-30 17:21:27.803,-0.006288624333494863
2025-03-30 17:21:27.812,-8.03842781251103
2025-03-30 17:21:27.813,-8.57228656746821
2025-03-30 17:21:27.813,-0.7860719156193954
2025-03-30 17:21:27.813,7.202463614472017
2025-03-30 17:21:27.813,6.9973452707479575
2025-03-30 17:21:27.822,-0.5371429006122536
2025-03-30 17:21:27.823,-6.413961757538761
2025-03-30 17:21:27.823,-4.064435770059549
2025-03-30 17:21:27.823,3.295093770411104
2025-03-30 17:21:27.823,6.710372942345282
2025-03-30 17:21:27.831,1.7150279752767836
2025-03-30 17:21:27.831,-6.637883063818596
2025-03-30 17:21:27.831,-8.931997286387672
2025-03-30 17:21:27.832,-1.377422603595933
2025-03-30 17:21:27.832,9.42299046430285
2025-03-30 17:21:27.841,12.413759674230121
2025-03-30 17:21:27.841,3.449005120296243
2025-03-30 17:21:27.841,-9.832979612034725
2025-03-30 17:21:27.841,-15.128526327488629
2025-03-30 17:21:27.850,-7.157113345428701
2025-03-30 17:21:27.851,7.454748969151716
2025-03-30 17:21:27.851,15.801639715586257
2025-03-30 17:21:27.851,9.955966446465057
2025-03-30 17:21:27.851,-4.992490688130453
2025-03-30 17:21:27.859,-14.462543288804655
2025-03-30 17:21:27.859,-8.933902095135434
2025-03-30 17:21:27.859,4.987797766910715
2025-03-30 17:21:27.859,11.527633161870467
2025-03-30 17:21:27.859,4.225000198678876
2025-03-30 17:21:27.869,-6.777056233898122
2025-03-30 17:21:27.869,-7.9383909697812625
2025-03-30 17:21:27.869,1.1499116575623227
2025-03-30 17:21:27.869,8.50884154553115
2025-03-30 17:21:27.878,5.245585835868408
2025-03-30 17:21:27.879,-4.407752055117616
2025-03-30 17:21:27.879,-9.41479815418052
2025-03-30 17:21:27.879,-4.791884281140111
2025-03-30 17:21:27.879,4.271456600029885
2025-03-30 17:21:27.887,9.302710257736013
2025-03-30 17:21:27.887,6.632500417977032
2025-03-30 17:21:27.887,-1.0062777866427575
2025-03-30 17:21:27.887,-7.8886954240129015
2025-03-30 17:21:27.897,-9.079855337219048
2025-03-30 17:21:27.897,-3.27685576066896
2025-03-30 17:21:27.897,5.477119338959622
2025-03-30 17:21:27.897,9.830959357012267
2025-03-30 17:21:27.897,5.665668675030315
2025-03-30 17:21:27.906,-3.0716441487132142
2025-03-30 17:21:27.907,-8.027344980017489
2025-03-30 17:21:27.907,-5.2373597342956035
2025-03-30 17:21:27.907,1.3831515326992236
2025-03-30 17:21:27.907,5.26635771994549
2025-03-30 17:21:27.917,3.7753620549694333
2025-03-30 17:21:27.917,-0.7231507383173195
2025-03-30 17:21:27.917,-3.9919831614728776
2025-03-30 17:21:27.917,-3.1017055072084583
2025-03-30 17:21:27.917,1.4254294987815608
2025-03-30 17:21:27.926,5.116940092439245
2025-03-30 17:21:27.926,3.0971440032856794
2025-03-30 17:21:27.927,-3.6875297434922447
2025-03-30 17:21:27.927,-7.500551768556189
2025-03-30 17:21:27.927,-2.391714301176803
2025-03-30 17:21:27.936,6.964191835113866
2025-03-30 17:21:27.937,9.210833742242947
2025-03-30 17:21:27.937,0.3540397302924041
2025-03-30 17:21:27.937,-9.915136841059235
2025-03-30 17:21:27.937,-9.182047553282418
2025-03-30 17:21:27.945,2.287507343767488
2025-03-30 17:21:27.945,11.251921993874307
2025-03-30 17:21:27.945,7.308573718771386
2025-03-30 17:21:27.945,-4.5638829368397404
2025-03-30 17:21:27.946,-10.305188047111873
2025-03-30 17:21:27.955,-3.948415049207717
2025-03-30 17:21:27.955,5.813802783560296
2025-03-30 17:21:27.955,7.322746270600658
2025-03-30 17:21:27.955,0.2880743665356976
2025-03-30 17:21:27.964,-5.374062797246912
2025-03-30 17:21:27.965,-3.343726289722613
2025-03-30 17:21:27.965,1.764490944743138
2025-03-30 17:21:27.965,2.5717341740154964
2025-03-30 17:21:27.965,-0.32263419568839435
2025-03-30 17:21:27.975,-0.7226107459705335
2025-03-30 17:21:27.975,2.270981660060584
2025-03-30 17:21:27.975,2.454398760143692
2025-03-30 17:21:27.975,-2.980812477781395
2025-03-30 17:21:27.975,-7.252094300015423
2025-03-30 17:21:27.984,-2.8574829059710636
2025-03-30 17:21:27.984,6.800957502457514
2025-03-30 17:21:27.985,10.387909205070933
2025-03-30 17:21:27.985,2.87664735471837
2025-03-30 17:21:27.985,-7.9824967642560205
2025-03-30 17:21:27.993,-10.96415617167683
2025-03-30 17:21:27.993,-3.8623246147046615
2025-03-30 17:21:27.993,5.5748022336326635
2025-03-30 17:21:27.993,9.065078918019895
2025-03-30 17:21:28.002,5.306521765124854
2025-03-30 17:21:28.003,-1.0953453715934929
2025-03-30 17:21:28.003,-5.159180177926777
2025-03-30 17:21:28.003,-5.124482689697251
2025-03-30 17:21:28.003,-2.430938488363052
2025-03-30 17:21:28.013,0.3976631756549454
2025-03-30 17:21:28.013,2.061818602675599
2025-03-30 17:21:28.013,2.966356260118517
2025-03-30 17:21:28.013,3.3974016743182798
2025-03-30 17:21:28.013,2.2663887739762782
2025-03-30 17:21:28.022,-1.049616136458342
2025-03-30 17:21:28.022,-4.40914145452203
2025-03-30 17:21:28.023,-4.5296652499638315
2025-03-30 17:21:28.023,-1.1319690921865746
2025-03-30 17:21:28.023,2.346480281978891
2025-03-30 17:21:28.032,2.9207899772672983
2025-03-30 17:21:28.033,1.4629690385324061
2025-03-30 17:21:28.033,0.7529260268879965
2025-03-30 17:21:28.033,1.2408727469882015
2025-03-30 17:21:28.033,0.6666976316826753
2025-03-30 17:21:28.041,-2.0830066779873815
2025-03-30 17:21:28.041,-4.657800624217988
2025-03-30 17:21:28.041,-3.906814669992007
2025-03-30 17:21:28.041,0.23731984456323174
2025-03-30 17:21:28.042,4.706876220235113
2025-03-30 17:21:28.051,6.298120527345362
2025-03-30 17:21:28.051,3.7584695843098817
2025-03-30 17:21:28.051,-1.754626695950998
2025-03-30 17:21:28.051,-6.639674425626786
