timestamp,bandpass_and_notch
2025-03-30 17:27:52.172,0.09916248512392345
2025-03-30 17:27:52.173,4.130202240668491
2025-03-30 17:27:52.173,6.205015233264509
2025-03-30 17:27:52.173,-0.7075130528650331
2025-03-30 17:27:52.182,-16.283644086199438
2025-03-30 17:27:52.182,-22.40202591493662
2025-03-30 17:27:52.182,-1.5276164436582076
2025-03-30 17:27:52.182,33.27919750493004
2025-03-30 17:27:52.182,42.89048010482949
2025-03-30 17:27:52.190,7.044583695141385
2025-03-30 17:27:52.190,-44.28531118853925
2025-03-30 17:27:52.190,-58.29686912228223
2025-03-30 17:27:52.191,-17.69899201287687
2025-03-30 17:27:52.198,38.984816565176104
2025-03-30 17:27:52.198,58.677276528320974
2025-03-30 17:27:52.198,27.703412625262548
2025-03-30 17:27:52.199,-20.284966080120494
2025-03-30 17:27:52.199,-43.67274597324495
2025-03-30 17:27:52.208,-30.950661433923536
2025-03-30 17:27:52.208,-1.1175250529873413
2025-03-30 17:27:52.208,21.9653099560975
2025-03-30 17:27:52.209,27.787754918467876
2025-03-30 17:27:52.216,17.922967793808482
2025-03-30 17:27:52.216,-1.0085957606362241
2025-03-30 17:27:52.216,-19.10122289102029
2025-03-30 17:27:52.217,-24.96537769359099
2025-03-30 17:27:52.226,-13.512055866109815
2025-03-30 17:27:52.226,7.406158823841425
2025-03-30 17:27:52.226,21.75025508969655
2025-03-30 17:27:52.226,18.920758644214963
2025-03-30 17:27:52.227,2.7718077398544527
2025-03-30 17:27:52.234,-12.758738598526566
2025-03-30 17:27:52.234,-16.356858431876777
2025-03-30 17:27:52.234,-7.979162333763122
2025-03-30 17:27:52.235,3.4782810988842394
2025-03-30 17:27:52.244,9.320798882761967
2025-03-30 17:27:52.244,7.557041846200066
2025-03-30 17:27:52.244,1.9765957795008633
2025-03-30 17:27:52.244,-2.802180300779461
2025-03-30 17:27:52.244,-4.503056039281573
2025-03-30 17:27:52.254,-3.178951158115363
2025-03-30 17:27:52.254,-0.34199026630287976
2025-03-30 17:27:52.254,1.7619170782010252
2025-03-30 17:27:52.254,1.669160654876515
2025-03-30 17:27:52.254,0.3084454740153655
2025-03-30 17:27:52.264,0.1570383931604083
2025-03-30 17:27:52.264,1.8204140438223884
2025-03-30 17:27:52.264,2.2626306377113545
2025-03-30 17:27:52.264,-1.5471297954673155
2025-03-30 17:27:52.264,-6.941296407795985
2025-03-30 17:27:52.274,-6.482841979878765
2025-03-30 17:27:52.274,2.6197038077508417
2025-03-30 17:27:52.274,12.052766788186952
2025-03-30 17:27:52.274,10.21034928833932
2025-03-30 17:27:52.274,-2.9211075205518733
2025-03-30 17:27:52.284,-13.617043833979862
2025-03-30 17:27:52.284,-10.267457094086586
2025-03-30 17:27:52.284,2.2717199488940576
2025-03-30 17:27:52.284,9.123548437525859
2025-03-30 17:27:52.284,4.503027867709499
2025-03-30 17:27:52.292,-2.0934711306229645
2025-03-30 17:27:52.293,-0.5584946461151518
2025-03-30 17:27:52.293,5.253477407873456
2025-03-30 17:27:52.293,3.631075033217814
2025-03-30 17:27:52.293,-6.929042964519952
2025-03-30 17:27:52.302,-13.54934192282922
2025-03-30 17:27:52.302,-5.587884657975444
2025-03-30 17:27:52.302,9.964404967167496
2025-03-30 17:27:52.302,15.672329119101889
2025-03-30 17:27:52.312,5.086558673620535
2025-03-30 17:27:52.312,-9.23931734177528
2025-03-30 17:27:52.312,-11.540372458569117
2025-03-30 17:27:52.312,-1.6675453804182299
2025-03-30 17:27:52.312,6.915514125268425
2025-03-30 17:27:52.322,5.30899104680831
2025-03-30 17:27:52.322,-1.347715671143483
2025-03-30 17:27:52.322,-3.5588441058791336
2025-03-30 17:27:52.322,-0.5656801603656052
2025-03-30 17:27:52.322,0.8757919129366517
2025-03-30 17:27:52.332,-1.8700233750786133
2025-03-30 17:27:52.332,-3.031873910705011
2025-03-30 17:27:52.332,2.3122901997661303
2025-03-30 17:27:52.332,9.065404990603572
2025-03-30 17:27:52.332,7.213683612344701
2025-03-30 17:27:52.340,-4.459459244137847
2025-03-30 17:27:52.340,-14.623147558743831
2025-03-30 17:27:52.340,-11.714625187011821
2025-03-30 17:27:52.341,2.630252186703019
2025-03-30 17:27:52.350,15.161183149536297
2025-03-30 17:27:52.350,14.770510317053128
2025-03-30 17:27:52.350,2.4643408816426495
2025-03-30 17:27:52.350,-11.144382203670967
2025-03-30 17:27:52.350,-15.410315918487445
2025-03-30 17:27:52.358,-7.3499333725802165
2025-03-30 17:27:52.358,6.4110980348673055
2025-03-30 17:27:52.358,14.130194109777182
2025-03-30 17:27:52.358,8.688761151807306
2025-03-30 17:27:52.368,-4.522613944993979
2025-03-30 17:27:52.368,-11.60474626177016
2025-03-30 17:27:52.368,-5.193963730551769
2025-03-30 17:27:52.368,6.074747639703938
2025-03-30 17:27:52.369,7.537670565333147
2025-03-30 17:27:52.376,-2.369145711986376
2025-03-30 17:27:52.376,-9.098748625512583
2025-03-30 17:27:52.377,-1.4236631801289479
2025-03-30 17:27:52.377,11.743692733056298
2025-03-30 17:27:52.377,11.518314805774112
2025-03-30 17:27:52.386,-5.371782052041184
2025-03-30 17:27:52.386,-19.840351583381334
2025-03-30 17:27:52.386,-13.100851744004625
2025-03-30 17:27:52.387,9.558849066051746
2025-03-30 17:27:52.394,23.928552711712666
2025-03-30 17:27:52.394,14.472582000326014
2025-03-30 17:27:52.394,-8.778821507121599
2025-03-30 17:27:52.395,-22.426464613479475
2025-03-30 17:27:52.404,-14.871379542510375
2025-03-30 17:27:52.404,3.8962846736484322
2025-03-30 17:27:52.404,15.62026104762771
2025-03-30 17:27:52.404,12.476009336684864
2025-03-30 17:27:52.404,1.4910906979440104
2025-03-30 17:27:52.412,-6.189215198839508
2025-03-30 17:27:52.412,-6.711583347448317
2025-03-30 17:27:52.413,-4.030232629357312
2025-03-30 17:27:52.413,-2.1629190491437287
2025-03-30 17:27:52.413,-0.36343565307114256
2025-03-30 17:27:52.424,3.3693767378929285
2025-03-30 17:27:52.424,6.864857800142028
2025-03-30 17:27:52.424,5.280671596115077
2025-03-30 17:27:52.424,-1.792419308451212
2025-03-30 17:27:52.424,-7.744356263199194
2025-03-30 17:27:52.432,-5.90823312361732
2025-03-30 17:27:52.432,1.8594549377010359
2025-03-30 17:27:52.432,6.531229020914621
2025-03-30 17:27:52.433,2.7846404484896348
2025-03-30 17:27:52.442,-4.1285633805249855
2025-03-30 17:27:52.442,-5.0134181254133825
2025-03-30 17:27:52.442,1.3582699099676434
2025-03-30 17:27:52.442,6.789140048947852
2025-03-30 17:27:52.443,4.355109216920574
2025-03-30 17:27:52.452,-3.2144044401945426
2025-03-30 17:27:52.452,-7.722808721879622
2025-03-30 17:27:52.452,-5.243164802702321
2025-03-30 17:27:52.452,1.0493699065263504
2025-03-30 17:27:52.453,5.998055661336023
2025-03-30 17:27:52.462,7.106776404908479
2025-03-30 17:27:52.462,4.340298566025814
2025-03-30 17:27:52.462,-1.430669697243676
2025-03-30 17:27:52.462,-7.903597111358987
2025-03-30 17:27:52.463,-10.584886568103729
2025-03-30 17:27:52.472,-5.396266777127699
2025-03-30 17:27:52.472,6.06487486887604
2025-03-30 17:27:52.472,14.871051024703291
2025-03-30 17:27:52.472,11.81143097784107
2025-03-30 17:27:52.472,-2.0687143668583214
2025-03-30 17:27:52.480,-14.419583402156228
2025-03-30 17:27:52.480,-13.968571516636313
2025-03-30 17:27:52.480,-2.4901703921106084
2025-03-30 17:27:52.481,8.453510744252245
2025-03-30 17:27:52.489,10.870452707886932
2025-03-30 17:27:52.490,6.236663060608347
2025-03-30 17:27:52.490,-0.4525007171393212
2025-03-30 17:27:52.490,-6.151998622182854
2025-03-30 17:27:52.490,-8.166573873666202
2025-03-30 17:27:52.500,-3.781265330976337
2025-03-30 17:27:52.500,4.401580529178321
2025-03-30 17:27:52.500,7.704819604981139
2025-03-30 17:27:52.500,1.5184560670375573
2025-03-30 17:27:52.500,-6.715355556345333
2025-03-30 17:27:52.508,-5.709655698391381
2025-03-30 17:27:52.508,4.420527763142346
2025-03-30 17:27:52.509,11.096124231164886
2025-03-30 17:27:52.509,4.785944429074955
2025-03-30 17:27:52.509,-8.915776551694142
2025-03-30 17:27:52.518,-15.39016399023888
2025-03-30 17:27:52.518,-7.008557171675747
2025-03-30 17:27:52.518,9.027834128231321
2025-03-30 17:27:52.518,17.886445858674918
2025-03-30 17:27:52.526,11.149529204402343
2025-03-30 17:27:52.526,-5.284784660590772
2025-03-30 17:27:52.526,-16.5952186926421
2025-03-30 17:27:52.526,-13.191460635043537
2025-03-30 17:27:52.536,0.21654503656808077
2025-03-30 17:27:52.536,10.484994239002125
2025-03-30 17:27:52.536,10.181655140293076
2025-03-30 17:27:52.536,3.510086006685701
2025-03-30 17:27:52.537,-1.598475391627585
2025-03-30 17:27:52.546,-3.1711283575526243
2025-03-30 17:27:52.546,-4.320792575534827
2025-03-30 17:27:52.546,-5.707169926130299
2025-03-30 17:27:52.546,-3.8419378066961216
2025-03-30 17:27:52.547,2.5317782978816816
2025-03-30 17:27:52.556,8.317320150073689
2025-03-30 17:27:52.556,7.1882777823369395
2025-03-30 17:27:52.556,-0.3795958777133308
2025-03-30 17:27:52.556,-6.820217852420403
2025-03-30 17:27:52.557,-5.810500326278538
2025-03-30 17:27:52.566,0.5712022770491392
2025-03-30 17:27:52.566,4.42115794038932
2025-03-30 17:27:52.566,1.4932894828344851
2025-03-30 17:27:52.566,-3.719843269890718
2025-03-30 17:27:52.567,-3.742991402629834
2025-03-30 17:27:52.576,2.298072785707788
2025-03-30 17:27:52.576,7.417020344178698
2025-03-30 17:27:52.576,5.26018037869654
2025-03-30 17:27:52.576,-2.6068230998700703
2025-03-30 17:27:52.576,-8.905147415978703
2025-03-30 17:27:52.586,-8.130262808177186
2025-03-30 17:27:52.586,-0.7264171474530584
2025-03-30 17:27:52.586,7.948270822552869
2025-03-30 17:27:52.586,10.982277254712509
2025-03-30 17:27:52.586,4.705143844874489
2025-03-30 17:27:52.594,-6.50232888517693
2025-03-30 17:27:52.594,-11.826193066045313
2025-03-30 17:27:52.594,-5.050539304293493
2025-03-30 17:27:52.595,6.365486494910325
2025-03-30 17:27:52.595,8.710193569017603
2025-03-30 17:27:52.604,-0.3208544433527264
2025-03-30 17:27:52.604,-7.697912674905128
2025-03-30 17:27:52.604,-2.4744776217112383
2025-03-30 17:27:52.605,8.69622328996277
2025-03-30 17:27:52.614,10.031397266752577
2025-03-30 17:27:52.614,-2.300890247160523
2025-03-30 17:27:52.614,-14.860817995159064
2025-03-30 17:27:52.614,-13.212339001329859
2025-03-30 17:27:52.614,1.8189357065856075
2025-03-30 17:27:52.622,15.929223797505276
2025-03-30 17:27:52.622,16.125413877582645
2025-03-30 17:27:52.622,2.4454735802815675
2025-03-30 17:27:52.623,-12.631693644963223
2025-03-30 17:27:52.632,-15.682188848886717
2025-03-30 17:27:52.632,-5.263551890892156
2025-03-30 17:27:52.632,6.729906227976327
2025-03-30 17:27:52.633,8.778794300055106
2025-03-30 17:27:52.633,3.0609298380113303
2025-03-30 17:27:52.642,0.4358838026191858
2025-03-30 17:27:52.642,3.5705997642252973
2025-03-30 17:27:52.642,3.1371541334155997
2025-03-30 17:27:52.642,-6.429629696619628
2025-03-30 17:27:52.642,-15.342366703952592
2025-03-30 17:27:52.652,-9.914827260545325
2025-03-30 17:27:52.652,7.964322604987124
2025-03-30 17:27:52.652,20.632138135435017
2025-03-30 17:27:52.652,14.620940381580812
2025-03-30 17:27:52.652,-4.357253969357796
2025-03-30 17:27:52.660,-18.382419337507304
2025-03-30 17:27:52.660,-16.0454619941997
2025-03-30 17:27:52.660,-1.7471705457881324
2025-03-30 17:27:52.661,11.476639862376294
2025-03-30 17:27:52.668,14.522763664189588
2025-03-30 17:27:52.668,7.41607955913174
2025-03-30 17:27:52.669,-3.7697421173025663
2025-03-30 17:27:52.669,-11.619546156036558
2025-03-30 17:27:52.678,-10.839768298560475
2025-03-30 17:27:52.678,-1.723929295993511
2025-03-30 17:27:52.678,8.557507316655991
2025-03-30 17:27:52.678,11.12596870021874
2025-03-30 17:27:52.679,3.992926383065405
2025-03-30 17:27:52.688,-5.683278280754328
2025-03-30 17:27:52.688,-9.073945526295168
2025-03-30 17:27:52.688,-4.267564348101477
2025-03-30 17:27:52.688,3.2653027520086324
2025-03-30 17:27:52.689,6.936471061163483
2025-03-30 17:27:52.698,4.402321471824704
2025-03-30 17:27:52.698,-1.6257939312969418
2025-03-30 17:27:52.698,-5.876881074213527
2025-03-30 17:27:52.698,-4.652366814301496
2025-03-30 17:27:52.698,0.7065809027344203
2025-03-30 17:27:52.708,4.804189378278951
2025-03-30 17:27:52.708,3.862837337060056
2025-03-30 17:27:52.708,-0.20927618869084452
2025-03-30 17:27:52.708,-2.6595427010154755
2025-03-30 17:27:52.708,-1.8149825350029452
2025-03-30 17:27:52.718,-0.11565061392328879
2025-03-30 17:27:52.718,0.29780201803683465
2025-03-30 17:27:52.718,0.23126060493540415
2025-03-30 17:27:52.718,0.7631638228115927
2025-03-30 17:27:52.718,0.6152838565563068
2025-03-30 17:27:52.728,-1.3112044351368628
2025-03-30 17:27:52.728,-2.4221602386927175
2025-03-30 17:27:52.728,0.7452414122384403
2025-03-30 17:27:52.728,5.862030968792509
2025-03-30 17:27:52.729,5.247437910087338
2025-03-30 17:27:52.736,-3.922804152543271
2025-03-30 17:27:52.736,-12.672772175728399
2025-03-30 17:27:52.737,-8.768402671747438
2025-03-30 17:27:52.737,7.195765238597444
2025-03-30 17:27:52.737,19.079471486140058
2025-03-30 17:27:52.746,12.328498055674682
2025-03-30 17:27:52.746,-8.177380954268216
2025-03-30 17:27:52.746,-21.930335180839247
2025-03-30 17:27:52.746,-15.046482736435179
2025-03-30 17:27:52.754,5.056515588659044
2025-03-30 17:27:52.754,19.023367956197188
2025-03-30 17:27:52.755,16.07391826772358
2025-03-30 17:27:52.755,1.8835307083383936
2025-03-30 17:27:52.764,-10.999291777975747
2025-03-30 17:27:52.764,-14.926320774329232
2025-03-30 17:27:52.764,-9.490058518096744
2025-03-30 17:27:52.764,1.5510763632543905
2025-03-30 17:27:52.765,11.669806838544117
2025-03-30 17:27:52.772,13.395531492534642
2025-03-30 17:27:52.772,4.519411060495016
2025-03-30 17:27:52.772,-7.323319017955049
2025-03-30 17:27:52.773,-10.946279365832675
2025-03-30 17:27:52.784,-4.241120874255146
2025-03-30 17:27:52.784,3.3283597513894874
2025-03-30 17:27:52.784,3.313330563128818
2025-03-30 17:27:52.784,-0.8876201755777977
2025-03-30 17:27:52.784,-0.5230448404432853
2025-03-30 17:27:52.785,4.510980651567791
2025-03-30 17:27:52.792,5.596670032511906
2025-03-30 17:27:52.792,-0.7465760623656899
2025-03-30 17:27:52.792,-6.925860124840856
2025-03-30 17:27:52.792,-5.561101921642415
2025-03-30 17:27:52.802,0.022345213437867217
2025-03-30 17:27:52.802,2.2592628096494156
2025-03-30 17:27:52.802,1.2527829460123907
2025-03-30 17:27:52.802,2.598245121426938
2025-03-30 17:27:52.803,5.785976752724705
2025-03-30 17:27:52.803,3.623166775223798
2025-03-30 17:27:52.812,-5.355430529582781
2025-03-30 17:27:52.812,-11.573856391498014
2025-03-30 17:27:52.812,-6.211259391567501
2025-03-30 17:27:52.812,6.102985302065875
2025-03-30 17:27:52.822,12.037729902439004
2025-03-30 17:27:52.822,5.70528682151868
2025-03-30 17:27:52.822,-4.887357174645501
2025-03-30 17:27:52.822,-8.249564775855879
2025-03-30 17:27:52.823,-2.475375827648765
2025-03-30 17:27:52.832,4.198633607111174
2025-03-30 17:27:52.832,3.8604181195912846
2025-03-30 17:27:52.832,-2.4067791560197294
2025-03-30 17:27:52.832,-6.215958298560298
2025-03-30 17:27:52.833,-1.4953834526434853
2025-03-30 17:27:52.842,7.696590795874229
2025-03-30 17:27:52.842,10.195159799844525
2025-03-30 17:27:52.842,0.5152108555390027
2025-03-30 17:27:52.842,-12.443663286302826
2025-03-30 17:27:52.842,-13.505762007793289
2025-03-30 17:27:52.850,0.7031230001981262
2025-03-30 17:27:52.850,15.707434532475466
2025-03-30 17:27:52.851,14.709010024183783
2025-03-30 17:27:52.851,-1.8344387952762382
2025-03-30 17:27:52.860,-16.347246410295227
2025-03-30 17:27:52.860,-13.964876820344454
2025-03-30 17:27:52.860,1.5546965508264088
2025-03-30 17:27:52.860,13.593943512224403
2025-03-30 17:27:52.860,11.524195703345075
2025-03-30 17:27:52.870,0.3148203347118971
2025-03-30 17:27:52.870,-7.909005628892586
2025-03-30 17:27:52.870,-7.650351108493512
2025-03-30 17:27:52.870,-2.9479975937715786
2025-03-30 17:27:52.870,0.8922114235035141
2025-03-30 17:27:52.880,3.4854425448394433
2025-03-30 17:27:52.880,5.8243122352632355
2025-03-30 17:27:52.880,5.121047837436416
2025-03-30 17:27:52.880,-1.3478195807256739
2025-03-30 17:27:52.880,-8.55630274303946
2025-03-30 17:27:52.888,-7.0317970078948075
2025-03-30 17:27:52.888,3.4640833095249373
2025-03-30 17:27:52.889,10.087594753266732
2025-03-30 17:27:52.889,2.900366515329754
2025-03-30 17:27:52.889,-9.605413303066712
2025-03-30 17:27:52.898,-9.75025691237772
2025-03-30 17:27:52.898,4.982317772631455
2025-03-30 17:27:52.898,16.336289667837022
2025-03-30 17:27:52.899,8.402263054324116
2025-03-30 17:27:52.906,-10.877537502720465
2025-03-30 17:27:52.907,-19.115140897600817
2025-03-30 17:27:52.907,-7.305304234160149
2025-03-30 17:27:52.907,10.383963487517828
2025-03-30 17:27:52.907,15.539797543544934
2025-03-30 17:27:52.916,6.457837164275302
2025-03-30 17:27:52.916,-4.145725505615371
2025-03-30 17:27:52.916,-6.917461908098794
2025-03-30 17:27:52.917,-4.405622207536836
2025-03-30 17:27:52.926,-2.9761061523337937
2025-03-30 17:27:52.926,-2.9512230467934897
2025-03-30 17:27:52.926,-0.050118063888147435
2025-03-30 17:27:52.926,6.274182066636984
2025-03-30 17:27:52.927,10.056844922576397
2025-03-30 17:27:52.936,5.493021296337803
2025-03-30 17:27:52.936,-5.0805046944488765
2025-03-30 17:27:52.936,-11.967247399244146
2025-03-30 17:27:52.936,-8.097341701746117
2025-03-30 17:27:52.937,2.575058825459445
2025-03-30 17:27:52.946,8.886320325820854
2025-03-30 17:27:52.946,5.24327272268644
2025-03-30 17:27:52.946,-2.053803967446582
2025-03-30 17:27:52.946,-3.480728581202941
2025-03-30 17:27:52.947,1.2368086431341805
2025-03-30 17:27:52.954,3.7715643796469664
2025-03-30 17:27:52.954,-0.4160528532314177
2025-03-30 17:27:52.954,-5.977306291216193
2025-03-30 17:27:52.955,-5.777292822407048
2025-03-30 17:27:52.955,-0.1136052313883143
2025-03-30 17:27:52.966,5.361641559424675
2025-03-30 17:27:52.966,6.909329105265203
2025-03-30 17:27:52.966,4.257701608466501
2025-03-30 17:27:52.966,-1.4823025374316638
2025-03-30 17:27:52.966,-7.137914579041688
2025-03-30 17:27:52.976,-7.547424520715442
2025-03-30 17:27:52.976,-1.1154942260921081
2025-03-30 17:27:52.976,6.1966989571993745
2025-03-30 17:27:52.976,6.799052894654035
2025-03-30 17:27:52.976,0.7949585496127578
2025-03-30 17:27:52.986,-4.332394579044392
2025-03-30 17:27:52.986,-3.2487928920831246
2025-03-30 17:27:52.986,1.3703517726486867
2025-03-30 17:27:52.986,3.214794424670639
2025-03-30 17:27:52.987,0.03320433065424411
2025-03-30 17:27:52.996,-4.349227058332543
2025-03-30 17:27:52.996,-4.501884393880805
2025-03-30 17:27:52.996,0.9212254956030301
2025-03-30 17:27:52.996,7.3201518526904765
2025-03-30 17:27:52.997,7.926514557492662
2025-03-30 17:27:53.004,0.5820412409610572
2025-03-30 17:27:53.004,-8.877006666572374
2025-03-30 17:27:53.004,-11.259159046094984
2025-03-30 17:27:53.005,-3.2830104815634606
2025-03-30 17:27:53.005,8.10483821797306
2025-03-30 17:27:53.014,12.016258568052024
2025-03-30 17:27:53.014,4.842137637008031
2025-03-30 17:27:53.014,-5.780431318398117
2025-03-30 17:27:53.015,-9.305571822496562
2025-03-30 17:27:53.024,-3.6715871019724733
2025-03-30 17:27:53.024,3.550079004309116
2025-03-30 17:27:53.024,4.879107261151012
2025-03-30 17:27:53.025,0.8668992682323209
2025-03-30 17:27:53.025,-2.6042002722073256
2025-03-30 17:27:53.034,-2.10269973312192
2025-03-30 17:27:53.034,0.7143129215728141
2025-03-30 17:27:53.034,2.7406732988611973
2025-03-30 17:27:53.034,2.763200313577603
2025-03-30 17:27:53.034,1.0203954622779239
2025-03-30 17:27:53.042,-2.126055597396705
2025-03-30 17:27:53.042,-5.453428317638857
2025-03-30 17:27:53.042,-5.877312210235575
2025-03-30 17:27:53.043,-0.745120699647966
2025-03-30 17:27:53.043,7.562902782318405
2025-03-30 17:27:53.052,11.211503783836678
2025-03-30 17:27:53.052,4.511615714539662
2025-03-30 17:27:53.052,-7.72520495593372
2025-03-30 17:27:53.052,-13.245077933525925
2025-03-30 17:27:53.062,-6.083251297707705
2025-03-30 17:27:53.062,5.846658838612511
2025-03-30 17:27:53.062,10.191096133380164
2025-03-30 17:27:53.062,4.615558291202452
2025-03-30 17:27:53.062,-2.5427468662349666
2025-03-30 17:27:53.070,-4.3716298590587375
2025-03-30 17:27:53.070,-2.383964745673908
2025-03-30 17:27:53.070,-0.8232608809229759
2025-03-30 17:27:53.071,0.12575457168896625
2025-03-30 17:27:53.071,1.9378605865473535
2025-03-30 17:27:53.080,2.730640368637317
2025-03-30 17:27:53.080,-0.041333634235686534
2025-03-30 17:27:53.080,-3.572821049636623
2025-03-30 17:27:53.081,-2.234946483425214
2025-03-30 17:27:53.081,3.2764429452516253
2025-03-30 17:27:53.090,5.0633761313123244
2025-03-30 17:27:53.090,-0.7333000501863917
2025-03-30 17:27:53.090,-6.700867783969482
2025-03-30 17:27:53.091,-3.640430341957157
2025-03-30 17:27:53.100,5.35302171836899
2025-03-30 17:27:53.100,7.587675537226942
2025-03-30 17:27:53.100,-1.443233763165678
2025-03-30 17:27:53.100,-10.162475260397706
2025-03-30 17:27:53.101,-5.71614370444652
2025-03-30 17:27:53.108,7.885601219113493
2025-03-30 17:27:53.108,13.649079866431983
2025-03-30 17:27:53.109,3.2050771588599742
2025-03-30 17:27:53.109,-12.083474255202464
2025-03-30 17:27:53.109,-14.704932206623852
2025-03-30 17:27:53.118,-1.8101658016901836
2025-03-30 17:27:53.118,12.107536401620177
2025-03-30 17:27:53.118,12.579375083932018
2025-03-30 17:27:53.119,0.9355155238153875
2025-03-30 17:27:53.128,-9.054607108815338
2025-03-30 17:27:53.128,-7.536533045955561
2025-03-30 17:27:53.128,1.5795082019242945
2025-03-30 17:27:53.128,6.59995797061048
2025-03-30 17:27:53.129,1.449592004832966
2025-03-30 17:27:53.138,-7.622543309469482
2025-03-30 17:27:53.138,-8.449105879064565
2025-03-30 17:27:53.138,3.179221224195067
2025-03-30 17:27:53.138,16.271239882653447
2025-03-30 17:27:53.138,14.480328825530247
2025-03-30 17:27:53.146,-4.585617728838933
2025-03-30 17:27:53.146,-23.012290706688187
2025-03-30 17:27:53.146,-20.332628791095573
2025-03-30 17:27:53.147,2.824936282792633
2025-03-30 17:27:53.154,23.690485632120335
2025-03-30 17:27:53.154,21.685103692352698
2025-03-30 17:27:53.155,0.18541621768307404
2025-03-30 17:27:53.155,-18.64381079123794
2025-03-30 17:27:53.164,-18.017600786173507
2025-03-30 17:27:53.164,-1.9827148544583932
2025-03-30 17:27:53.164,11.960650889132708
2025-03-30 17:27:53.164,11.66704674332809
2025-03-30 17:27:53.165,0.7649861692857542
2025-03-30 17:27:53.174,-7.465411988078208
2025-03-30 17:27:53.174,-4.8510770208006315
2025-03-30 17:27:53.174,3.4520096486393483
2025-03-30 17:27:53.174,5.911819920894709
2025-03-30 17:27:53.174,-0.921156236923126
2025-03-30 17:27:53.184,-7.995758190599314
2025-03-30 17:27:53.184,-5.581880054018944
2025-03-30 17:27:53.184,3.8825599725127335
2025-03-30 17:27:53.184,9.185426630742198
2025-03-30 17:27:53.184,4.911179450655782
2025-03-30 17:27:53.192,-2.896125838409867
2025-03-30 17:27:53.192,-6.054506155963519
2025-03-30 17:27:53.193,-3.796317116052119
2025-03-30 17:27:53.193,-0.5628499831154774
2025-03-30 17:27:53.202,1.3858469196821377
2025-03-30 17:27:53.202,2.8935241399978686
2025-03-30 17:27:53.202,3.5242852883359665
2025-03-30 17:27:53.203,1.2389897124394043
2025-03-30 17:27:53.203,-2.937732165962114
2025-03-30 17:27:53.203,-4.2285282407425555
2025-03-30 17:27:53.212,-0.5419734805316685
2025-03-30 17:27:53.212,3.59733561977384
2025-03-30 17:27:53.212,2.9427973627980353
2025-03-30 17:27:53.213,-1.1117913406630087
2025-03-30 17:27:53.222,-3.1388949517344953
2025-03-30 17:27:53.222,-1.723373010335497
2025-03-30 17:27:53.222,-0.029650777951145735
2025-03-30 17:27:53.223,0.6299712000420661
2025-03-30 17:27:53.223,2.219342348242137
2025-03-30 17:27:53.232,4.398334189483793
2025-03-30 17:27:53.232,3.004783882746891
2025-03-30 17:27:53.232,-3.230371756027343
2025-03-30 17:27:53.232,-8.42854814618269
2025-03-30 17:27:53.233,-5.997712803913474
2025-03-30 17:27:53.242,2.4354246880060724
2025-03-30 17:27:53.242,8.443562975110067
2025-03-30 17:27:53.242,6.857299495104686
2025-03-30 17:27:53.242,0.7847674583457347
2025-03-30 17:27:53.243,-3.9557192529498053
2025-03-30 17:27:53.252,-5.501911211486492
2025-03-30 17:27:53.252,-4.979425139970097
2025-03-30 17:27:53.252,-2.3773434686936863
2025-03-30 17:27:53.252,2.7230682577091745
2025-03-30 17:27:53.253,7.632408146485124
2025-03-30 17:27:53.262,7.580596676981524
2025-03-30 17:27:53.262,1.102617300961514
2025-03-30 17:27:53.262,-7.252548855017735
2025-03-30 17:27:53.262,-10.408081777944806
2025-03-30 17:27:53.263,-5.074038024490272
2025-03-30 17:27:53.270,4.733292136811394
2025-03-30 17:27:53.270,10.545033432621654
2025-03-30 17:27:53.271,7.217388315501072
2025-03-30 17:27:53.271,-1.7203037005106823
2025-03-30 17:27:53.280,-7.7365743394671505
2025-03-30 17:27:53.280,-6.420859044377294
2025-03-30 17:27:53.280,-1.1452039447150673
2025-03-30 17:27:53.281,2.567690644270419
2025-03-30 17:27:53.281,3.4470113492788794
2025-03-30 17:27:53.290,3.461985743580412
2025-03-30 17:27:53.290,2.947316620941521
2025-03-30 17:27:53.290,0.2177465162000995
2025-03-30 17:27:53.290,-4.253692659951838
2025-03-30 17:27:53.291,-6.390596549517636
2025-03-30 17:27:53.300,-2.9703011513919564
2025-03-30 17:27:53.300,3.4943580353384918
2025-03-30 17:27:53.301,6.408672778464395
2025-03-30 17:27:53.301,2.656676327529097
2025-03-30 17:27:53.301,-2.904100068454997
2025-03-30 17:27:53.301,-3.079762469312152
2025-03-30 17:27:53.310,1.8056246064026507
2025-03-30 17:27:53.310,3.6226122000067504
2025-03-30 17:27:53.310,-2.033822338177011
2025-03-30 17:27:53.311,-8.083888457741377
2025-03-30 17:27:53.320,-4.625154646238655
2025-03-30 17:27:53.320,6.449602109914405
2025-03-30 17:27:53.320,11.924848109826334
2025-03-30 17:27:53.320,4.091299396016996
2025-03-30 17:27:53.321,-8.40118437483135
2025-03-30 17:27:53.330,-10.994539974544395
2025-03-30 17:27:53.330,-1.429506087122964
2025-03-30 17:27:53.330,8.11565885386401
2025-03-30 17:27:53.330,6.737728260019022
2025-03-30 17:27:53.331,-2.553611728792272
2025-03-30 17:27:53.340,-7.863255438582316
2025-03-30 17:27:53.340,-2.7346641597843186
2025-03-30 17:27:53.340,7.150116842429205
2025-03-30 17:27:53.340,10.317790450400986
2025-03-30 17:27:53.341,1.3876550736652458
2025-03-30 17:27:53.348,-12.218938976061928
2025-03-30 17:27:53.348,-15.760304688972509
2025-03-30 17:27:53.349,-2.422584713123504
2025-03-30 17:27:53.349,16.488248736269416
2025-03-30 17:27:53.358,20.947279874288395
2025-03-30 17:27:53.358,4.392501323964058
2025-03-30 17:27:53.358,-17.089186459009614
2025-03-30 17:27:53.358,-21.739134401801305
2025-03-30 17:27:53.359,-6.143834897261079
2025-03-30 17:27:53.366,12.358779314560282
2025-03-30 17:27:53.366,16.541374226665152
2025-03-30 17:27:53.366,6.909037707791073
2025-03-30 17:27:53.367,-3.6296792421919606
2025-03-30 17:27:53.376,-7.179795821583631
2025-03-30 17:27:53.376,-6.643359197204509
2025-03-30 17:27:53.376,-5.931711401030466
2025-03-30 17:27:53.377,-2.6329264907109513
2025-03-30 17:27:53.377,5.676264114650232
2025-03-30 17:27:53.384,13.095880368696916
2025-03-30 17:27:53.384,10.108428531954331
2025-03-30 17:27:53.385,-3.6520839322296603
2025-03-30 17:27:53.385,-16.222367631839198
2025-03-30 17:27:53.394,-15.031265494190857
2025-03-30 17:27:53.394,-0.10851662257555073
2025-03-30 17:27:53.394,15.625435932497219
2025-03-30 17:27:53.395,18.43502793867499
2025-03-30 17:27:53.395,5.7881503175536135
2025-03-30 17:27:53.402,-12.042895744628282
2025-03-30 17:27:53.403,-20.694148479720443
2025-03-30 17:27:53.403,-12.910609939385914
2025-03-30 17:27:53.403,5.8444021232588295
2025-03-30 17:27:53.403,21.01938018226497
2025-03-30 17:27:53.412,19.854213142821727
2025-03-30 17:27:53.412,2.162080557164117
2025-03-30 17:27:53.412,-18.139292961913284
2025-03-30 17:27:53.413,-23.88057471651955
2025-03-30 17:27:53.420,-9.760214899654471
2025-03-30 17:27:53.420,12.111452350271932
2025-03-30 17:27:53.421,22.65112431122078
2025-03-30 17:27:53.421,13.47622334536883
2025-03-30 17:27:53.430,-5.29908295451565
2025-03-30 17:27:53.430,-15.763658071576783
2025-03-30 17:27:53.430,-10.686828451689767
2025-03-30 17:27:53.430,0.5928979752313018
2025-03-30 17:27:53.430,5.2493250149590525
2025-03-30 17:27:53.440,2.238703566970007
2025-03-30 17:27:53.440,0.6151712683217132
2025-03-30 17:27:53.440,4.757327083427049
2025-03-30 17:27:53.440,7.68955504873188
2025-03-30 17:27:53.440,1.4655577567030114
2025-03-30 17:27:53.448,-10.25492346589612
2025-03-30 17:27:53.449,-14.782907874706094
2025-03-30 17:27:53.449,-5.172636090585834
2025-03-30 17:27:53.449,10.721948647715342
2025-03-30 17:27:53.458,17.418251146438752
2025-03-30 17:27:53.458,7.685443148978236
2025-03-30 17:27:53.458,-9.269927394764636
2025-03-30 17:27:53.458,-16.45164674609377
2025-03-30 17:27:53.459,-6.885107587560158
2025-03-30 17:27:53.466,8.463389890453943
2025-03-30 17:27:53.466,13.027314977822186
2025-03-30 17:27:53.467,3.686399777953005
2025-03-30 17:27:53.467,-7.060751747223411
2025-03-30 17:27:53.467,-8.00476488089231
2025-03-30 17:27:53.476,-1.773460577442683
2025-03-30 17:27:53.476,2.572505261705347
2025-03-30 17:27:53.477,2.855666468746207
2025-03-30 17:27:53.477,3.220287064172798
2025-03-30 17:27:53.477,4.281330404750082
2025-03-30 17:27:53.486,1.765349974445936
2025-03-30 17:27:53.486,-5.139607300650495
2025-03-30 17:27:53.487,-10.217307727516248
2025-03-30 17:27:53.487,-7.076443367899144
2025-03-30 17:27:53.496,3.22188017274245
2025-03-30 17:27:53.496,12.602944843735726
2025-03-30 17:27:53.496,12.890025134705928
2025-03-30 17:27:53.497,2.7556766722116217
2025-03-30 17:27:53.497,-10.422609327160336
2025-03-30 17:27:53.506,-15.921614467231455
2025-03-30 17:27:53.506,-8.892141921696243
2025-03-30 17:27:53.506,4.88760715442409
2025-03-30 17:27:53.506,13.933196723922643
2025-03-30 17:27:53.506,11.222583340138739
2025-03-30 17:27:53.514,0.12871916432397745
2025-03-30 17:27:53.514,-8.995079772659441
2025-03-30 17:27:53.514,-8.514272500983576
2025-03-30 17:27:53.515,-0.8169649716121871
2025-03-30 17:27:53.524,4.548993065390516
2025-03-30 17:27:53.524,2.083955833682767
2025-03-30 17:27:53.524,-2.8864560785311766
2025-03-30 17:27:53.525,-1.5330645988854643
2025-03-30 17:27:53.525,5.486324655712334
2025-03-30 17:27:53.525,7.601872750666178
2025-03-30 17:27:53.534,-0.9940998147011546
2025-03-30 17:27:53.534,-11.294711770392098
2025-03-30 17:27:53.534,-9.75315856303318
2025-03-30 17:27:53.535,3.397091611742031
2025-03-30 17:27:53.544,13.05392348145107
2025-03-30 17:27:53.544,8.090231810802651
2025-03-30 17:27:53.544,-4.802139935761452
2025-03-30 17:27:53.544,-10.456182412379265
2025-03-30 17:27:53.544,-4.305818595644464
2025-03-30 17:27:53.552,4.0604894563423475
2025-03-30 17:27:53.552,5.241626964793879
2025-03-30 17:27:53.553,1.1622597863570228
2025-03-30 17:27:53.553,-0.7292179501325353
2025-03-30 17:27:53.553,0.6623084868629627
2025-03-30 17:27:53.562,-0.1383432462499603
2025-03-30 17:27:53.562,-4.533436562063321
2025-03-30 17:27:53.563,-5.6865265215201735
2025-03-30 17:27:53.563,1.3281928076641205
2025-03-30 17:27:53.572,9.712917046297264
2025-03-30 17:27:53.572,7.944491733695526
2025-03-30 17:27:53.572,-4.035695283308421
2025-03-30 17:27:53.572,-12.46877618565412
2025-03-30 17:27:53.573,-6.542479653081375
2025-03-30 17:27:53.582,7.232609299739985
2025-03-30 17:27:53.582,12.343555820119464
2025-03-30 17:27:53.582,2.5191713791029247
2025-03-30 17:27:53.582,-10.331537830963468
2025-03-30 17:27:53.582,-10.443439443381445
2025-03-30 17:27:53.590,2.483108375898497
2025-03-30 17:27:53.590,12.660503268259065
2025-03-30 17:27:53.590,7.510652546822017
2025-03-30 17:27:53.591,-6.826812519048516
2025-03-30 17:27:53.600,-13.182653835332987
2025-03-30 17:27:53.600,-4.311897342766472
2025-03-30 17:27:53.600,9.110724389000218
2025-03-30 17:27:53.600,12.029392347135488
2025-03-30 17:27:53.601,2.1074653106094137
2025-03-30 17:27:53.610,-9.201417907159286
2025-03-30 17:27:53.610,-10.31400014384885
2025-03-30 17:27:53.610,-1.3011121170655715
2025-03-30 17:27:53.610,7.817067011711998
2025-03-30 17:27:53.611,8.386466103630138
2025-03-30 17:27:53.620,1.2825780120353114
2025-03-30 17:27:53.620,-5.639404176856173
2025-03-30 17:27:53.620,-6.266569754587836
2025-03-30 17:27:53.620,-1.3415911588826241
2025-03-30 17:27:53.621,3.7884932106198104
2025-03-30 17:27:53.630,4.611012363856659
2025-03-30 17:27:53.630,0.8892733828165489
2025-03-30 17:27:53.630,-3.5588223760367135
2025-03-30 17:27:53.630,-4.128647201430132
2025-03-30 17:27:53.631,0.18504028634122438
2025-03-30 17:27:53.638,5.101858063820899
2025-03-30 17:27:53.639,4.920401018661505
2025-03-30 17:27:53.639,-1.1044110296734444
2025-03-30 17:27:53.639,-7.149273330351517
2025-03-30 17:27:53.639,-6.633293430836963
2025-03-30 17:27:53.648,0.7298689118394345
2025-03-30 17:27:53.648,8.370014086097106
2025-03-30 17:27:53.648,9.048360570463288
2025-03-30 17:27:53.649,1.4314293600073418
2025-03-30 17:27:53.658,-8.528061006178923
2025-03-30 17:27:53.658,-12.157961627076908
2025-03-30 17:27:53.658,-5.251274744836091
2025-03-30 17:27:53.658,7.577144886814561
2025-03-30 17:27:53.659,15.606416685186458
2025-03-30 17:27:53.666,10.694225881464524
2025-03-30 17:27:53.666,-4.8364744417878605
2025-03-30 17:27:53.666,-18.41123432786493
2025-03-30 17:27:53.667,-17.059119276613814
2025-03-30 17:27:53.676,0.167125905304363
2025-03-30 17:27:53.676,19.054428293568957
2025-03-30 17:27:53.676,22.008401732483357
2025-03-30 17:27:53.676,5.254979527319827
2025-03-30 17:27:53.677,-16.292945345715765
2025-03-30 17:27:53.684,-23.015657126717752
2025-03-30 17:27:53.684,-9.58094559706001
2025-03-30 17:27:53.685,10.603380337961786
2025-03-30 17:27:53.685,19.32623508333512
2025-03-30 17:27:53.692,10.912879648673798
2025-03-30 17:27:53.692,-4.157743275620809
2025-03-30 17:27:53.693,-11.635383406177912
2025-03-30 17:27:53.693,-7.935465351275152
2025-03-30 17:27:53.702,-1.116361098450382
2025-03-30 17:27:53.702,1.3146290592478675
2025-03-30 17:27:53.703,1.2904274469540613
2025-03-30 17:27:53.703,4.250635286376147
2025-03-30 17:27:53.703,8.322758496037451
2025-03-30 17:27:53.703,5.87591194478165
2025-03-30 17:27:53.712,-4.26423641824242
2025-03-30 17:27:53.712,-12.558669453183057
2025-03-30 17:27:53.712,-9.819768297203503
2025-03-30 17:27:53.713,1.2769460824484582
2025-03-30 17:27:53.722,9.559920664798623
2025-03-30 17:27:53.722,8.529043116889012
2025-03-30 17:27:53.722,2.2734173443243586
2025-03-30 17:27:53.723,-1.942356387517796
2025-03-30 17:27:53.723,-2.953585964493211
2025-03-30 17:27:53.732,-4.312520448719326
2025-03-30 17:27:53.732,-5.9356092749528
2025-03-30 17:27:53.732,-3.005979470725766
2025-03-30 17:27:53.732,5.0944387915295515
2025-03-30 17:27:53.733,10.266669227495772
2025-03-30 17:27:53.742,5.2025363205367565
2025-03-30 17:27:53.742,-5.418748106237765
2025-03-30 17:27:53.742,-9.411010181513127
2025-03-30 17:27:53.743,-2.6650477226899927
2025-03-30 17:27:53.743,5.514999653264203
2025-03-30 17:27:53.752,4.873196611850842
2025-03-30 17:27:53.752,-2.49206437257719
2025-03-30 17:27:53.752,-5.647901922706371
2025-03-30 17:27:53.752,0.12157402190465116
2025-03-30 17:27:53.753,7.0817639728013395
2025-03-30 17:27:53.762,5.720916124236134
2025-03-30 17:27:53.762,-2.440777752986075
2025-03-30 17:27:53.762,-7.44520723132467
2025-03-30 17:27:53.763,-4.729020828958555
2025-03-30 17:27:53.763,-0.03632954918094167
2025-03-30 17:27:53.772,1.0461529036207629
2025-03-30 17:27:53.772,1.7060189943072401
2025-03-30 17:27:53.772,6.560398872948095
2025-03-30 17:27:53.772,10.414627922640422
2025-03-30 17:27:53.773,3.2467006908483778
2025-03-30 17:27:53.780,-13.051387927654675
2025-03-30 17:27:53.780,-21.342024575593317
2025-03-30 17:27:53.781,-8.522215709941722
2025-03-30 17:27:53.781,15.579271766613564
2025-03-30 17:27:53.788,26.04478326844028
2025-03-30 17:27:53.788,11.08046683241987
2025-03-30 17:27:53.789,-13.349961788046606
2025-03-30 17:27:53.789,-21.7332384113642
2025-03-30 17:27:53.798,-8.437039755399017
2025-03-30 17:27:53.798,8.053364556950186
2025-03-30 17:27:53.798,10.08717844637391
2025-03-30 17:27:53.799,1.3659342209275813
2025-03-30 17:27:53.799,-2.506178083928704
2025-03-30 17:27:53.808,2.8235179565368664
2025-03-30 17:27:53.808,6.387316151966096
2025-03-30 17:27:53.808,-0.10817621586525136
2025-03-30 17:27:53.808,-9.91689803608176
2025-03-30 17:27:53.809,-10.989073613937414
2025-03-30 17:27:53.818,-1.856867912709344
2025-03-30 17:27:53.818,8.033493702487638
2025-03-30 17:27:53.818,10.727462918575643
2025-03-30 17:27:53.819,6.57356370875883
2025-03-30 17:27:53.819,-0.21724118013875024
2025-03-30 17:27:53.828,-6.625159135761715
2025-03-30 17:27:53.828,-9.93160358201429
2025-03-30 17:27:53.828,-6.961710496742933
2025-03-30 17:27:53.829,1.7705189665845722
2025-03-30 17:27:53.829,9.447881107682974
2025-03-30 17:27:53.838,8.753230541969469
2025-03-30 17:27:53.838,0.5376071719925686
2025-03-30 17:27:53.838,-6.304064859398985
2025-03-30 17:27:53.839,-4.949028369343369
2025-03-30 17:27:53.839,1.3022900204200687
2025-03-30 17:27:53.848,3.354957598427012
2025-03-30 17:27:53.848,-1.7925989723640807
2025-03-30 17:27:53.848,-6.539211465477836
2025-03-30 17:27:53.848,-2.283556928316875
2025-03-30 17:27:53.849,8.24208346580385
2025-03-30 17:27:53.856,12.498962979091642
2025-03-30 17:27:53.856,3.286016156712717
2025-03-30 17:27:53.857,-11.249101084963634
2025-03-30 17:27:53.857,-16.073743003074398
2025-03-30 17:27:53.866,-6.095520927390137
2025-03-30 17:27:53.866,8.910871415932524
2025-03-30 17:27:53.866,15.598588383429355
2025-03-30 17:27:53.866,9.810808736188605
2025-03-30 17:27:53.867,-2.179400714254552
2025-03-30 17:27:53.874,-11.3306071044015
2025-03-30 17:27:53.875,-12.451696976460005
2025-03-30 17:27:53.875,-5.7154472943625745
2025-03-30 17:27:53.875,4.559858458614269
2025-03-30 17:27:53.884,11.996558107632799
2025-03-30 17:27:53.884,11.524667821933864
2025-03-30 17:27:53.884,3.0631919498921905
2025-03-30 17:27:53.884,-7.758882567092676
2025-03-30 17:27:53.885,-13.415117659832042
2025-03-30 17:27:53.894,-9.9124750659979
2025-03-30 17:27:53.894,0.5923763805197867
2025-03-30 17:27:53.894,11.306838776361015
2025-03-30 17:27:53.894,14.716984738717509
2025-03-30 17:27:53.895,7.28677713345651
2025-03-30 17:27:53.902,-6.747797452592245
2025-03-30 17:27:53.903,-16.448330518585934
2025-03-30 17:27:53.903,-12.665061944296992
2025-03-30 17:27:53.903,2.1676074449818277
2025-03-30 17:27:53.912,14.605650841126353
2025-03-30 17:27:53.912,13.25058081535601
2025-03-30 17:27:53.912,0.5719246501945149
2025-03-30 17:27:53.912,-10.32101767250508
2025-03-30 17:27:53.913,-9.927939468450598
2025-03-30 17:27:53.922,-1.0780637648953753
2025-03-30 17:27:53.922,6.175425842044866
2025-03-30 17:27:53.922,5.639910536204718
2025-03-30 17:27:53.922,-0.052885173439293665
2025-03-30 17:27:53.923,-3.90723666101742
2025-03-30 17:27:53.932,-2.3150556084432123
2025-03-30 17:27:53.932,1.8403493036011003
2025-03-30 17:27:53.932,3.2375354722701775
2025-03-30 17:27:53.932,0.3902524139587643
2025-03-30 17:27:53.932,-3.0531686252366623
2025-03-30 17:27:53.942,-3.118349698627027
2025-03-30 17:27:53.942,-0.05943001785166885
2025-03-30 17:27:53.942,2.7528570225826083
2025-03-30 17:27:53.942,3.070759017718315
2025-03-30 17:27:53.942,1.2867776235298596
2025-03-30 17:27:53.950,-1.2517418818754331
2025-03-30 17:27:53.950,-3.2452535375800178
2025-03-30 17:27:53.950,-3.1164673556741462
2025-03-30 17:27:53.951,-0.1454836821532201
2025-03-30 17:27:53.951,3.536431321999376
2025-03-30 17:27:53.960,4.200386190525071
2025-03-30 17:27:53.960,0.8415625500964852
2025-03-30 17:27:53.961,-3.2510210591518236
2025-03-30 17:27:53.961,-4.242944253602051
2025-03-30 17:27:53.961,-1.7178003409407792
2025-03-30 17:27:53.970,1.9586434694408494
2025-03-30 17:27:53.970,4.4129452844935955
2025-03-30 17:27:53.971,3.9948518897541025
2025-03-30 17:27:53.971,-0.10909871625702722
2025-03-30 17:27:53.971,-5.798479223246314
2025-03-30 17:27:53.980,-7.5363744661652134
2025-03-30 17:27:53.980,-1.6410640734219886
2025-03-30 17:27:53.981,7.603297477936148
2025-03-30 17:27:53.981,10.60425673966353
2025-03-30 17:27:53.990,3.0901742655169615
2025-03-30 17:27:53.990,-7.997579732211687
2025-03-30 17:27:53.990,-11.461315717991932
2025-03-30 17:27:53.990,-3.9283763853766462
2025-03-30 17:27:53.991,6.73583086656423
2025-03-30 17:27:54.000,9.947640983789428
2025-03-30 17:27:54.000,3.202289125714983
2025-03-30 17:27:54.000,-5.805682004987332
2025-03-30 17:27:54.001,-7.392445930119287
2025-03-30 17:27:54.001,-0.1264901737873625
2025-03-30 17:27:54.008,7.3689306172871465
2025-03-30 17:27:54.008,5.6362921509795525
2025-03-30 17:27:54.009,-4.498999866800087
2025-03-30 17:27:54.009,-11.58494511458579
2025-03-30 17:27:54.018,-5.981651827473668
2025-03-30 17:27:54.018,8.097001711818004
2025-03-30 17:27:54.018,15.78569266048646
2025-03-30 17:27:54.019,7.991379672923733
2025-03-30 17:27:54.019,-7.8321900371058675
2025-03-30 17:27:54.028,-15.939820018865992
2025-03-30 17:27:54.028,-9.73114630078176
2025-03-30 17:27:54.028,2.791167924553509
2025-03-30 17:27:54.029,10.419334028294273
2025-03-30 17:27:54.029,10.20005361870117
2025-03-30 17:27:54.036,5.345358110557776
2025-03-30 17:27:54.036,-2.2630033363399087
2025-03-30 17:27:54.037,-10.873262024738068
2025-03-30 17:27:54.037,-13.473338410625933
2025-03-30 17:27:54.046,-3.2848767384897357
2025-03-30 17:27:54.046,13.341307833904589
2025-03-30 17:27:54.046,18.457985238983785
2025-03-30 17:27:54.047,3.497418246980184
2025-03-30 17:27:54.047,-16.635282057988523
2025-03-30 17:27:54.054,-18.8284159567997
2025-03-30 17:27:54.054,0.1597672913066357
2025-03-30 17:27:54.055,18.822632049966032
2025-03-30 17:27:54.055,16.16372077969949
2025-03-30 17:27:54.064,-4.18806549077266
2025-03-30 17:27:54.064,-19.399716508636843
2025-03-30 17:27:54.064,-13.739121891184116
2025-03-30 17:27:54.064,5.562552013205564
2025-03-30 17:27:54.065,18.373857552630316
2025-03-30 17:27:54.072,13.183057727708878
2025-03-30 17:27:54.072,-3.3034466711072126
2025-03-30 17:27:54.072,-15.227070094664548
2025-03-30 17:27:54.073,-13.064024675541825
2025-03-30 17:27:54.082,-0.6589124062105612
2025-03-30 17:27:54.082,10.256507145749078
2025-03-30 17:27:54.082,11.128715989577827
2025-03-30 17:27:54.083,3.1883234495701718
2025-03-30 17:27:54.083,-5.331333950424577
2025-03-30 17:27:54.092,-7.536949836059881
2025-03-30 17:27:54.092,-3.3231321223586407
2025-03-30 17:27:54.092,2.353613204852372
2025-03-30 17:27:54.092,4.79140518381589
2025-03-30 17:27:54.093,2.7415320433645425
2025-03-30 17:27:54.100,-1.7187490190862929
2025-03-30 17:27:54.101,-4.6809860422547604
2025-03-30 17:27:54.101,-2.8788618104747674
2025-03-30 17:27:54.101,2.851398249480012
2025-03-30 17:27:54.101,6.697041945320497
2025-03-30 17:27:54.110,3.236638250343441
2025-03-30 17:27:54.110,-5.220720075304819
2025-03-30 17:27:54.111,-9.272927771126014
2025-03-30 17:27:54.111,-2.9374892052573145
2025-03-30 17:27:54.120,7.941879433783534
2025-03-30 17:27:54.120,11.182190050904586
2025-03-30 17:27:54.120,2.411167531884591
2025-03-30 17:27:54.121,-9.340321269252248
2025-03-30 17:27:54.121,-11.737956677047396
2025-03-30 17:27:54.130,-2.710456971546226
2025-03-30 17:27:54.130,8.155926366794567
2025-03-30 17:27:54.130,10.59581064076958
2025-03-30 17:27:54.130,3.747235598208873
2025-03-30 17:27:54.131,-4.7033158745040655
2025-03-30 17:27:54.140,-7.454506401432868
2025-03-30 17:27:54.140,-4.23454931319268
2025-03-30 17:27:54.140,0.13900175685971608
2025-03-30 17:27:54.140,2.446951615985532
2025-03-30 17:27:54.141,3.6192218396141236
2025-03-30 17:27:54.148,4.5843943446453785
2025-03-30 17:27:54.148,2.901940392471083
2025-03-30 17:27:54.149,-3.1644658796249012
2025-03-30 17:27:54.149,-8.786230219720666
2025-03-30 17:27:54.158,-6.0891133547493945
2025-03-30 17:27:54.158,4.585366700171593
2025-03-30 17:27:54.158,11.682175100278323
2025-03-30 17:27:54.159,5.542925075193807
2025-03-30 17:27:54.159,-7.837855018477896
2025-03-30 17:27:54.168,-12.385382194447674
2025-03-30 17:27:54.168,-1.9617597577515533
2025-03-30 17:27:54.168,11.030207952273724
2025-03-30 17:27:54.169,10.630392567304078
2025-03-30 17:27:54.169,-2.7221037174105933
2025-03-30 17:27:54.178,-12.52856339490584
2025-03-30 17:27:54.178,-6.615595792074038
2025-03-30 17:27:54.178,7.530825945039599
2025-03-30 17:27:54.178,11.724731527780172
2025-03-30 17:27:54.178,0.07489610540562253
2025-03-30 17:27:54.186,-12.554686979357285
2025-03-30 17:27:54.187,-8.673306672849995
2025-03-30 17:27:54.187,8.687768422619575
2025-03-30 17:27:54.187,17.81302615316185
2025-03-30 17:27:54.196,4.823590524427431
2025-03-30 17:27:54.196,-17.464252925904486
2025-03-30 17:27:54.196,-22.828119405345703
2025-03-30 17:27:54.196,-2.481522141039533
2025-03-30 17:27:54.197,23.12570094327919
2025-03-30 17:27:54.204,26.201994976207555
2025-03-30 17:27:54.204,2.5408284753922947
2025-03-30 17:27:54.204,-23.593658171041398
2025-03-30 17:27:54.205,-25.854183000905223
2025-03-30 17:27:54.212,-3.6330465058135224
2025-03-30 17:27:54.213,19.049344316387767
2025-03-30 17:27:54.213,20.58845579867991
2025-03-30 17:27:54.213,3.532192424048917
2025-03-30 17:27:54.213,-11.77185556187421
2025-03-30 17:27:54.222,-11.3300904439069
2025-03-30 17:27:54.222,-0.8628226580173948
2025-03-30 17:27:54.223,4.724412702894716
2025-03-30 17:27:54.223,0.5233039960608755
2025-03-30 17:27:54.232,-4.027242499372714
2025-03-30 17:27:54.232,0.3679163619749589
2025-03-30 17:27:54.232,9.0200003416548
2025-03-30 17:27:54.233,8.775970136252235
2025-03-30 17:27:54.233,-3.5817229532815187
2025-03-30 17:27:54.242,-14.70811099765756
2025-03-30 17:27:54.242,-10.364274991767061
2025-03-30 17:27:54.242,5.825219853265991
2025-03-30 17:27:54.243,15.410040621314561
2025-03-30 17:27:54.243,7.407997252778111
2025-03-30 17:27:54.250,-8.006103479352557
2025-03-30 17:27:54.251,-12.146507216562416
2025-03-30 17:27:54.251,-1.0999317318952113
2025-03-30 17:27:54.251,10.011517348361847
2025-03-30 17:27:54.251,7.046060746637855
2025-03-30 17:27:54.260,-5.239852438938945
2025-03-30 17:27:54.260,-10.470374120281726
2025-03-30 17:27:54.260,-2.3197575092405565
2025-03-30 17:27:54.261,8.38033190559718
2025-03-30 17:27:54.270,8.750019855978143
2025-03-30 17:27:54.270,-0.43294652691022195
2025-03-30 17:27:54.270,-7.8249933527678195
2025-03-30 17:27:54.270,-6.284635860126323
2025-03-30 17:27:54.271,0.576194662611699
2025-03-30 17:27:54.280,5.391995236027242
2025-03-30 17:27:54.280,5.334529622402254
2025-03-30 17:27:54.280,1.954831661494801
2025-03-30 17:27:54.280,-2.880975843621192
2025-03-30 17:27:54.280,-7.063588159703294
2025-03-30 17:27:54.288,-6.57216597943915
2025-03-30 17:27:54.288,0.9901718777843005
2025-03-30 17:27:54.289,10.468957443619026
2025-03-30 17:27:54.289,11.550481822989084
2025-03-30 17:27:54.298,0.5004266325989712
2025-03-30 17:27:54.298,-12.929982975403638
2025-03-30 17:27:54.298,-14.569244267576668
2025-03-30 17:27:54.299,-1.8825510603678735
2025-03-30 17:27:54.299,12.372421625261833
2025-03-30 17:27:54.306,13.994450433119065
2025-03-30 17:27:54.307,2.6185841681049267
2025-03-30 17:27:54.307,-9.049552327369396
2025-03-30 17:27:54.307,-10.01592783330167
2025-03-30 17:27:54.316,-1.9292531063950187
2025-03-30 17:27:54.316,5.218032875979699
2025-03-30 17:27:54.317,5.107487195859436
2025-03-30 17:27:54.317,0.23958676151398028
2025-03-30 17:27:54.317,-3.223059801399234
2025-03-30 17:27:54.326,-2.354610288196805
2025-03-30 17:27:54.326,1.035601576926458
2025-03-30 17:27:54.327,3.3195823081329303
2025-03-30 17:27:54.327,2.4028162426678543
2025-03-30 17:27:54.327,-0.7572625963761153
2025-03-30 17:27:54.336,-3.3058929173255804
2025-03-30 17:27:54.336,-3.3329463207580057
2025-03-30 17:27:54.336,-1.3206130634974738
2025-03-30 17:27:54.337,1.2046517806393915
2025-03-30 17:27:54.337,3.2508583963623603
2025-03-30 17:27:54.346,4.007286279709871
2025-03-30 17:27:54.346,2.402389915622641
2025-03-30 17:27:54.346,-1.4449541412780977
2025-03-30 17:27:54.347,-4.972570921982201
2025-03-30 17:27:54.347,-5.042722245669042
2025-03-30 17:27:54.356,-1.4020299456343641
2025-03-30 17:27:54.356,2.7409881615237692
2025-03-30 17:27:54.356,4.160884372758802
2025-03-30 17:27:54.356,2.9319077763607932
2025-03-30 17:27:54.357,1.4888497938816885
2025-03-30 17:27:54.366,0.865826431012845
2025-03-30 17:27:54.366,-0.6504009219904534
2025-03-30 17:27:54.366,-4.352929706439845
2025-03-30 17:27:54.366,-7.5934764306563824
2025-03-30 17:27:54.367,-5.394393451262352
2025-03-30 17:27:54.376,3.3305699009248695
2025-03-30 17:27:54.376,12.179934460745802
2025-03-30 17:27:54.376,12.121529627987846
2025-03-30 17:27:54.376,1.0664426733211303
2025-03-30 17:27:54.376,-12.36652220836448
2025-03-30 17:27:54.384,-16.13712001598663
2025-03-30 17:27:54.384,-6.301172511889292
2025-03-30 17:27:54.384,8.876237267480457
2025-03-30 17:27:54.385,16.305074490910588
2025-03-30 17:27:54.392,9.886234531864948
2025-03-30 17:27:54.392,-4.179197937273076
2025-03-30 17:27:54.393,-13.391000068119963
2025-03-30 17:27:54.393,-10.559260701998952
2025-03-30 17:27:54.402,0.16220572058234461
2025-03-30 17:27:54.402,8.472414039915044
2025-03-30 17:27:54.403,8.337648385182433
2025-03-30 17:27:54.403,2.5429834578564328
2025-03-30 17:27:54.403,-2.3676468963653816
2025-03-30 17:27:54.403,-3.6561555708459545
2025-03-30 17:27:54.412,-3.5852850842920327
2025-03-30 17:27:54.412,-4.050830322237716
2025-03-30 17:27:54.413,-2.8444169517788773
2025-03-30 17:27:54.413,2.6412961394046834
2025-03-30 17:27:54.422,9.250852387762544
2025-03-30 17:27:54.422,9.357919018357533
2025-03-30 17:27:54.422,0.09220130932267512
2025-03-30 17:27:54.423,-11.134445987530034
2025-03-30 17:27:54.423,-13.322909033968902
2025-03-30 17:27:54.432,-3.7367792406366327
2025-03-30 17:27:54.432,8.971281109989674
2025-03-30 17:27:54.432,13.486769538157697
2025-03-30 17:27:54.432,6.473959671351712
2025-03-30 17:27:54.433,-5.013199738594047
2025-03-30 17:27:54.442,-10.45151545014566
2025-03-30 17:27:54.442,-5.70081645527461
2025-03-30 17:27:54.442,2.933200583849377
2025-03-30 17:27:54.442,5.409215883694169
2025-03-30 17:27:54.443,-0.1839848220491177
2025-03-30 17:27:54.452,-4.671344356713807
2025-03-30 17:27:54.452,0.32885470541749995
2025-03-30 17:27:54.452,9.598035492327604
2025-03-30 17:27:54.452,9.126983767370461
2025-03-30 17:27:54.453,-4.981405007365124
2025-03-30 17:27:54.460,-18.235779485703876
2025-03-30 17:27:54.461,-13.566603701156334
2025-03-30 17:27:54.461,6.9715531215263455
2025-03-30 17:27:54.461,22.37316167065983
2025-03-30 17:27:54.468,15.899328762256651
2025-03-30 17:27:54.468,-6.045255011800293
2025-03-30 17:27:54.469,-21.218035694634334
2025-03-30 17:27:54.469,-15.633280111712576
2025-03-30 17:27:54.469,3.098910375714727
2025-03-30 17:27:54.478,16.149706650116375
2025-03-30 17:27:54.478,13.362052646473877
2025-03-30 17:27:54.479,0.7278875036455321
2025-03-30 17:27:54.479,-9.174707807136732
2025-03-30 17:27:54.488,-9.910991726754558
2025-03-30 17:27:54.488,-4.120984905215587
2025-03-30 17:27:54.488,2.2953731561303656
2025-03-30 17:27:54.489,5.767543893814933
2025-03-30 17:27:54.489,5.727079356064081
2025-03-30 17:27:54.498,2.833649413115374
2025-03-30 17:27:54.498,-1.5625267736341715
2025-03-30 17:27:54.498,-4.9555871562111
2025-03-30 17:27:54.498,-4.850323670367479
2025-03-30 17:27:54.499,-1.4130699950495915
2025-03-30 17:27:54.508,2.1355997914951486
2025-03-30 17:27:54.508,2.985767902269239
2025-03-30 17:27:54.508,1.8909820256330392
2025-03-30 17:27:54.509,1.4845161989240838
2025-03-30 17:27:54.509,1.9634070433994069
2025-03-30 17:27:54.516,0.5405091395566276
2025-03-30 17:27:54.517,-3.9547833583060665
2025-03-30 17:27:54.517,-7.602162089701212
2025-03-30 17:27:54.517,-4.861700747197956
2025-03-30 17:27:54.517,4.053108067884605
2025-03-30 17:27:54.526,11.260057921122934
2025-03-30 17:27:54.526,8.806217081466436
2025-03-30 17:27:54.527,-2.0909735606091497
2025-03-30 17:27:54.527,-11.436573648014107
2025-03-30 17:27:54.536,-10.68723944230375
2025-03-30 17:27:54.536,-1.101453000434112
2025-03-30 17:27:54.536,8.54168309903397
2025-03-30 17:27:54.537,10.666094455657058
2025-03-30 17:27:54.537,4.528717603040015
2025-03-30 17:27:54.546,-4.5449445032059765
2025-03-30 17:27:54.546,-9.494944249949672
2025-03-30 17:27:54.547,-6.553503093974278
2025-03-30 17:27:54.547,1.5023621216945133
2025-03-30 17:27:54.547,7.300718512229958
2025-03-30 17:27:54.554,5.933879200935952
2025-03-30 17:27:54.555,0.010575908378577026
2025-03-30 17:27:54.555,-3.9112925904989413
2025-03-30 17:27:54.555,-3.304341279945296
2025-03-30 17:27:54.555,-1.329554774135835
2025-03-30 17:27:54.566,-0.5564894590462007
2025-03-30 17:27:54.566,0.7589241724614982
2025-03-30 17:27:54.566,3.8551657744192647
2025-03-30 17:27:54.566,4.954089634448698
2025-03-30 17:27:54.567,0.2656977003865457
2025-03-30 17:27:54.574,-6.47893803435564
2025-03-30 17:27:54.575,-7.089659267134195
2025-03-30 17:27:54.575,-0.0039349448139857635
2025-03-30 17:27:54.575,6.622481527047721
2025-03-30 17:27:54.575,5.2450403185724985
2025-03-30 17:27:54.586,-1.2610471881459087
2025-03-30 17:27:54.586,-3.845150935826255
2025-03-30 17:27:54.586,0.30289586173832106
2025-03-30 17:27:54.586,4.108452204739799
2025-03-30 17:27:54.587,0.6476906181569069
2025-03-30 17:27:54.594,-6.743488190856151
2025-03-30 17:27:54.595,-8.167760606090296
2025-03-30 17:27:54.595,-0.09625760587524862
2025-03-30 17:27:54.595,9.605441264445913
2025-03-30 17:27:54.604,11.061884387222756
2025-03-30 17:27:54.604,3.464988796390592
2025-03-30 17:27:54.604,-5.8072110076904195
2025-03-30 17:27:54.605,-10.314979489725655
2025-03-30 17:27:54.605,-8.956317729270225
2025-03-30 17:27:54.614,-3.117277327276633
2025-03-30 17:27:54.614,5.280540175431805
2025-03-30 17:27:54.615,12.09806570601223
2025-03-30 17:27:54.615,11.86382751791253
2025-03-30 17:27:54.615,3.1522155287210842
2025-03-30 17:27:54.622,-8.720861886342405
2025-03-30 17:27:54.623,-15.882738341764838
2025-03-30 17:27:54.623,-13.439329265721415
2025-03-30 17:27:54.623,-1.371590150075539
2025-03-30 17:27:54.623,14.63190728321892
2025-03-30 17:27:54.632,22.950794824488263
2025-03-30 17:27:54.632,13.197913586922574
2025-03-30 17:27:54.633,-10.438181119725488
2025-03-30 17:27:54.633,-27.248866750143943
2025-03-30 17:27:54.640,-19.738695637839896
2025-03-30 17:27:54.641,5.218690961192907
2025-03-30 17:27:54.641,22.54112232061902
2025-03-30 17:27:54.641,17.358951906700213
2025-03-30 17:27:54.641,-0.015179008522939075
2025-03-30 17:27:54.650,-10.171618830417376
2025-03-30 17:27:54.650,-7.98192550805466
2025-03-30 17:27:54.651,-3.3608324576820543
2025-03-30 17:27:54.651,-3.4232737276627065
2025-03-30 17:27:54.660,-3.3773654098747303
2025-03-30 17:27:54.660,3.1658629026338576
2025-03-30 17:27:54.660,11.969140918115398
2025-03-30 17:27:54.661,12.088258190898323
2025-03-30 17:27:54.661,0.2759035417826947
2025-03-30 17:27:54.668,-13.449464881471773
2025-03-30 17:27:54.669,-16.005607796021213
2025-03-30 17:27:54.669,-4.845429321536647
2025-03-30 17:27:54.669,9.853278445747208
2025-03-30 17:27:54.678,15.420820518543456
2025-03-30 17:27:54.678,8.177143292882237
2025-03-30 17:27:54.678,-4.419470047294198
2025-03-30 17:27:54.679,-11.652288171564818
2025-03-30 17:27:54.679,-9.038607009165611
2025-03-30 17:27:54.688,-0.6118485558790434
2025-03-30 17:27:54.688,6.5120255147674655
2025-03-30 17:27:54.688,8.119043502430836
2025-03-30 17:27:54.688,4.193190575077348
2025-03-30 17:27:54.689,-2.451530212819076
2025-03-30 17:27:54.696,-7.123451460937195
2025-03-30 17:27:54.697,-5.55688862105684
2025-03-30 17:27:54.697,1.4301783593771842
2025-03-30 17:27:54.697,6.764126443800042
2025-03-30 17:27:54.697,4.1945908469733775
2025-03-30 17:27:54.706,-3.426566247430886
2025-03-30 17:27:54.707,-6.494178864195548
2025-03-30 17:27:54.707,-0.5964899854398844
2025-03-30 17:27:54.707,7.011482822765157
2025-03-30 17:27:54.707,5.91600952106193
2025-03-30 17:27:54.716,-3.848919921655492
2025-03-30 17:27:54.717,-10.702099903558683
2025-03-30 17:27:54.717,-5.3758922238594415
2025-03-30 17:27:54.717,7.202039534724377
2025-03-30 17:27:54.726,13.158905076522807
2025-03-30 17:27:54.726,5.7277570072324515
2025-03-30 17:27:54.726,-7.449177182815021
2025-03-30 17:27:54.727,-13.42308089502243
2025-03-30 17:27:54.727,-7.336908927474357
2025-03-30 17:27:54.736,4.315852464691476
2025-03-30 17:27:54.736,11.24087360757998
2025-03-30 17:27:54.736,8.497812953155123
2025-03-30 17:27:54.736,-0.1733406272475292
2025-03-30 17:27:54.737,-6.552651936837644
2025-03-30 17:27:54.746,-6.138614718845941
2025-03-30 17:27:54.746,-2.2670776486360094
2025-03-30 17:27:54.747,-0.6229624058740871
2025-03-30 17:27:54.747,-0.7950502424998198
2025-03-30 17:27:54.747,2.4158700468799723
2025-03-30 17:27:54.754,8.737403882885662
2025-03-30 17:27:54.755,9.510472357654823
2025-03-30 17:27:54.755,-0.6917202923871394
2025-03-30 17:27:54.755,-13.742605073551326
2025-03-30 17:27:54.764,-15.534471884741595
2025-03-30 17:27:54.764,-2.9959814533814155
2025-03-30 17:27:54.764,11.834113064663574
2025-03-30 17:27:54.764,15.619227948863879
2025-03-30 17:27:54.765,7.375750787426037
2025-03-30 17:27:54.772,-3.50777226377921
2025-03-30 17:27:54.773,-9.131794720352481
2025-03-30 17:27:54.773,-9.08188455214921
2025-03-30 17:27:54.773,-6.142840913559936
2025-03-30 17:27:54.782,-1.0950124136814152
2025-03-30 17:27:54.782,5.8966619928424535
2025-03-30 17:27:54.782,11.380237982759759
2025-03-30 17:27:54.783,9.973064872231426
2025-03-30 17:27:54.783,0.596454651985808
2025-03-30 17:27:54.792,-10.325595692066058
2025-03-30 17:27:54.792,-13.660782970534626
2025-03-30 17:27:54.792,-6.193343222030971
2025-03-30 17:27:54.793,5.718875062828149
2025-03-30 17:27:54.793,11.751672494693937
2025-03-30 17:27:54.802,7.489921814235994
2025-03-30 17:27:54.802,-1.546068096199848
2025-03-30 17:27:54.802,-6.385402022652924
2025-03-30 17:27:54.803,-4.356107280613469
2025-03-30 17:27:54.803,-0.5106796891239851
2025-03-30 17:27:54.812,0.32593125423241565
2025-03-30 17:27:54.812,-0.4470456247822189
2025-03-30 17:27:54.812,1.0073182537989291
2025-03-30 17:27:54.812,4.060773854981023
2025-03-30 17:27:54.813,4.117630797203589
2025-03-30 17:27:54.822,-0.6051659602160008
2025-03-30 17:27:54.822,-5.849137295330211
2025-03-30 17:27:54.822,-5.802532330140478
2025-03-30 17:27:54.823,0.24565040458217674
2025-03-30 17:27:54.823,6.364173573722934
2025-03-30 17:27:54.830,5.614953541339924
2025-03-30 17:27:54.831,-1.9121158160023133
2025-03-30 17:27:54.831,-7.650515268052604
2025-03-30 17:27:54.831,-3.748857658453985
2025-03-30 17:27:54.831,6.3329604364742
2025-03-30 17:27:54.840,10.151065783141794
2025-03-30 17:27:54.841,1.229559970160867
2025-03-30 17:27:54.841,-11.406786027744964
2025-03-30 17:27:54.841,-12.576446347601925
2025-03-30 17:27:54.850,0.7842188076134274
2025-03-30 17:27:54.850,14.62982420755279
2025-03-30 17:27:54.850,13.181141713013812
2025-03-30 17:27:54.851,-2.6376698999176784
2025-03-30 17:27:54.851,-15.453005430313999
2025-03-30 17:27:54.858,-10.973010242879441
2025-03-30 17:27:54.859,5.412672380919541
2025-03-30 17:27:54.859,14.714819226841632
2025-03-30 17:27:54.859,6.523740500902636
2025-03-30 17:27:54.859,-8.934660043022365
2025-03-30 17:27:54.868,-13.290712229079809
2025-03-30 17:27:54.869,-1.7485155129860495
2025-03-30 17:27:54.869,11.94978845868808
2025-03-30 17:27:54.869,12.063471066500695
2025-03-30 17:27:54.878,-1.5361922302887072
2025-03-30 17:27:54.878,-14.06711202275307
2025-03-30 17:27:54.878,-12.12568444209402
2025-03-30 17:27:54.879,2.6619151542041655
2025-03-30 17:27:54.879,15.702703926232333
2025-03-30 17:27:54.886,13.948371603260284
2025-03-30 17:27:54.886,-1.4699293473028083
2025-03-30 17:27:54.887,-16.239907817461166
2025-03-30 17:27:54.887,-16.443741292214394
2025-03-30 17:27:54.896,-1.8511178987250076
2025-03-30 17:27:54.896,13.985078008888095
2025-03-30 17:27:54.896,17.024874977401915
2025-03-30 17:27:54.897,5.91587900963618
2025-03-30 17:27:54.897,-8.2027576417313
2025-03-30 17:27:54.906,-13.685718081246712
2025-03-30 17:27:54.906,-8.455762132628172
2025-03-30 17:27:54.906,0.9698759126563758
2025-03-30 17:27:54.907,7.260549737755887
2025-03-30 17:27:54.907,7.665375911618104
2025-03-30 17:27:54.914,3.896030558390452
2025-03-30 17:27:54.915,-0.6627722435682175
2025-03-30 17:27:54.915,-3.5231152028732655
2025-03-30 17:27:54.915,-4.243990687829882
2025-03-30 17:27:54.924,-3.6294901848843186
2025-03-30 17:27:54.925,-1.9587736042435608
2025-03-30 17:27:54.925,1.202407370312359
2025-03-30 17:27:54.925,4.974693827823872
2025-03-30 17:27:54.925,6.175881998850701
2025-03-30 17:27:54.925,2.277898789670434
2025-03-30 17:27:54.934,-4.450145316415327
2025-03-30 17:27:54.934,-7.7399551399022135
2025-03-30 17:27:54.935,-3.8617568026088236
2025-03-30 17:27:54.935,3.5865058788855975
2025-03-30 17:27:54.944,7.209479788697827
2025-03-30 17:27:54.944,3.7642871885270472
2025-03-30 17:27:54.945,-2.9557781796466323
2025-03-30 17:27:54.945,-6.666169044098031
2025-03-30 17:27:54.945,-4.285184324780278
2025-03-30 17:27:54.954,2.255155121693482
2025-03-30 17:27:54.954,7.599707222927388
2025-03-30 17:27:54.954,6.612924420055744
2025-03-30 17:27:54.955,-0.9714813857154276
2025-03-30 17:27:54.955,-8.874900823559546
2025-03-30 17:27:54.962,-9.33198391701618
2025-03-30 17:27:54.963,-1.1599818575739702
2025-03-30 17:27:54.963,8.231082772980857
2025-03-30 17:27:54.963,10.115110980752776
2025-03-30 17:27:54.963,3.387765167891132
2025-03-30 17:27:54.972,-4.841248970522004
2025-03-30 17:27:54.972,-7.450740055438713
2025-03-30 17:27:54.973,-4.354814279366295
2025-03-30 17:27:54.973,-0.37157652742063174
2025-03-30 17:27:54.982,1.8010691575388416
2025-03-30 17:27:54.982,3.3770879534211486
2025-03-30 17:27:54.983,4.9250893762740855
2025-03-30 17:27:54.983,4.089804539066006
2025-03-30 17:27:54.983,-0.47043938737347113
2025-03-30 17:27:54.992,-5.706456131244377
2025-03-30 17:27:54.992,-7.15591327940979
2025-03-30 17:27:54.992,-3.845099517249546
2025-03-30 17:27:54.993,1.6189535698174244
2025-03-30 17:27:54.993,6.3211802479368195
2025-03-30 17:27:55.002,8.172719872234962
2025-03-30 17:27:55.002,5.207710083977507
2025-03-30 17:27:55.003,-2.6739241597052663
2025-03-30 17:27:55.003,-10.675520106562152
2025-03-30 17:27:55.003,-11.156277578309863
2025-03-30 17:27:55.011,-1.6051302595069066
2025-03-30 17:27:55.011,10.421232644920122
2025-03-30 17:27:55.011,13.451209652345089
2025-03-30 17:27:55.011,4.269725554563632
2025-03-30 17:27:55.011,-8.023281114093376
2025-03-30 17:27:55.020,-11.691529911183796
2025-03-30 17:27:55.020,-4.627319239615603
2025-03-30 17:27:55.021,4.934876206839356
2025-03-30 17:27:55.021,8.412351812780589
2025-03-30 17:27:55.030,4.53235821323666
2025-03-30 17:27:55.030,-2.2817138194862316
2025-03-30 17:27:55.031,-7.055379666777762
2025-03-30 17:27:55.031,-6.507467065036928
2025-03-30 17:27:55.031,-0.0073197535161823035
2025-03-30 17:27:55.040,8.341648008461771
2025-03-30 17:27:55.040,10.679990464367119
2025-03-30 17:27:55.040,2.7577878340880044
2025-03-30 17:27:55.040,-9.46543912000831
2025-03-30 17:27:55.041,-14.15171924600839
2025-03-30 17:27:55.048,-6.098148314355917
2025-03-30 17:27:55.049,7.22052223984123
2025-03-30 17:27:55.049,13.636413601908218
2025-03-30 17:27:55.049,8.691578491513178
2025-03-30 17:27:55.049,-1.488850531832059
2025-03-30 17:27:55.058,-8.180091446836757
2025-03-30 17:27:55.058,-8.302770116752411
2025-03-30 17:27:55.059,-4.621668192025425
2025-03-30 17:27:55.059,-0.3858260753794662
2025-03-30 17:27:55.068,3.717734539242251
2025-03-30 17:27:55.068,7.428778065938671
2025-03-30 17:27:55.068,8.314619478697129
2025-03-30 17:27:55.069,3.638430081872783
2025-03-30 17:27:55.069,-5.225185165837746
2025-03-30 17:27:55.076,-11.983742119584976
2025-03-30 17:27:55.077,-10.385043665809956
2025-03-30 17:27:55.077,-0.3769812974969243
2025-03-30 17:27:55.077,10.64665337802141
2025-03-30 17:27:55.086,13.391468412572712
2025-03-30 17:27:55.086,5.048793502972834
2025-03-30 17:27:55.087,-7.048734671175262
2025-03-30 17:27:55.087,-11.630785200413536
2025-03-30 17:27:55.087,-5.004354655800734
2025-03-30 17:27:55.096,4.695644648259596
2025-03-30 17:27:55.096,6.800231918278842
2025-03-30 17:27:55.096,0.5630995850730663
2025-03-30 17:27:55.097,-4.797747245895493
2025-03-30 17:27:55.097,-2.3400585561923726
2025-03-30 17:27:55.106,4.217730776699753
2025-03-30 17:27:55.106,6.1315159415672325
2025-03-30 17:27:55.106,0.7429160644341355
2025-03-30 17:27:55.107,-5.955821161759679
2025-03-30 17:27:55.107,-6.8311827865466626
2025-03-30 17:27:55.116,-1.2028807767622665
2025-03-30 17:27:55.116,5.16753721019228
2025-03-30 17:27:55.116,6.133276171122493
2025-03-30 17:27:55.116,0.9350130265522086
2025-03-30 17:27:55.117,-5.045219627295524
2025-03-30 17:27:55.124,-5.249704984741569
2025-03-30 17:27:55.125,1.1832560448275062
2025-03-30 17:27:55.125,7.507199560457955
2025-03-30 17:27:55.125,5.974245564890303
2025-03-30 17:27:55.125,-3.1083252904113037
2025-03-30 17:27:55.134,-10.69692822020011
2025-03-30 17:27:55.135,-8.563803561565434
2025-03-30 17:27:55.135,1.8054277937949785
2025-03-30 17:27:55.135,11.0599586397539
2025-03-30 17:27:55.144,11.45802173112024
2025-03-30 17:27:55.144,3.2134275838230764
2025-03-30 17:27:55.144,-7.0914208922783715
2025-03-30 17:27:55.144,-12.168077153082027
2025-03-30 17:27:55.145,-8.769513349732408
2025-03-30 17:27:55.154,0.4249175389782697
2025-03-30 17:27:55.154,8.639100317026186
2025-03-30 17:27:55.154,10.27483237049718
2025-03-30 17:27:55.155,5.5318671624234845
2025-03-30 17:27:55.155,-0.8214487963880014
2025-03-30 17:27:55.162,-5.2261499212170515
2025-03-30 17:27:55.163,-7.8942613630902825
2025-03-30 17:27:55.163,-8.866854585418148
2025-03-30 17:27:55.163,-4.8188974041551145
2025-03-30 17:27:55.163,6.07482257088911
2025-03-30 17:27:55.172,16.897162997605598
2025-03-30 17:27:55.172,15.324048329373246
2025-03-30 17:27:55.173,-1.9250870919374834
2025-03-30 17:27:55.173,-20.773325009276096
2025-03-30 17:27:55.180,-21.731302630958307
2025-03-30 17:27:55.181,-1.6427529854947565
2025-03-30 17:27:55.181,20.428536971597733
2025-03-30 17:27:55.181,22.35310427825468
2025-03-30 17:27:55.181,2.6322584458675573
2025-03-30 17:27:55.190,-18.028619912372875
2025-03-30 17:27:55.190,-18.962774619253572
2025-03-30 17:27:55.191,-0.9864305466431842
2025-03-30 17:27:55.191,15.76335027133962
2025-03-30 17:27:55.198,14.195456749994992
2025-03-30 17:27:55.199,-1.9152691910363067
2025-03-30 17:27:55.199,-13.637706372606486
2025-03-30 17:27:55.199,-8.916851717127221
2025-03-30 17:27:55.208,4.503758678495549
2025-03-30 17:27:55.208,9.97719300723741
2025-03-30 17:27:55.209,2.7130793797090083
2025-03-30 17:27:55.209,-5.73411227311472
2025-03-30 17:27:55.209,-4.170600620610363
2025-03-30 17:27:55.218,3.49534299283279
2025-03-30 17:27:55.218,5.2171636527537455
2025-03-30 17:27:55.219,-1.5469279261482833
2025-03-30 17:27:55.219,-6.909753992529004
2025-03-30 17:27:55.219,-3.3913673491001
2025-03-30 17:27:55.228,3.9032519130460255
2025-03-30 17:27:55.228,5.6534234154057135
2025-03-30 17:27:55.228,1.334684773646765
2025-03-30 17:27:55.229,-1.9709243998080954
2025-03-30 17:27:55.229,-0.9751797073722714
2025-03-30 17:27:55.238,0.20754044768360774
2025-03-30 17:27:55.238,-1.8977036208185498
2025-03-30 17:27:55.238,-4.14479410953263
2025-03-30 17:27:55.239,-1.605858562832172
2025-03-30 17:27:55.239,4.598508573473801
2025-03-30 17:27:55.246,7.653888924715168
2025-03-30 17:27:55.247,3.1321012159085178
2025-03-30 17:27:55.247,-5.171897101441344
2025-03-30 17:27:55.247,-8.767543983434967
2025-03-30 17:27:55.256,-3.799688021685959
2025-03-30 17:27:55.257,4.434966991379192
2025-03-30 17:27:55.257,7.43594545190701
2025-03-30 17:27:55.257,3.0312907742527786
2025-03-30 17:27:55.257,-3.005431560123864
2025-03-30 17:27:55.268,-4.593861120719273
2025-03-30 17:27:55.268,-1.9351795385521875
2025-03-30 17:27:55.268,0.7169227364596211
2025-03-30 17:27:55.268,1.452532983048418
2025-03-30 17:27:55.269,1.9115770725003343
2025-03-30 17:27:55.269,2.711630194745285
2025-03-30 17:27:55.276,1.3695450350792702
2025-03-30 17:27:55.277,-3.194419322809782
2025-03-30 17:27:55.277,-6.625061990863815
2025-03-30 17:27:55.277,-3.441706124445127
2025-03-30 17:27:55.286,4.800858748116026
2025-03-30 17:27:55.286,9.477456625925583
2025-03-30 17:27:55.287,4.737031783267721
2025-03-30 17:27:55.287,-5.185799155812359
2025-03-30 17:27:55.287,-10.591916481697837
2025-03-30 17:27:55.296,-6.497740187006723
2025-03-30 17:27:55.296,3.4509094319136264
2025-03-30 17:27:55.297,11.088896983481888
2025-03-30 17:27:55.297,9.832857472850574
2025-03-30 17:27:55.297,-0.544861201195477
2025-03-30 17:27:55.305,-11.98519311551113
2025-03-30 17:27:55.305,-13.269784413628528
2025-03-30 17:27:55.305,-1.512636778805268
2025-03-30 17:27:55.305,12.28194048924098
2025-03-30 17:27:55.305,13.709862304043376
2025-03-30 17:27:55.314,1.5443443586696584
2025-03-30 17:27:55.315,-10.414709303893348
2025-03-30 17:27:55.315,-9.727991417811378
2025-03-30 17:27:55.315,0.4194359828545321
2025-03-30 17:27:55.324,6.74418962465186
2025-03-30 17:27:55.324,2.9433718698388684
2025-03-30 17:27:55.324,-3.8128471087227576
2025-03-30 17:27:55.325,-3.638918257194901
2025-03-30 17:27:55.325,3.400068894827121
2025-03-30 17:27:55.334,8.08227401696539
2025-03-30 17:27:55.334,3.5210365199030647
2025-03-30 17:27:55.335,-6.76343106514531
2025-03-30 17:27:55.335,-12.355340262941004
2025-03-30 17:27:55.335,-6.656869020172639
2025-03-30 17:27:55.342,6.036449628190282
2025-03-30 17:27:55.343,14.283647130301159
2025-03-30 17:27:55.343,10.629028365978797
2025-03-30 17:27:55.343,-1.316537778459737
2025-03-30 17:27:55.343,-11.144431775259639
2025-03-30 17:27:55.352,-11.939102724541854
2025-03-30 17:27:55.353,-5.232691376174033
2025-03-30 17:27:55.353,3.04804768596043
2025-03-30 17:27:55.353,8.607371208764604
2025-03-30 17:27:55.362,9.825854173733829
2025-03-30 17:27:55.362,5.876358021860909
2025-03-30 17:27:55.363,-2.3648424478006826
2025-03-30 17:27:55.363,-9.855110857624567
2025-03-30 17:27:55.363,-10.010292591992616
2025-03-30 17:27:55.372,-2.15233531358019
2025-03-30 17:27:55.372,6.093618849504542
2025-03-30 17:27:55.372,6.884539882083526
2025-03-30 17:27:55.373,1.437414724627314
2025-03-30 17:27:55.373,-2.0815709970221805
2025-03-30 17:27:55.382,0.3553290147950429
2025-03-30 17:27:55.382,3.5822474542927414
2025-03-30 17:27:55.383,0.9716444811979621
2025-03-30 17:27:55.383,-5.870831498585935
2025-03-30 17:27:55.383,-8.608178271409022
2025-03-30 17:27:55.392,-2.75045758854661
2025-03-30 17:27:55.392,6.430010891642505
2025-03-30 17:27:55.392,9.86613174666964
2025-03-30 17:27:55.393,4.810860166712966
2025-03-30 17:27:55.393,-3.022965543854442
2025-03-30 17:27:55.402,-6.750883834354223
2025-03-30 17:27:55.402,-5.141160275135398
2025-03-30 17:27:55.403,-1.4383630563502603
2025-03-30 17:27:55.403,1.8325373472673874
2025-03-30 17:27:55.403,4.121183845453594
2025-03-30 17:27:55.412,4.32697042706644
2025-03-30 17:27:55.412,1.059800853117937
2025-03-30 17:27:55.412,-3.550198351887694
2025-03-30 17:27:55.413,-4.07853312940475
2025-03-30 17:27:55.413,0.9416963047594814
2025-03-30 17:27:55.420,4.714487465792582
2025-03-30 17:27:55.421,0.33060575708415085
2025-03-30 17:27:55.421,-7.674847950574144
2025-03-30 17:27:55.421,-6.884823332829856
2025-03-30 17:27:55.421,5.415403541874338
2025-03-30 17:27:55.430,15.079117177441205
2025-03-30 17:27:55.430,7.888358111571663
2025-03-30 17:27:55.431,-10.256875391227341
2025-03-30 17:27:55.431,-18.24951743062185
2025-03-30 17:27:55.439,-5.797937125448613
2025-03-30 17:27:55.439,12.690953463453987
2025-03-30 17:27:55.439,15.292325226381154
2025-03-30 17:27:55.439,-0.15932418516012437
2025-03-30 17:27:55.439,-13.399428638719773
2025-03-30 17:27:55.448,-7.612009604204358
2025-03-30 17:27:55.449,8.881697102681947
2025-03-30 17:27:55.449,13.253529610731205
2025-03-30 17:27:55.449,-1.8974586427188984
2025-03-30 17:27:55.457,-17.72612348208824
2025-03-30 17:27:55.457,-12.328158332199063
2025-03-30 17:27:55.457,10.532640579168351
2025-03-30 17:27:55.457,23.956385690952605
2025-03-30 17:27:55.457,10.257324648254421
2025-03-30 17:27:55.466,-16.2997158881558
2025-03-30 17:27:55.466,-25.40672204707936
2025-03-30 17:27:55.467,-6.746169077122664
2025-03-30 17:27:55.467,17.894286381442623
2025-03-30 17:27:55.474,21.055447750380683
2025-03-30 17:27:55.475,1.7001888196858672
2025-03-30 17:27:55.475,-15.724885052766883
2025-03-30 17:27:55.475,-12.098652155073047
2025-03-30 17:27:55.484,4.649740089965812
2025-03-30 17:27:55.484,12.115582544589662
2025-03-30 17:27:55.485,2.114136149829743
2025-03-30 17:27:55.485,-10.760235614636182
2025-03-30 17:27:55.485,-9.325051262939427
2025-03-30 17:27:55.494,4.630304746332688
2025-03-30 17:27:55.494,13.920427241651378
2025-03-30 17:27:55.494,7.777731314586526
2025-03-30 17:27:55.494,-6.2023551796470064
2025-03-30 17:27:55.495,-12.634179165943095
2025-03-30 17:27:55.503,-6.121164011195744
2025-03-30 17:27:55.503,4.5314150236677095
2025-03-30 17:27:55.503,7.929594200439923
2025-03-30 17:27:55.503,2.630331807693036
2025-03-30 17:27:55.503,-2.952830617575042
2025-03-30 17:27:55.512,-1.8491414185150155
2025-03-30 17:27:55.513,2.8417101791862396
2025-03-30 17:27:55.513,2.6606732453943707
2025-03-30 17:27:55.513,-4.003474483513907
2025-03-30 17:27:55.522,-8.462769531299692
2025-03-30 17:27:55.522,-2.7407389479202657
2025-03-30 17:27:55.522,8.650382150769245
2025-03-30 17:27:55.523,12.331656932623153
2025-03-30 17:27:55.523,2.185511406841211
2025-03-30 17:27:55.530,-11.717231948042366
2025-03-30 17:27:55.531,-13.678870010399793
2025-03-30 17:27:55.531,-0.847193800759582
2025-03-30 17:27:55.531,12.846141195531395
2025-03-30 17:27:55.531,12.633822978511672
2025-03-30 17:27:55.540,-0.3685576370294942
2025-03-30 17:27:55.541,-11.449557136843264
2025-03-30 17:27:55.541,-9.72886070768575
2025-03-30 17:27:55.541,0.6228755739933092
2025-03-30 17:27:55.550,7.3798371702871375
2025-03-30 17:27:55.550,5.084935552257686
2025-03-30 17:27:55.551,-0.43105516050782094
2025-03-30 17:27:55.551,-1.544680475774511
2025-03-30 17:27:55.551,1.1925887682732093
2025-03-30 17:27:55.558,1.1682682647048594
2025-03-30 17:27:55.559,-3.980649425991062
2025-03-30 17:27:55.559,-8.009662672442529
2025-03-30 17:27:55.559,-3.6550075781108338
2025-03-30 17:27:55.559,7.147557160459036
2025-03-30 17:27:55.568,13.438041029348593
2025-03-30 17:27:55.569,6.9559991934155825
2025-03-30 17:27:55.569,-7.396091456539057
2025-03-30 17:27:55.569,-15.302838873495952
2025-03-30 17:27:55.578,-8.436973506907819
2025-03-30 17:27:55.578,5.783361269852329
2025-03-30 17:27:55.578,12.405464703037662
2025-03-30 17:27:55.578,5.9811838258386185
2025-03-30 17:27:55.579,-4.222936490997366
2025-03-30 17:27:55.588,-6.625542944193481
2025-03-30 17:27:55.588,-0.7831547644081901
2025-03-30 17:27:55.588,4.364458328856381
2025-03-30 17:27:55.589,2.6453883897246038
2025-03-30 17:27:55.589,-3.1511868961306253
2025-03-30 17:27:55.598,-6.25656724122367
2025-03-30 17:27:55.598,-3.3443503311559852
2025-03-30 17:27:55.598,3.223604142210876
2025-03-30 17:27:55.598,7.863001190272256
2025-03-30 17:27:55.599,6.194586939655737
2025-03-30 17:27:55.608,-0.8148221705209875
2025-03-30 17:27:55.608,-6.876396185126085
2025-03-30 17:27:55.609,-6.411809230523601
2025-03-30 17:27:55.609,-0.7592337993292497
2025-03-30 17:27:55.609,3.4789084858435326
2025-03-30 17:27:55.618,2.5329332641989195
2025-03-30 17:27:55.618,-0.34843930825360003
2025-03-30 17:27:55.618,-0.06059677673846882
2025-03-30 17:27:55.619,2.9877318335633083
2025-03-30 17:27:55.619,3.3529490697504194
2025-03-30 17:27:55.628,-1.6762343126339028
2025-03-30 17:27:55.628,-7.327852494511964
2025-03-30 17:27:55.628,-6.273856366720749
2025-03-30 17:27:55.628,2.145729086429159
2025-03-30 17:27:55.629,9.619665330422093
2025-03-30 17:27:55.636,7.451343900779957
2025-03-30 17:27:55.637,-2.901008267896083
2025-03-30 17:27:55.637,-10.233497494739947
2025-03-30 17:27:55.637,-6.122630036934521
2025-03-30 17:27:55.646,4.725463389965224
2025-03-30 17:27:55.646,9.63225331727503
2025-03-30 17:27:55.646,3.1172024151246744
2025-03-30 17:27:55.647,-6.632840536777739
2025-03-30 17:27:55.647,-8.068805532015384
2025-03-30 17:27:55.656,-0.21854621259711493
2025-03-30 17:27:55.656,6.947981365025054
2025-03-30 17:27:55.656,5.253748512432763
2025-03-30 17:27:55.657,-2.1561329658775445
2025-03-30 17:27:55.657,-5.542081900027888
2025-03-30 17:27:55.666,-0.8440789959495205
2025-03-30 17:27:55.666,5.4351248130380965
2025-03-30 17:27:55.666,4.298937802176425
2025-03-30 17:27:55.667,-4.254240330121156
2025-03-30 17:27:55.667,-10.122399080078472
2025-03-30 17:27:55.676,-4.699446319975204
2025-03-30 17:27:55.676,7.864462439055826
2025-03-30 17:27:55.676,13.948702693683098
2025-03-30 17:27:55.677,5.890184670548308
2025-03-30 17:27:55.677,-8.403688865857907
2025-03-30 17:27:55.684,-13.940650039485133
2025-03-30 17:27:55.685,-5.7584933758335355
2025-03-30 17:27:55.685,6.015106048258392
2025-03-30 17:27:55.685,9.177006145995568
2025-03-30 17:27:55.685,3.585652590092911
2025-03-30 17:27:55.694,-1.4604974157744646
2025-03-30 17:27:55.694,-1.3109888428073588
2025-03-30 17:27:55.695,-0.9171868276706819
2025-03-30 17:27:55.695,-4.480042872178814
2025-03-30 17:27:55.704,-6.741113904395162
2025-03-30 17:27:55.704,-0.459277133972115
2025-03-30 17:27:55.704,10.31021985240144
2025-03-30 17:27:55.705,12.211283942546256
2025-03-30 17:27:55.705,0.030001926177010252
2025-03-30 17:27:55.712,-13.942254484447487
2025-03-30 17:27:55.713,-13.408198370163742
2025-03-30 17:27:55.713,1.7203052705176343
2025-03-30 17:27:55.713,14.554308619204816
2025-03-30 17:27:55.722,11.066123397640373
2025-03-30 17:27:55.722,-4.028978181084322
2025-03-30 17:27:55.723,-13.616580234263129
2025-03-30 17:27:55.723,-7.798663940136686
2025-03-30 17:27:55.723,6.063717804901039
2025-03-30 17:27:55.730,12.73557242767019
2025-03-30 17:27:55.731,5.783416558042791
2025-03-30 17:27:55.731,-6.777578853886515
2025-03-30 17:27:55.731,-12.133529949496152
2025-03-30 17:27:55.731,-5.709130728774109
2025-03-30 17:27:55.741,5.499553011506681
2025-03-30 17:27:55.741,10.8990384622139
2025-03-30 17:27:55.741,6.6094947085472695
2025-03-30 17:27:55.741,-1.9824965955219767
2025-03-30 17:27:55.741,-7.197044246182726
2025-03-30 17:27:55.751,-6.833106085730492
2025-03-30 17:27:55.751,-3.5976007429043158
2025-03-30 17:27:55.751,0.7827768986487761
2025-03-30 17:27:55.751,6.154996247252658
2025-03-30 17:27:55.760,9.10924828570515
2025-03-30 17:27:55.761,4.369526050351588
2025-03-30 17:27:55.761,-5.903815714809142
2025-03-30 17:27:55.761,-10.62684647925674
2025-03-30 17:27:55.761,-3.5377070606247654
2025-03-30 17:27:55.770,6.410282305625131
2025-03-30 17:27:55.770,6.225819292925604
2025-03-30 17:27:55.770,-2.5285731439918377
2025-03-30 17:27:55.771,-5.9414427299423025
2025-03-30 17:27:55.771,1.3749020632822404
2025-03-30 17:27:55.780,8.048460440504428
2025-03-30 17:27:55.780,3.053346133179172
2025-03-30 17:27:55.781,-7.481145490345609
2025-03-30 17:27:55.781,-8.759696073533142
2025-03-30 17:27:55.781,1.5042687093408227
2025-03-30 17:27:55.788,9.742270152145975
2025-03-30 17:27:55.789,5.229860271565048
2025-03-30 17:27:55.789,-5.662049727969724
2025-03-30 17:27:55.789,-8.676976333153974
2025-03-30 17:27:55.798,-0.6190688611858892
2025-03-30 17:27:55.798,7.608175180028066
2025-03-30 17:27:55.799,6.172907795421691
2025-03-30 17:27:55.799,-1.9991302086399882
2025-03-30 17:27:55.799,-6.9975238497576004
2025-03-30 17:27:55.808,-4.487916385707209
2025-03-30 17:27:55.809,1.3974181468175155
2025-03-30 17:27:55.809,4.915455688128436
2025-03-30 17:27:55.809,4.224950273687987
2025-03-30 17:27:55.809,0.9048950382498188
2025-03-30 17:27:55.818,-2.45822885756651
2025-03-30 17:27:55.818,-3.6526744092971053
2025-03-30 17:27:55.819,-2.082768310186875
2025-03-30 17:27:55.819,0.43817481024515764
2025-03-30 17:27:55.819,1.37250102259979
2025-03-30 17:27:55.828,0.5719673921342485
2025-03-30 17:27:55.828,0.46705678032375064
2025-03-30 17:27:55.829,2.1364527274640848
2025-03-30 17:27:55.829,2.6675939429681907
2025-03-30 17:27:55.829,-0.9789199373116242
2025-03-30 17:27:55.838,-5.869903040736463
2025-03-30 17:27:55.839,-4.908283649214134
2025-03-30 17:27:55.839,3.094681121499038
2025-03-30 17:27:55.839,9.033243193329996
2025-03-30 17:27:55.839,4.066271579026741
2025-03-30 17:27:55.848,-7.2668328256898045
2025-03-30 17:27:55.848,-10.781779550372313
2025-03-30 17:27:55.849,-0.7565064905540675
2025-03-30 17:27:55.849,11.396089011478791
2025-03-30 17:27:55.849,10.634318686549987
2025-03-30 17:27:55.857,-2.779716748694747
2025-03-30 17:27:55.857,-13.216545017065648
2025-03-30 17:27:55.857,-8.571355834242269
2025-03-30 17:27:55.857,5.375674159429737
2025-03-30 17:27:55.866,12.258472668381808
2025-03-30 17:27:55.867,4.683456347119459
2025-03-30 17:27:55.867,-7.4411147900513095
2025-03-30 17:27:55.867,-9.371385076005135
2025-03-30 17:27:55.867,0.5015553825558501
2025-03-30 17:27:55.876,9.080445516970459
2025-03-30 17:27:55.877,5.3281799931670655
2025-03-30 17:27:55.877,-5.63804159425948
2025-03-30 17:27:55.877,-9.178526154024143
2025-03-30 17:27:55.877,-0.2850051621965739
2025-03-30 17:27:55.886,9.430871848779082
2025-03-30 17:27:55.886,6.576027066674833
2025-03-30 17:27:55.886,-5.892642461504433
2025-03-30 17:27:55.887,-11.298689608008472
2025-03-30 17:27:55.887,-0.9975995013767992
2025-03-30 17:27:55.894,12.492264396889835
2025-03-30 17:27:55.895,10.40616874590031
2025-03-30 17:27:55.895,-6.516932234476451
2025-03-30 17:27:55.895,-16.683906013483277
2025-03-30 17:27:55.904,-5.717202732156304
2025-03-30 17:27:55.904,13.025221960772091
2025-03-30 17:27:55.904,15.271724392565242
2025-03-30 17:27:55.905,-1.6442574942542327
2025-03-30 17:27:55.905,-15.379232058158129
2025-03-30 17:27:55.913,-8.829897723565043
2025-03-30 17:27:55.913,7.921906544627115
2025-03-30 17:27:55.913,12.871644666136149
2025-03-30 17:27:55.913,1.6289883481732264
2025-03-30 17:27:55.913,-9.089189412459604
2025-03-30 17:27:55.922,-6.233371041829144
2025-03-30 17:27:55.923,2.632963563624161
2025-03-30 17:27:55.923,2.9959540923125494
2025-03-30 17:27:55.923,-3.8816961316437375
2025-03-30 17:27:55.932,-3.2920894663344624
2025-03-30 17:27:55.932,8.595322794561472
2025-03-30 17:27:55.932,15.285408576854492
2025-03-30 17:27:55.933,2.2273083719542726
2025-03-30 17:27:55.933,-19.462302982296844
2025-03-30 17:27:55.941,-23.499303887370047
2025-03-30 17:27:55.941,-1.9249141858033474
2025-03-30 17:27:55.941,22.939926554935802
2025-03-30 17:27:55.941,24.60768167041868
2025-03-30 17:27:55.941,3.0829788221545433
2025-03-30 17:27:55.950,-17.490019239988854
2025-03-30 17:27:55.951,-18.10503160333712
2025-03-30 17:27:55.951,-3.830563837438329
2025-03-30 17:27:55.951,7.2116858576188
2025-03-30 17:27:55.960,6.66085106582104
2025-03-30 17:27:55.960,2.05777659951993
2025-03-30 17:27:55.961,2.489651202366619
2025-03-30 17:27:55.961,5.3599076325725425
2025-03-30 17:27:55.961,1.7060572415769266
2025-03-30 17:27:55.970,-8.515850908617116
2025-03-30 17:27:55.970,-13.454654395525303
2025-03-30 17:27:55.970,-4.375057872840432
2025-03-30 17:27:55.971,10.951913141367905
2025-03-30 17:27:55.971,15.564915280992365
2025-03-30 17:27:55.978,3.494959593687033
2025-03-30 17:27:55.979,-12.301368348616776
2025-03-30 17:27:55.979,-14.157942129315035
2025-03-30 17:27:55.979,0.5211178786786723
2025-03-30 17:27:55.987,15.75246757684282
2025-03-30 17:27:55.987,13.534549892918458
2025-03-30 17:27:55.987,-5.913884647565313
2025-03-30 17:27:55.987,-21.854327844429616
2025-03-30 17:27:55.996,-14.518933612184824
2025-03-30 17:27:55.996,10.794140721416385
2025-03-30 17:27:55.997,26.700731774771732
2025-03-30 17:27:55.997,14.489217382514983
2025-03-30 17:27:55.997,-12.961539218489543
2025-03-30 17:27:56.005,-25.602123525830216
2025-03-30 17:27:56.005,-11.383927585740857
2025-03-30 17:27:56.005,11.222026770152066
2025-03-30 17:27:56.005,17.652663207073395
2025-03-30 17:27:56.005,5.864012400400249
2025-03-30 17:27:56.014,-6.234358448366052
2025-03-30 17:27:56.015,-6.480059153243261
2025-03-30 17:27:56.015,-0.9006238275391685
2025-03-30 17:27:56.015,0.05673327726862659
2025-03-30 17:27:56.024,-2.6679428863928876
2025-03-30 17:27:56.025,-1.1015182876720877
2025-03-30 17:27:56.025,5.213600025481399
2025-03-30 17:27:56.025,7.422886803328958
2025-03-30 17:27:56.025,0.34732834431529047
2025-03-30 17:27:56.034,-8.924721395011087
2025-03-30 17:27:56.034,-9.112975665581418
2025-03-30 17:27:56.034,1.0510458640008378
2025-03-30 17:27:56.035,10.839644906666567
2025-03-30 17:27:56.035,9.980226989204914
2025-03-30 17:27:56.042,-0.23924561092213315
2025-03-30 17:27:56.043,-9.824337745054601
2025-03-30 17:27:56.043,-11.192633388376853
2025-03-30 17:27:56.043,-4.672316933869595
2025-03-30 17:27:56.043,4.8859556411863325
2025-03-30 17:27:56.052,12.306661576843583
2025-03-30 17:27:56.052,12.680439333822036
2025-03-30 17:27:56.053,3.1062045093335158
2025-03-30 17:27:56.053,-12.062340029051525
2025-03-30 17:27:56.061,-20.276966345197103
2025-03-30 17:27:56.061,-11.100500551159874
2025-03-30 17:27:56.061,10.404234707187511
2025-03-30 17:27:56.061,24.453141003968422
2025-03-30 17:27:56.070,15.565318277909075
2025-03-30 17:27:56.070,-9.090330006819077
2025-03-30 17:27:56.071,-24.70007964095682
2025-03-30 17:27:56.071,-14.966175559764178
2025-03-30 17:27:56.071,9.312018310870736
2025-03-30 17:27:56.078,21.932824038131585
2025-03-30 17:27:56.079,10.73000670490619
2025-03-30 17:27:56.079,-9.786357485934152
2025-03-30 17:27:56.079,-16.900921108782402
2025-03-30 17:27:56.088,-5.704357707143121
2025-03-30 17:27:56.088,8.368653673219356
2025-03-30 17:27:56.089,10.335207857818585
2025-03-30 17:27:56.089,1.8763493358147896
2025-03-30 17:27:56.089,-4.904237525064696
2025-03-30 17:27:56.097,-3.858598709790534
2025-03-30 17:27:56.097,0.3544100775283192
2025-03-30 17:27:56.097,1.4524886181704169
2025-03-30 17:27:56.097,-0.40168762028600313
2025-03-30 17:27:56.097,-1.1997533676939416
2025-03-30 17:27:56.108,0.212545552104614
2025-03-30 17:27:56.108,1.3626794891201914
2025-03-30 17:27:56.108,0.7303545475173034
2025-03-30 17:27:56.109,-0.18393440865064925
2025-03-30 17:27:56.109,0.142007405029411
2025-03-30 17:27:56.116,0.6450001715045373
2025-03-30 17:27:56.117,-0.40638685255273677
2025-03-30 17:27:56.117,-2.2198525149839203
2025-03-30 17:27:56.117,-2.096726069665107
2025-03-30 17:27:56.126,0.7729571271598018
2025-03-30 17:27:56.127,3.56863643138555
2025-03-30 17:27:56.127,2.914330419329513
2025-03-30 17:27:56.127,-0.7399809511737006
2025-03-30 17:27:56.127,-3.3286212697364688
2025-03-30 17:27:56.136,-2.3584606726596604
2025-03-30 17:27:56.136,-0.09382450030303272
2025-03-30 17:27:56.137,0.25391637267091455
2025-03-30 17:27:56.137,-0.22123470550653285
2025-03-30 17:27:56.137,1.8813538479087872
2025-03-30 17:27:56.146,5.464108183987028
2025-03-30 17:27:56.146,4.568029261454272
2025-03-30 17:27:56.147,-3.125166549722307
2025-03-30 17:27:56.147,-10.760564153406463
2025-03-30 17:27:56.147,-9.067642121776634
2025-03-30 17:27:56.156,2.115266446925434
2025-03-30 17:27:56.156,12.325076543455776
2025-03-30 17:27:56.157,11.395016719121092
2025-03-30 17:27:56.157,0.27703202811216054
2025-03-30 17:27:56.157,-10.043015796634014
2025-03-30 17:27:56.166,-9.97508799612147
2025-03-30 17:27:56.166,-1.040506116294602
2025-03-30 17:27:56.167,6.354206997535862
2025-03-30 17:27:56.167,4.9352017204111265
2025-03-30 17:27:56.167,-1.3154882253702502
2025-03-30 17:27:56.175,-3.083853584246382
2025-03-30 17:27:56.175,1.6984198105716564
2025-03-30 17:27:56.175,5.333236525023953
2025-03-30 17:27:56.175,1.1700551058652504
2025-03-30 17:27:56.175,-7.065749278676356
2025-03-30 17:27:56.185,-9.508760693395143
2025-03-30 17:27:56.185,-1.8863760604581965
2025-03-30 17:27:56.185,9.369954216552163
2025-03-30 17:27:56.185,13.406836119084435
2025-03-30 17:27:56.194,5.4747789363555555
2025-03-30 17:27:56.194,-8.21263537381128
2025-03-30 17:27:56.195,-15.650525763811881
2025-03-30 17:27:56.195,-9.915507338321797
2025-03-30 17:27:56.195,4.234693795075768
2025-03-30 17:27:56.203,14.591537057724018
2025-03-30 17:27:56.203,12.580845016219435
2025-03-30 17:27:56.203,0.5892864613144283
2025-03-30 17:27:56.203,-10.778550575575478
2025-03-30 17:27:56.203,-12.233792594074282
2025-03-30 17:27:56.213,-3.649955546325648
2025-03-30 17:27:56.213,6.3236338552128535
2025-03-30 17:27:56.213,8.801386407010591
2025-03-30 17:27:56.213,3.4671877893430003
2025-03-30 17:27:56.222,-2.1092476868576493
2025-03-30 17:27:56.223,-2.463005617087444
2025-03-30 17:27:56.223,-0.7861941925248185
2025-03-30 17:27:56.223,-2.6370451057870006
2025-03-30 17:27:56.223,-5.763444876859021
2025-03-30 17:27:56.232,-2.311317301418488
2025-03-30 17:27:56.233,7.975306368559892
2025-03-30 17:27:56.233,13.405547768405961
2025-03-30 17:27:56.233,4.369314616939607
2025-03-30 17:27:56.233,-11.89297714027726
2025-03-30 17:27:56.241,-17.541899758675882
2025-03-30 17:27:56.241,-5.456212758106206
2025-03-30 17:27:56.241,11.73694922024076
2025-03-30 17:27:56.241,16.605995743206133
2025-03-30 17:27:56.241,6.385228526268847
2025-03-30 17:27:56.250,-6.613595137737824
2025-03-30 17:27:56.251,-11.066639364691989
2025-03-30 17:27:56.251,-7.302767394593657
2025-03-30 17:27:56.251,-1.8500843859372842
2025-03-30 17:27:56.260,2.5694484645838407
2025-03-30 17:27:56.261,7.277028427285661
2025-03-30 17:27:56.261,10.637221760425073
2025-03-30 17:27:56.261,6.932858266088251
2025-03-30 17:27:56.261,-5.3098731344995205
2025-03-30 17:27:56.269,-16.976437015675494
2025-03-30 17:27:56.269,-15.15371726391909
2025-03-30 17:27:56.269,1.8929497094320016
2025-03-30 17:27:56.269,19.24270240948328
2025-03-30 17:27:56.269,19.142507729838755
2025-03-30 17:27:56.278,0.9624374916911316
2025-03-30 17:27:56.279,-16.712166168360522
2025-03-30 17:27:56.279,-16.602990891744117
2025-03-30 17:27:56.279,-1.8813706368434489
2025-03-30 17:27:56.288,9.695547549578741
2025-03-30 17:27:56.288,8.251723380475832
2025-03-30 17:27:56.289,1.3016382716925399
2025-03-30 17:27:56.289,-0.2247044424205028
2025-03-30 17:27:56.289,2.291996858734677
2025-03-30 17:27:56.296,-0.28495894469642985
2025-03-30 17:27:56.297,-8.455069284163901
2025-03-30 17:27:56.297,-11.049187876753102
2025-03-30 17:27:56.297,-0.7318728395425966
2025-03-30 17:27:56.305,13.713029804789215
2025-03-30 17:27:56.305,16.022421520069184
2025-03-30 17:27:56.305,1.8171451261385894
2025-03-30 17:27:56.305,-15.171733806813284
2025-03-30 17:27:56.305,-17.53632226929445
2025-03-30 17:27:56.315,-2.854752492040033
2025-03-30 17:27:56.315,13.900787955823985
2025-03-30 17:27:56.315,16.420660301436843
2025-03-30 17:27:56.315,3.792767219189512
2025-03-30 17:27:56.324,-10.123168292535786
2025-03-30 17:27:56.324,-12.740585697685578
2025-03-30 17:27:56.324,-4.953650658945592
2025-03-30 17:27:56.325,3.450280211865479
2025-03-30 17:27:56.325,6.545796353532477
2025-03-30 17:27:56.333,6.159032396667105
2025-03-30 17:27:56.333,4.777396726577048
2025-03-30 17:27:56.333,0.8898346204074272
2025-03-30 17:27:56.333,-6.080489158515531
2025-03-30 17:27:56.334,-10.826996339589824
2025-03-30 17:27:56.342,-7.167512006989052
2025-03-30 17:27:56.343,3.1778201678613938
2025-03-30 17:27:56.343,11.09879773407493
2025-03-30 17:27:56.343,9.99447640337396
2025-03-30 17:27:56.352,2.2584947737906473
2025-03-30 17:27:56.352,-5.036946126197961
2025-03-30 17:27:56.352,-8.11877349878397
2025-03-30 17:27:56.353,-7.76477378867816
2025-03-30 17:27:56.353,-4.527782926379231
2025-03-30 17:27:56.362,2.5556311905703204
2025-03-30 17:27:56.362,10.911628159938017
2025-03-30 17:27:56.362,12.638295613505726
2025-03-30 17:27:56.363,2.9951071013480806
2025-03-30 17:27:56.363,-10.749965475098483
2025-03-30 17:27:56.371,-14.892807342193114
2025-03-30 17:27:56.371,-5.133826186699343
2025-03-30 17:27:56.371,7.796872809920882
2025-03-30 17:27:56.371,10.902911843185667
2025-03-30 17:27:56.380,3.6343963389018294
2025-03-30 17:27:56.381,-3.7537140060738103
2025-03-30 17:27:56.381,-4.0871215422458205
2025-03-30 17:27:56.381,-0.5633887603652815
2025-03-30 17:27:56.381,0.22933000254437672
2025-03-30 17:27:56.390,-1.9554176940393342
2025-03-30 17:27:56.391,-1.7960049788742953
2025-03-30 17:27:56.391,2.59538451138057
2025-03-30 17:27:56.391,5.727910447176834
2025-03-30 17:27:56.391,1.9002115006354845
2025-03-30 17:27:56.400,-5.792155706129605
2025-03-30 17:27:56.400,-7.504136917854682
2025-03-30 17:27:56.400,0.8760741882804362
2025-03-30 17:27:56.401,10.281925430149235
2025-03-30 17:27:56.401,7.89366475732396
2025-03-30 17:27:56.409,-5.905581114163808
2025-03-30 17:27:56.409,-15.22728687451759
2025-03-30 17:27:56.409,-7.15419726165242
2025-03-30 17:27:56.409,10.853375172560863
2025-03-30 17:27:56.418,18.156307027240715
2025-03-30 17:27:56.418,5.583384444962466
2025-03-30 17:27:56.419,-13.044777808936193
2025-03-30 17:27:56.419,-17.151044803989958
2025-03-30 17:27:56.419,-3.341302807067337
2025-03-30 17:27:56.427,11.803866177631207
2025-03-30 17:27:56.427,12.191085536349908
2025-03-30 17:27:56.427,0.28103913003895387
2025-03-30 17:27:56.427,-8.286108886753823
2025-03-30 17:27:56.427,-4.867646408602377
2025-03-30 17:27:56.437,3.135788634658816
2025-03-30 17:27:56.437,4.159486083012953
2025-03-30 17:27:56.437,-2.157818390978713
2025-03-30 17:27:56.437,-5.96867233278147
2025-03-30 17:27:56.437,-1.2195606447386111
2025-03-30 17:27:56.446,6.6002242741969885
2025-03-30 17:27:56.447,7.798995949265238
2025-03-30 17:27:56.447,0.3450936158046543
2025-03-30 17:27:56.447,-7.992893502674451
2025-03-30 17:27:56.456,-8.541903424131114
2025-03-30 17:27:56.457,-0.895387541864101
2025-03-30 17:27:56.457,7.2357890421686
2025-03-30 17:27:56.457,8.251534579191533
2025-03-30 17:27:56.457,1.832546317373395
2025-03-30 17:27:56.466,-5.563310581294237
2025-03-30 17:27:56.467,-7.229299954975562
2025-03-30 17:27:56.467,-2.2538616883237883
2025-03-30 17:27:56.467,4.025310208414052
2025-03-30 17:27:56.467,5.432115472718006
2025-03-30 17:27:56.467,1.292245764768241
2025-03-30 17:27:56.477,-3.030055494850049
2025-03-30 17:27:56.477,-2.6503966572567843
2025-03-30 17:27:56.477,0.8744838988461068
2025-03-30 17:27:56.477,2.1502435396320148
2025-03-30 17:27:56.487,-0.24843824534960604
2025-03-30 17:27:56.487,-2.120737052364281
2025-03-30 17:27:56.487,-0.5911607795463255
2025-03-30 17:27:56.487,1.3903217766571838
2025-03-30 17:27:56.487,0.2692600059122636
2025-03-30 17:27:56.487,-1.820325615320205
2025-03-30 17:27:56.497,-0.3095776376871764
2025-03-30 17:27:56.497,3.9149720559176657
2025-03-30 17:27:56.497,4.642143302043051
2025-03-30 17:27:56.497,-1.0015409430001305
2025-03-30 17:27:56.506,-7.5957344451909075
2025-03-30 17:27:56.506,-7.305281211567458
2025-03-30 17:27:56.507,0.6969164227290245
2025-03-30 17:27:56.507,8.779713976736915
2025-03-30 17:27:56.507,8.958803509490387
2025-03-30 17:27:56.516,1.1870423265145955
2025-03-30 17:27:56.516,-7.073192909358505
2025-03-30 17:27:56.517,-8.726228811246372
2025-03-30 17:27:56.517,-3.470834231961332
2025-03-30 17:27:56.517,3.2342231104089048
2025-03-30 17:27:56.526,6.131120807563397
2025-03-30 17:27:56.526,4.42917773003616
2025-03-30 17:27:56.527,1.0362767667507113
2025-03-30 17:27:56.527,-1.2747393770120639
2025-03-30 17:27:56.527,-2.4798364886738886
2025-03-30 17:27:56.536,-3.961521399476642
2025-03-30 17:27:56.536,-4.921192881948067
2025-03-30 17:27:56.537,-2.0283424885385917
2025-03-30 17:27:56.537,5.305895100037085
2025-03-30 17:27:56.537,10.70059625006812
2025-03-30 17:27:56.544,6.25432616837213
2025-03-30 17:27:56.545,-6.307452070225167
2025-03-30 17:27:56.545,-14.209461011970621
2025-03-30 17:27:56.545,-7.523048608418912
2025-03-30 17:27:56.554,7.593468135446575
2025-03-30 17:27:56.554,14.615174725279322
2025-03-30 17:27:56.555,5.945696072842761
2025-03-30 17:27:56.555,-8.149919711022491
2025-03-30 17:27:56.555,-12.189728441388322
2025-03-30 17:27:56.564,-3.4685642704820987
2025-03-30 17:27:56.564,6.586268721666983
2025-03-30 17:27:56.564,7.485917347697619
2025-03-30 17:27:56.565,1.1788050360828524
2025-03-30 17:27:56.565,-3.026303936131137
2025-03-30 17:27:56.573,-1.2325194197283298
2025-03-30 17:27:56.573,1.465187174630029
2025-03-30 17:27:56.573,-0.4320487294619425
2025-03-30 17:27:56.573,-4.85425755988236
2025-03-30 17:27:56.582,-5.116268248432403
2025-03-30 17:27:56.583,1.0912665269247772
2025-03-30 17:27:56.583,8.396316742156356
2025-03-30 17:27:56.583,9.371012576449068
2025-03-30 17:27:56.583,2.027463089211701
2025-03-30 17:27:56.592,-8.18672965203005
2025-03-30 17:27:56.593,-12.843658071349726
2025-03-30 17:27:56.593,-7.405251594323391
2025-03-30 17:27:56.593,4.679652381708724
2025-03-30 17:27:56.593,14.04680416978834
2025-03-30 17:27:56.601,12.708512495256166
2025-03-30 17:27:56.601,0.9369740478276792
2025-03-30 17:27:56.601,-12.30916950006131
2025-03-30 17:27:56.601,-16.208356132593906
2025-03-30 17:27:56.610,-6.893251123355045
2025-03-30 17:27:56.611,8.572688444640104
2025-03-30 17:27:56.611,16.926311934714754
2025-03-30 17:27:56.611,10.156575780632906
2025-03-30 17:27:56.611,-5.597404373610333
2025-03-30 17:27:56.620,-14.55599513174144
2025-03-30 17:27:56.620,-7.849796864208947
2025-03-30 17:27:56.621,5.755335601232236
2025-03-30 17:27:56.621,9.821341793070568
2025-03-30 17:27:56.621,0.5544733018487044
2025-03-30 17:27:56.629,-8.450101287553938
2025-03-30 17:27:56.629,-4.311646419422605
2025-03-30 17:27:56.629,7.6031680407182405
2025-03-30 17:27:56.629,10.59551574527157
2025-03-30 17:27:56.629,-0.6668442627533167
2025-03-30 17:27:56.638,-12.330881837351386
2025-03-30 17:27:56.639,-9.452888175875806
2025-03-30 17:27:56.639,4.3219953426120155
2025-03-30 17:27:56.639,11.93211649524347
2025-03-30 17:27:56.648,5.158397009081279
2025-03-30 17:27:56.649,-6.097037992608353
2025-03-30 17:27:56.649,-8.057190613387807
2025-03-30 17:27:56.649,-0.11198811040735468
2025-03-30 17:27:56.649,6.511484696292113
2025-03-30 17:27:56.658,3.8204060128547064
2025-03-30 17:27:56.658,-3.996294643432734
2025-03-30 17:27:56.659,-6.910138526496457
2025-03-30 17:27:56.659,-1.2553158050019513
2025-03-30 17:27:56.659,6.5567898973729895
2025-03-30 17:27:56.667,7.918570208806982
2025-03-30 17:27:56.667,1.4519733614146384
2025-03-30 17:27:56.667,-6.461122127186165
2025-03-30 17:27:56.667,-8.991142714689772
2025-03-30 17:27:56.667,-4.759068967754984
2025-03-30 17:27:56.677,2.7006446946052685
2025-03-30 17:27:56.677,8.623712733782492
2025-03-30 17:27:56.677,9.468584337981454
2025-03-30 17:27:56.677,4.043244879759147
2025-03-30 17:27:56.677,-5.350646967116256
2025-03-30 17:27:56.687,-12.732878411682044
2025-03-30 17:27:56.687,-11.422458924101935
2025-03-30 17:27:56.687,-0.00572001536765665
2025-03-30 17:27:56.687,13.563238996476734
2025-03-30 17:27:56.696,16.519221668471676
2025-03-30 17:27:56.696,3.9808341072300686
2025-03-30 17:27:56.696,-13.12233976204516
2025-03-30 17:27:56.697,-17.365398220138072
2025-03-30 17:27:56.697,-4.069353627218238
2025-03-30 17:27:56.705,12.366905761709297
2025-03-30 17:27:56.705,14.463556085032861
2025-03-30 17:27:56.705,1.4221761546331113
2025-03-30 17:27:56.705,-11.11747406570407
2025-03-30 17:27:56.715,-10.062343747072735
2025-03-30 17:27:56.715,1.0758387560838552
2025-03-30 17:27:56.715,8.712658780887399
2025-03-30 17:27:56.715,5.957671466794614
2025-03-30 17:27:56.715,-1.3880522721514315
2025-03-30 17:27:56.724,-4.607683368057204
2025-03-30 17:27:56.725,-2.7517895273198807
2025-03-30 17:27:56.725,-0.9491323372707603
2025-03-30 17:27:56.725,-1.293668762412878
2025-03-30 17:27:56.725,-0.22870182288331053
2025-03-30 17:27:56.725,4.545596665496113
2025-03-30 17:27:56.734,8.451506882663526
2025-03-30 17:27:56.735,4.570940140619166
2025-03-30 17:27:56.735,-6.684409191689123
2025-03-30 17:27:56.735,-15.239988146414296
2025-03-30 17:27:56.744,-10.84189246816484
2025-03-30 17:27:56.744,5.115933857592141
2025-03-30 17:27:56.745,18.883676548568204
2025-03-30 17:27:56.745,17.07121418649521
2025-03-30 17:27:56.745,0.2454206326974664
2025-03-30 17:27:56.753,-16.994775994078424
2025-03-30 17:27:56.753,-19.819101924562027
2025-03-30 17:27:56.753,-6.748118139353316
2025-03-30 17:27:56.753,10.047472310798465
2025-03-30 17:27:56.762,16.775734855152493
2025-03-30 17:27:56.763,10.099817171969814
2025-03-30 17:27:56.763,-1.7110980253337364
2025-03-30 17:27:56.763,-8.449674415931941
2025-03-30 17:27:56.763,-7.686271940095141
2025-03-30 17:27:56.772,-4.241248782160393
2025-03-30 17:27:56.773,-1.778247086878831
2025-03-30 17:27:56.773,1.2745534453699099
2025-03-30 17:27:56.773,6.364406544860417
2025-03-30 17:27:56.773,9.388595482799909
2025-03-30 17:27:56.782,4.855584020239756
2025-03-30 17:27:56.782,-5.365225599384986
2025-03-30 17:27:56.783,-11.70022850237689
2025-03-30 17:27:56.783,-7.337020792436773
2025-03-30 17:27:56.783,3.1897742823208617
2025-03-30 17:27:56.790,8.91359124964255
2025-03-30 17:27:56.791,5.3046493773949805
2025-03-30 17:27:56.791,-1.3638624088049627
2025-03-30 17:27:56.791,-3.327951957184307
2025-03-30 17:27:56.800,-0.9096979889318542
2025-03-30 17:27:56.801,0.24766754631821708
2025-03-30 17:27:56.801,-1.5934835252316468
2025-03-30 17:27:56.801,-2.5381764310923995
2025-03-30 17:27:56.801,0.07796349529954172
2025-03-30 17:27:56.810,3.460778927232795
2025-03-30 17:27:56.811,3.391474244643112
2025-03-30 17:27:56.811,-0.04700648547436406
2025-03-30 17:27:56.811,-2.709733394583998
2025-03-30 17:27:56.811,-1.6778524894086166
2025-03-30 17:27:56.820,1.1003230621059148
2025-03-30 17:27:56.821,1.2512360140072856
2025-03-30 17:27:56.821,-2.004496123742684
2025-03-30 17:27:56.821,-3.8739533123024583
2025-03-30 17:27:56.821,-0.06438753149241902
2025-03-30 17:27:56.830,6.105766247361101
2025-03-30 17:27:56.830,6.462072443513241
2025-03-30 17:27:56.830,-1.069957232403727
2025-03-30 17:27:56.831,-8.261632778423289
2025-03-30 17:27:56.831,-6.456665430774802
2025-03-30 17:27:56.840,2.1774514090233206
2025-03-30 17:27:56.840,7.4743649493147855
2025-03-30 17:27:56.841,4.114806763177252
2025-03-30 17:27:56.841,-2.7769666695667987
2025-03-30 17:27:56.841,-5.245912025337552
2025-03-30 17:27:56.850,-1.7722623079698456
2025-03-30 17:27:56.850,2.777046782955585
2025-03-30 17:27:56.851,3.7181300010115903
2025-03-30 17:27:56.851,0.8555174196654273
2025-03-30 17:27:56.851,-2.471692597644829
2025-03-30 17:27:56.860,-3.029577296569473
2025-03-30 17:27:56.860,-0.8037447352179807
2025-03-30 17:27:56.861,1.2378056299850386
2025-03-30 17:27:56.861,1.1185818495539526
2025-03-30 17:27:56.861,0.5996277033060218
2025-03-30 17:27:56.869,1.97342982456853
2025-03-30 17:27:56.869,3.2436876692671945
2025-03-30 17:27:56.869,0.19613406256860008
2025-03-30 17:27:56.869,-6.199331664118336
2025-03-30 17:27:56.870,-8.48787191611094
2025-03-30 17:27:56.879,-1.6627209969793333
2025-03-30 17:27:56.879,8.857424079522128
2025-03-30 17:27:56.879,11.919946807963992
2025-03-30 17:27:56.879,3.4121509768393032
2025-03-30 17:27:56.888,-8.500240345505071
2025-03-30 17:27:56.889,-12.167205872342382
2025-03-30 17:27:56.889,-4.752538437326798
2025-03-30 17:27:56.889,5.77505992800793
2025-03-30 17:27:56.889,9.783957262387862
2025-03-30 17:27:56.898,5.176458780047809
2025-03-30 17:27:56.899,-2.319856568383911
2025-03-30 17:27:56.899,-6.04685054985629
2025-03-30 17:27:56.899,-4.4024747531900985
2025-03-30 17:27:56.899,-0.6252172441153712
2025-03-30 17:27:56.908,1.805461955358456
2025-03-30 17:27:56.909,2.4049185610704624
2025-03-30 17:27:56.909,2.5022036911775203
2025-03-30 17:27:56.909,2.2853649655245385
2025-03-30 17:27:56.909,0.48819704784892326
2025-03-30 17:27:56.919,-2.9428319514582397
2025-03-30 17:27:56.919,-5.270299296810725
2025-03-30 17:27:56.919,-3.431407860938493
2025-03-30 17:27:56.919,1.9364035237808934
2025-03-30 17:27:56.919,6.169783194273718
2025-03-30 17:27:56.928,5.152605121664055
2025-03-30 17:27:56.928,-0.22205643342147674
2025-03-30 17:27:56.929,-4.92182729935179
2025-03-30 17:27:56.929,-4.930505757681386
2025-03-30 17:27:56.929,-0.9298913018966762
2025-03-30 17:27:56.938,2.9728671933485966
2025-03-30 17:27:56.938,3.4222790087061337
2025-03-30 17:27:56.939,0.6254227427302578
2025-03-30 17:27:56.939,-2.276931271217442
2025-03-30 17:27:56.939,-2.2579765037408914
2025-03-30 17:27:56.948,0.7205714146186497
2025-03-30 17:27:56.948,3.499560138934102
2025-03-30 17:27:56.948,2.716107791902914
2025-03-30 17:27:56.949,-1.594276919861342
2025-03-30 17:27:56.949,-5.519806670645695
2025-03-30 17:27:56.958,-4.79417757585273
2025-03-30 17:27:56.958,0.8546817450969755
2025-03-30 17:27:56.958,6.745355376341278
2025-03-30 17:27:56.959,7.124015487394111
2025-03-30 17:27:56.959,0.9117841734792452
2025-03-30 17:27:56.968,-6.366809663027003
2025-03-30 17:27:56.968,-7.5740069273009984
2025-03-30 17:27:56.969,-1.6209585162936329
2025-03-30 17:27:56.969,4.856919295282487
2025-03-30 17:27:56.969,4.814757533416434
2025-03-30 17:27:56.977,-0.8011546584619255
2025-03-30 17:27:56.977,-4.022718450289999
2025-03-30 17:27:56.977,0.13304746627970893
2025-03-30 17:27:56.977,6.674599076792367
2025-03-30 17:27:56.977,5.975981433409101
2025-03-30 17:27:56.986,-4.1558952121032435
2025-03-30 17:27:56.987,-14.049452562580791
2025-03-30 17:27:56.987,-11.485316881661888
2025-03-30 17:27:56.987,4.512710329195283
2025-03-30 17:27:56.995,20.18400759330588
2025-03-30 17:27:56.995,19.003197888166987
2025-03-30 17:27:56.995,-1.2021927733228193
2025-03-30 17:27:56.995,-23.291372685396652
2025-03-30 17:27:57.004,-25.46894236675824
2025-03-30 17:27:57.005,-3.290892661879466
2025-03-30 17:27:57.005,23.41770009765101
2025-03-30 17:27:57.005,28.490969518582684
2025-03-30 17:27:57.005,6.144940491263283
2025-03-30 17:27:57.013,-21.728539598105368
2025-03-30 17:27:57.013,-27.58631030549709
2025-03-30 17:27:57.013,-6.874330782349775
2025-03-30 17:27:57.013,18.395165384142036
2025-03-30 17:27:57.022,24.187324450775552
2025-03-30 17:27:57.022,8.02397713225019
2025-03-30 17:27:57.023,-12.804462767373591
2025-03-30 17:27:57.023,-20.707826584464073
2025-03-30 17:27:57.023,-11.56253742661519
2025-03-30 17:27:57.031,6.038471095702163
2025-03-30 17:27:57.031,18.49737005333187
2025-03-30 17:27:57.031,15.713718995857612
2025-03-30 17:27:57.031,-0.9278149069358972
2025-03-30 17:27:57.040,-17.057355230089048
2025-03-30 17:27:57.041,-16.998567118521756
2025-03-30 17:27:57.041,-0.5127226195296422
2025-03-30 17:27:57.041,15.207831319686937
2025-03-30 17:27:57.041,13.949941713014125
2025-03-30 17:27:57.050,-1.2032769250776498
2025-03-30 17:27:57.050,-12.183952880419037
2025-03-30 17:27:57.051,-7.757053951976905
2025-03-30 17:27:57.051,4.089682445404129
2025-03-30 17:27:57.051,7.768259473396042
2025-03-30 17:27:57.059,0.0970913798138523
2025-03-30 17:27:57.059,-6.703871423581455
2025-03-30 17:27:57.059,-2.1258466175728223
2025-03-30 17:27:57.059,8.070561998183484
2025-03-30 17:27:57.060,9.017986948921953
2025-03-30 17:27:57.068,-3.3997208339674883
2025-03-30 17:27:57.069,-15.633334914904742
2025-03-30 17:27:57.069,-11.980741821454819
2025-03-30 17:27:57.069,6.0722321913686566
2025-03-30 17:27:57.077,20.20486438063728
2025-03-30 17:27:57.077,15.298157102473281
2025-03-30 17:27:57.077,-3.9392234407616544
2025-03-30 17:27:57.077,-18.528094612560395
2025-03-30 17:27:57.086,-15.86764992336481
2025-03-30 17:27:57.087,-1.5788661719169341
2025-03-30 17:27:57.087,9.61440271084688
2025-03-30 17:27:57.087,10.70386890974827
2025-03-30 17:27:57.087,6.319721360847297
2025-03-30 17:27:57.096,2.321519677853964
2025-03-30 17:27:57.096,-1.7089002761698433
2025-03-30 17:27:57.096,-7.290778671053748
2025-03-30 17:27:57.097,-10.232053015611429
2025-03-30 17:27:57.097,-5.143663009157865
2025-03-30 17:27:57.106,5.075014468767055
2025-03-30 17:27:57.106,10.488947245887843
2025-03-30 17:27:57.107,6.032972926258466
2025-03-30 17:27:57.107,-2.3244634377077578
2025-03-30 17:27:57.107,-5.492820432810331
2025-03-30 17:27:57.115,-2.087938498463692
2025-03-30 17:27:57.115,1.5367200782141488
2025-03-30 17:27:57.115,0.3076128743604425
2025-03-30 17:27:57.115,-3.615981215317577
2025-03-30 17:27:57.124,-4.074392611177374
2025-03-30 17:27:57.125,1.5024530743299251
2025-03-30 17:27:57.125,8.406847264870187
2025-03-30 17:27:57.125,8.832703237027646
2025-03-30 17:27:57.125,0.46983938611354376
2025-03-30 17:27:57.134,-9.600676335500706
2025-03-30 17:27:57.135,-11.614932767502864
2025-03-30 17:27:57.135,-3.9335705016732363
2025-03-30 17:27:57.135,5.356335677198177
2025-03-30 17:27:57.135,8.392685901078787
2025-03-30 17:27:57.144,5.806364639464043
2025-03-30 17:27:57.144,2.79079365461064
2025-03-30 17:27:57.145,0.35186332333248915
2025-03-30 17:27:57.145,-4.46994985349119
2025-03-30 17:27:57.145,-10.353794287776882
2025-03-30 17:27:57.153,-9.769921676888687
2025-03-30 17:27:57.153,1.0867234959613028
2025-03-30 17:27:57.153,13.796205069521532
2025-03-30 17:27:57.153,14.78011318296252
2025-03-30 17:27:57.153,1.497012570098662
2025-03-30 17:27:57.163,-12.897171296714864
2025-03-30 17:27:57.163,-13.891036698697738
2025-03-30 17:27:57.163,-1.9349376934358533
2025-03-30 17:27:57.163,9.280403871994572
2025-03-30 17:27:57.172,9.51419495336533
2025-03-30 17:27:57.172,2.0957951659411225
2025-03-30 17:27:57.173,-3.6436092309017067
2025-03-30 17:27:57.173,-4.757459133159113
2025-03-30 17:27:57.173,-4.779843981597724
2025-03-30 17:27:57.181,-4.402091326153634
2025-03-30 17:27:57.181,0.5184058179270321
2025-03-30 17:27:57.181,9.67131562137605
2025-03-30 17:27:57.181,13.420457496748348
2025-03-30 17:27:57.190,3.540360582407929
2025-03-30 17:27:57.191,-13.12455881338363
2025-03-30 17:27:57.191,-18.924862484534227
2025-03-30 17:27:57.191,-6.005525271246127
2025-03-30 17:27:57.191,12.441668891811467
2025-03-30 17:27:57.200,16.792661119871298
2025-03-30 17:27:57.200,4.39877105353382
2025-03-30 17:27:57.201,-8.345411253296895
2025-03-30 17:27:57.201,-7.752915134234086
2025-03-30 17:27:57.201,0.9286581289746187
2025-03-30 17:27:57.210,3.5850088556251505
2025-03-30 17:27:57.211,-2.4618761294552307
2025-03-30 17:27:57.211,-6.453588275734844
2025-03-30 17:27:57.211,-0.9844165731570358
2025-03-30 17:27:57.211,7.752798865274786
2025-03-30 17:27:57.219,9.193617684351205
2025-03-30 17:27:57.219,1.8900103815058418
2025-03-30 17:27:57.219,-6.419548471449825
2025-03-30 17:27:57.219,-8.742435580376869
2025-03-30 17:27:57.229,-4.701646219236249
2025-03-30 17:27:57.229,1.6446635129705967
2025-03-30 17:27:57.229,5.947550978736179
2025-03-30 17:27:57.229,5.8099502201163435
2025-03-30 17:27:57.229,1.9075960574418611
2025-03-30 17:27:57.230,-2.242020882928364
2025-03-30 17:27:57.238,-3.1968361647054433
2025-03-30 17:27:57.239,-1.1583921253546536
2025-03-30 17:27:57.239,0.24965250235154351
2025-03-30 17:27:57.239,-1.4267038718590381
2025-03-30 17:27:57.248,-3.843668968054401
2025-03-30 17:27:57.249,-2.281740442215163
2025-03-30 17:27:57.249,4.046263607009074
2025-03-30 17:27:57.249,9.549469904446996
2025-03-30 17:27:57.249,7.579072406247391
2025-03-30 17:27:57.257,-1.9500313082085916
2025-03-30 17:27:57.257,-11.366181836210968
2025-03-30 17:27:57.257,-12.193859608565814
2025-03-30 17:27:57.257,-3.260070885828857
2025-03-30 17:27:57.258,7.97324185958893
2025-03-30 17:27:57.266,12.148495234075805
2025-03-30 17:27:57.267,6.5825503598577875
2025-03-30 17:27:57.267,-2.6407259316798353
2025-03-30 17:27:57.267,-7.217515722838159
2025-03-30 17:27:57.276,-4.742477296671872
2025-03-30 17:27:57.276,0.1758033038490336
2025-03-30 17:27:57.277,1.8745851814569463
2025-03-30 17:27:57.277,-0.5788335928220144
2025-03-30 17:27:57.277,-3.074533741381094
2025-03-30 17:27:57.286,-1.0178361229443555
2025-03-30 17:27:57.286,5.226247777126502
2025-03-30 17:27:57.286,9.239597238330841
2025-03-30 17:27:57.287,4.748435143414246
2025-03-30 17:27:57.287,-6.143399991273214
2025-03-30 17:27:57.294,-13.267071977244424
2025-03-30 17:27:57.295,-9.056281026981626
2025-03-30 17:27:57.295,2.7685338664867736
2025-03-30 17:27:57.295,11.47484490880089
2025-03-30 17:27:57.304,10.744945921495896
2025-03-30 17:27:57.305,3.13405792789328
2025-03-30 17:27:57.305,-5.221320952340898
2025-03-30 17:27:57.305,-10.004849625433103
2025-03-30 17:27:57.305,-8.85239785025998
2025-03-30 17:27:57.314,-1.2933039283293908
2025-03-30 17:27:57.315,8.4418220237217
2025-03-30 17:27:57.315,12.036475385797056
2025-03-30 17:27:57.315,5.084542271616169
2025-03-30 17:27:57.315,-6.336047857734283
2025-03-30 17:27:57.324,-11.082011142069053
2025-03-30 17:27:57.325,-5.461730792528746
2025-03-30 17:27:57.325,3.0378679017469006
2025-03-30 17:27:57.325,5.741957982242512
2025-03-30 17:27:57.325,2.945886901074574
2025-03-30 17:27:57.333,1.0220261527943542
2025-03-30 17:27:57.333,1.9832857316791266
2025-03-30 17:27:57.333,1.1504330545805115
2025-03-30 17:27:57.333,-4.166748235836713
2025-03-30 17:27:57.334,-8.580523251918043
2025-03-30 17:27:57.343,-4.965142531394456
2025-03-30 17:27:57.343,5.080913745662791
2025-03-30 17:27:57.343,11.394020676441988
2025-03-30 17:27:57.343,6.854887384842475
2025-03-30 17:27:57.352,-3.89307276395042
2025-03-30 17:27:57.353,-9.699646758677787
2025-03-30 17:27:57.353,-5.828199505703403
2025-03-30 17:27:57.353,1.4756448454552293
2025-03-30 17:27:57.353,4.080033835798156
2025-03-30 17:27:57.362,2.0969088777149976
2025-03-30 17:27:57.362,1.443170656560251
2025-03-30 17:27:57.363,3.422272146730399
2025-03-30 17:27:57.363,2.5087546252720596
2025-03-30 17:27:57.363,-4.0072840688597
2025-03-30 17:27:57.372,-9.394464472465975
2025-03-30 17:27:57.373,-5.3203107472855
2025-03-30 17:27:57.373,5.665722509809506
2025-03-30 17:27:57.373,11.155675714302316
2025-03-30 17:27:57.373,4.057325254918398
2025-03-30 17:27:57.381,-7.354001083479456
2025-03-30 17:27:57.381,-8.739388866903322
2025-03-30 17:27:57.381,2.000454842680867
2025-03-30 17:27:57.381,10.749496673449272
2025-03-30 17:27:57.390,4.446589998021926
2025-03-30 17:27:57.391,-10.893570334837518
2025-03-30 17:27:57.391,-15.623437195044366
2025-03-30 17:27:57.391,-1.032611408309041
2025-03-30 17:27:57.391,17.869629990570438
2025-03-30 17:27:57.398,19.343831457828657
2025-03-30 17:27:57.399,0.9241838546698353
2025-03-30 17:27:57.399,-18.286732052358204
2025-03-30 17:27:57.399,-20.081254341412556
2025-03-30 17:27:57.408,-5.159850984507249
2025-03-30 17:27:57.408,11.773185092021778
2025-03-30 17:27:57.409,18.092517874621098
2025-03-30 17:27:57.409,11.531723346445949
2025-03-30 17:27:57.409,-1.9981835524557214
2025-03-30 17:27:57.417,-13.443173967121272
2025-03-30 17:27:57.417,-15.436249780948113
2025-03-30 17:27:57.417,-7.0045984577808795
2025-03-30 17:27:57.417,5.540628851560981
2025-03-30 17:27:57.425,13.863655449974836
2025-03-30 17:27:57.425,13.464866944079553
2025-03-30 17:27:57.425,4.567085454023697
2025-03-30 17:27:57.425,-8.800097591272323
2025-03-30 17:27:57.426,-18.036638100211015
2025-03-30 17:27:57.435,-13.350676078671803
2025-03-30 17:27:57.435,5.208316917549013
2025-03-30 17:27:57.435,21.766580899874214
2025-03-30 17:27:57.435,17.851710539793142
2025-03-30 17:27:57.443,-5.5012180142933005
2025-03-30 17:27:57.443,-24.67933665986546
2025-03-30 17:27:57.443,-18.07825804975243
2025-03-30 17:27:57.443,8.2745805805994
2025-03-30 17:27:57.451,25.6720671192404
2025-03-30 17:27:57.451,14.972661915065995
2025-03-30 17:27:57.451,-11.019836932120697
2025-03-30 17:27:57.452,-22.59213598871235
2025-03-30 17:27:57.452,-8.444629017522264
2025-03-30 17:27:57.461,11.898663030589194
2025-03-30 17:27:57.461,13.980882181272886
2025-03-30 17:27:57.461,-1.0237087324025145
2025-03-30 17:27:57.461,-10.488633398613429
2025-03-30 17:27:57.470,-2.0131578445377967
2025-03-30 17:27:57.471,10.719577014951147
2025-03-30 17:27:57.471,8.031465485127406
2025-03-30 17:27:57.471,-8.324904373581708
2025-03-30 17:27:57.471,-17.09929186355613
2025-03-30 17:27:57.479,-5.461625962857696
2025-03-30 17:27:57.479,13.797924251799603
2025-03-30 17:27:57.479,17.79390799418229
2025-03-30 17:27:57.479,1.9835153931067273
2025-03-30 17:27:57.480,-14.463760939572404
2025-03-30 17:27:57.489,-12.850402288899978
2025-03-30 17:27:57.489,2.5199523520018277
2025-03-30 17:27:57.489,11.718471855720031
2025-03-30 17:27:57.489,5.183455699874395
2025-03-30 17:27:57.498,-6.041303754049895
2025-03-30 17:27:57.499,-7.081371235934064
2025-03-30 17:27:57.499,1.482748215300867
2025-03-30 17:27:57.499,6.741238166046496
2025-03-30 17:27:57.499,2.0074679538084603
2025-03-30 17:27:57.509,-5.2263690191504315
2025-03-30 17:27:57.509,-4.8580054012578975
2025-03-30 17:27:57.509,2.2506907963579605
2025-03-30 17:27:57.509,6.422924159994959
2025-03-30 17:27:57.509,2.2548080624504627
2025-03-30 17:27:57.518,-5.091825803477587
2025-03-30 17:27:57.519,-6.965997201264032
2025-03-30 17:27:57.519,-1.2398101744866146
2025-03-30 17:27:57.519,6.40580688859301
2025-03-30 17:27:57.519,9.042991780523769
2025-03-30 17:27:57.527,4.073724700587447
2025-03-30 17:27:57.527,-5.88378882734037
2025-03-30 17:27:57.527,-13.879840659772128
2025-03-30 17:27:57.527,-11.422868093763032
2025-03-30 17:27:57.527,3.619365508244373
2025-03-30 17:27:57.536,19.97608310896942
2025-03-30 17:27:57.537,20.10206912885735
2025-03-30 17:27:57.537,-0.20036803298985617
2025-03-30 17:27:57.537,-22.87328411457737
2025-03-30 17:27:57.545,-24.864508590116085
2025-03-30 17:27:57.545,-3.773307497263493
2025-03-30 17:27:57.545,19.191644808076376
2025-03-30 17:27:57.545,22.695788001931806
2025-03-30 17:27:57.545,6.929474831363206
2025-03-30 17:27:57.554,-10.303606003627829
2025-03-30 17:27:57.555,-14.642132858344244
2025-03-30 17:27:57.555,-7.492747037976273
2025-03-30 17:27:57.555,0.922142576396429
2025-03-30 17:27:57.565,4.589693884547094
2025-03-30 17:27:57.565,4.969405676492927
2025-03-30 17:27:57.565,4.867984234795456
2025-03-30 17:27:57.565,3.815411551144115
2025-03-30 17:27:57.565,-0.06465820916397898
2025-03-30 17:27:57.573,-6.029773554728736
2025-03-30 17:27:57.573,-9.652933873559384
2025-03-30 17:27:57.573,-6.004458859486449
2025-03-30 17:27:57.574,4.56843809610103
2025-03-30 17:27:57.574,13.558168497610714
2025-03-30 17:27:57.583,10.780545100438836
2025-03-30 17:27:57.583,-3.3774848414307734
2025-03-30 17:27:57.583,-15.203035502022626
2025-03-30 17:27:57.583,-11.713401045985087
2025-03-30 17:27:57.592,3.72259902808487
2025-03-30 17:27:57.593,14.36768356915373
2025-03-30 17:27:57.593,9.044105130480002
2025-03-30 17:27:57.593,-5.529549686050942
2025-03-30 17:27:57.593,-12.749824690627914
2025-03-30 17:27:57.601,-4.693233476400463
2025-03-30 17:27:57.601,8.99839854357404
2025-03-30 17:27:57.601,11.668766998293727
2025-03-30 17:27:57.601,-0.7983993501908778
2025-03-30 17:27:57.602,-13.645211639097765
2025-03-30 17:27:57.611,-10.129056010982664
2025-03-30 17:27:57.611,6.946423070101967
2025-03-30 17:27:57.611,17.155453465285884
2025-03-30 17:27:57.611,7.525232039932906
2025-03-30 17:27:57.620,-11.103211865521658
2025-03-30 17:27:57.621,-17.640145336389846
2025-03-30 17:27:57.621,-5.8286067247824525
2025-03-30 17:27:57.621,10.675631376305242
2025-03-30 17:27:57.621,15.821467981004147
2025-03-30 17:27:57.629,6.987322119214208
2025-03-30 17:27:57.629,-6.3412829081531745
2025-03-30 17:27:57.629,-13.285156008699035
2025-03-30 17:27:57.629,-9.291562993672901
2025-03-30 17:27:57.638,1.7510234378085356
2025-03-30 17:27:57.639,10.153511116859676
2025-03-30 17:27:57.639,8.376522422357867
2025-03-30 17:27:57.639,-0.8066333284017548
2025-03-30 17:27:57.639,-6.394076625402285
2025-03-30 17:27:57.648,-2.149944157614292
2025-03-30 17:27:57.648,4.890384614116686
2025-03-30 17:27:57.649,3.256069680603402
2025-03-30 17:27:57.649,-6.64743646899298
2025-03-30 17:27:57.649,-11.202645833648345
2025-03-30 17:27:57.657,-1.3539313086521474
2025-03-30 17:27:57.657,13.322842582227944
2025-03-30 17:27:57.657,14.669012570742984
2025-03-30 17:27:57.657,-0.8752515364915934
2025-03-30 17:27:57.666,-15.93747937852844
2025-03-30 17:27:57.667,-12.537122544395185
2025-03-30 17:27:57.667,5.436126746771867
2025-03-30 17:27:57.667,16.13490537610561
2025-03-30 17:27:57.667,6.282515163334228
2025-03-30 17:27:57.675,-12.067604524308255
2025-03-30 17:27:57.675,-15.816112698335566
2025-03-30 17:27:57.675,0.6350181709510373
2025-03-30 17:27:57.675,17.779255120710555
2025-03-30 17:27:57.683,14.53436664819436
2025-03-30 17:27:57.683,-5.7304858211414125
2025-03-30 17:27:57.683,-19.18390341261733
2025-03-30 17:27:57.683,-10.653738914072086
2025-03-30 17:27:57.684,8.57327582992125
2025-03-30 17:27:57.693,15.716896279178627
2025-03-30 17:27:57.693,4.175829662000255
2025-03-30 17:27:57.693,-10.293223757735841
2025-03-30 17:27:57.693,-10.264366426164456
2025-03-30 17:27:57.701,2.791793701977167
2025-03-30 17:27:57.701,11.987063747034584
2025-03-30 17:27:57.701,6.09307929989375
2025-03-30 17:27:57.701,-7.693083291061228
2025-03-30 17:27:57.702,-13.173226327469605
2025-03-30 17:27:57.711,-4.17174327015293
2025-03-30 17:27:57.711,9.112600335215914
2025-03-30 17:27:57.711,12.44065876150981
2025-03-30 17:27:57.711,3.279479934615746
2025-03-30 17:27:57.721,-7.585232963122596
2025-03-30 17:27:57.721,-9.072664512825273
2025-03-30 17:27:57.721,-1.818202891276857
2025-03-30 17:27:57.721,4.407839075136221
2025-03-30 17:27:57.721,3.7230115914258786
2025-03-30 17:27:57.730,0.4304906361292686
2025-03-30 17:27:57.730,0.4997956444061161
2025-03-30 17:27:57.731,1.524882314582602
2025-03-30 17:27:57.731,-2.4176401187748433
2025-03-30 17:27:57.731,-7.98728367319739
2025-03-30 17:27:57.739,-4.326955195646062
2025-03-30 17:27:57.739,9.24505048639395
2025-03-30 17:27:57.739,16.671343463693304
2025-03-30 17:27:57.739,4.649116079917237
2025-03-30 17:27:57.748,-16.67017561272466
2025-03-30 17:27:57.749,-22.88727407954301
2025-03-30 17:27:57.749,-4.988616472056261
2025-03-30 17:27:57.749,18.94194076315675
2025-03-30 17:27:57.749,24.36709687713754
