timestamp,bandpass_and_notch
2025-03-30 17:15:36.582,0.28448873654391205
2025-03-30 17:15:36.582,-41.767047130148825
2025-03-30 17:15:36.583,-43.78641726620349
2025-03-30 17:15:36.583,-20.823501756918585
2025-03-30 17:15:36.583,-7.67292598546934
2025-03-30 17:15:37.584,-7.820608059499152
2025-03-30 17:15:38.151,-6.31590478807942
2025-03-30 17:15:38.151,-1.1790776748763776
2025-03-30 17:15:38.151,-1.9203734328231366
2025-03-30 17:15:38.151,-12.724669539083242
2025-03-30 17:15:38.160,-23.085587560389424
2025-03-30 17:15:38.160,-12.2073531035254
2025-03-30 17:15:38.160,27.056735782141214
2025-03-30 17:15:38.160,65.99818975049695
2025-03-30 17:15:38.161,60.242157795561646
2025-03-30 17:15:38.168,2.317632621739458
2025-03-30 17:15:38.168,-59.82919129804396
2025-03-30 17:15:38.169,-69.29054593373056
2025-03-30 17:15:38.169,-19.004291578888846
2025-03-30 17:15:38.176,43.66369541833437
2025-03-30 17:15:38.177,65.87652554628606
2025-03-30 17:15:38.177,35.80443318516912
2025-03-30 17:15:38.177,-15.069940826243698
2025-03-30 17:15:38.184,-45.68330319744839
2025-03-30 17:15:38.185,-39.28732153922634
2025-03-30 17:15:38.185,-10.896768600640266
2025-03-30 17:15:38.185,12.266318867804177
2025-03-30 17:15:38.185,16.492600270200523
2025-03-30 17:15:38.194,9.368447145593976
2025-03-30 17:15:38.194,4.614533277196081
2025-03-30 17:15:38.194,4.018632686832972
2025-03-30 17:15:38.195,-1.3246441797680844
2025-03-30 17:15:38.202,-13.838563950400026
2025-03-30 17:15:38.202,-21.239685835758873
2025-03-30 17:15:38.203,-10.541061501286407
2025-03-30 17:15:38.203,12.963264992184635
2025-03-30 17:15:38.212,27.76536317666261
2025-03-30 17:15:38.212,19.26598031980478
2025-03-30 17:15:38.212,-3.6005175107097482
2025-03-30 17:15:38.212,-18.588777777897707
2025-03-30 17:15:38.213,-14.56706632821726
2025-03-30 17:15:38.220,-0.9848083802741538
2025-03-30 17:15:38.221,6.691807531773344
2025-03-30 17:15:38.221,5.033173600707343
2025-03-30 17:15:38.221,2.263335169268082
2025-03-30 17:15:38.221,3.760799458223891
2025-03-30 17:15:38.232,5.048440963016473
2025-03-30 17:15:38.232,0.37163689293877433
2025-03-30 17:15:38.232,-7.461628260608546
2025-03-30 17:15:38.232,-10.082049634378503
2025-03-30 17:15:38.233,-4.317168512287398
2025-03-30 17:15:38.240,3.966856867557461
2025-03-30 17:15:38.240,7.029856491460692
2025-03-30 17:15:38.240,3.6852296716908994
2025-03-30 17:15:38.241,-0.8228459800709704
2025-03-30 17:15:38.241,-1.9562983913393264
2025-03-30 17:15:38.252,-0.5781725020798201
2025-03-30 17:15:38.252,-0.20925348017538556
2025-03-30 17:15:38.252,-1.7081710031784416
2025-03-30 17:15:38.252,-2.498040671732093
2025-03-30 17:15:38.253,-0.568571178212693
2025-03-30 17:15:38.260,2.5093212225118244
2025-03-30 17:15:38.260,3.4511704217645693
2025-03-30 17:15:38.261,1.421927193311461
2025-03-30 17:15:38.261,-1.0550494730688091
2025-03-30 17:15:38.261,-1.5317258707149017
2025-03-30 17:15:38.272,-0.5202950962416605
2025-03-30 17:15:38.272,-0.05823149179902751
2025-03-30 17:15:38.272,-0.48890010397059785
2025-03-30 17:15:38.272,-0.15906821861988651
2025-03-30 17:15:38.273,1.4809426964114283
2025-03-30 17:15:38.280,1.8215248041747618
2025-03-30 17:15:38.280,-1.590342870610181
2025-03-30 17:15:38.281,-5.484126248350735
2025-03-30 17:15:38.281,-2.813847763611654
2025-03-30 17:15:38.290,6.553553974832939
2025-03-30 17:15:38.290,11.61169418772274
2025-03-30 17:15:38.290,3.0599047197104055
2025-03-30 17:15:38.290,-12.05423791246891
2025-03-30 17:15:38.291,-16.282145778729202
2025-03-30 17:15:38.298,-3.179131583730602
2025-03-30 17:15:38.298,13.737695894160916
2025-03-30 17:15:38.299,16.57497661758307
2025-03-30 17:15:38.299,3.4341919029913353
2025-03-30 17:15:38.308,-11.033322534154093
2025-03-30 17:15:38.308,-13.307000902965623
2025-03-30 17:15:38.308,-4.1575181868033475
2025-03-30 17:15:38.308,5.953259962738604
2025-03-30 17:15:38.309,9.29414172275481
2025-03-30 17:15:38.316,5.8923766077384006
2025-03-30 17:15:38.316,-0.24527276767262954
2025-03-30 17:15:38.317,-5.536317807990549
2025-03-30 17:15:38.317,-7.644319450564027
2025-03-30 17:15:38.326,-5.11174312918407
2025-03-30 17:15:38.326,1.4369544639708696
2025-03-30 17:15:38.327,7.8744167095944935
2025-03-30 17:15:38.327,8.674881062827106
2025-03-30 17:15:38.327,2.409499673307871
2025-03-30 17:15:38.336,-5.655287276508443
2025-03-30 17:15:38.336,-8.425908542915723
2025-03-30 17:15:38.337,-4.332364507183139
2025-03-30 17:15:38.337,1.7358816925313805
2025-03-30 17:15:38.337,4.558710223359049
2025-03-30 17:15:38.346,3.5600572129882795
2025-03-30 17:15:38.346,1.308642992779737
2025-03-30 17:15:38.346,-0.3734768046967439
2025-03-30 17:15:38.347,-1.087985588288335
2025-03-30 17:15:38.347,-0.7739479235542376
2025-03-30 17:15:38.356,-0.3832742033168437
2025-03-30 17:15:38.356,-1.8234646821873552
2025-03-30 17:15:38.356,-4.3327646808297
2025-03-30 17:15:38.357,-3.0048877728645453
2025-03-30 17:15:38.357,4.638788866064933
2025-03-30 17:15:38.364,11.745662700382846
2025-03-30 17:15:38.364,7.860431161088418
2025-03-30 17:15:38.364,-6.572283066091436
2025-03-30 17:15:38.365,-16.98559429957131
2025-03-30 17:15:38.374,-10.844601211832424
2025-03-30 17:15:38.374,6.1689364001564195
2025-03-30 17:15:38.374,16.297949108089817
2025-03-30 17:15:38.374,10.85229188904406
2025-03-30 17:15:38.375,-1.7390636065437852
2025-03-30 17:15:38.382,-9.40355294444232
2025-03-30 17:15:38.382,-9.700879468743372
2025-03-30 17:15:38.383,-6.2468614036381584
2025-03-30 17:15:38.383,0.019577156654572936
2025-03-30 17:15:38.392,8.699881992995772
2025-03-30 17:15:38.392,13.646122741470984
2025-03-30 17:15:38.392,7.572959729153323
2025-03-30 17:15:38.392,-6.712621489753168
2025-03-30 17:15:38.392,-16.145870806813615
2025-03-30 17:15:38.400,-11.268381320070652
2025-03-30 17:15:38.401,3.0493522384608864
2025-03-30 17:15:38.401,13.26691491086114
2025-03-30 17:15:38.401,11.354205727881805
2025-03-30 17:15:38.401,0.9616523063429298
2025-03-30 17:15:38.410,-8.436195529209284
2025-03-30 17:15:38.410,-10.107709205149744
2025-03-30 17:15:38.411,-3.700793122150194
2025-03-30 17:15:38.411,5.572394946239838
2025-03-30 17:15:38.420,10.077406658778001
2025-03-30 17:15:38.420,5.1409905197345065
2025-03-30 17:15:38.420,-5.774601565800333
2025-03-30 17:15:38.420,-12.242308434419808
2025-03-30 17:15:38.420,-6.442436240907708
2025-03-30 17:15:38.428,7.3570526581523845
2025-03-30 17:15:38.428,15.252209517014219
2025-03-30 17:15:38.429,8.000898367137587
2025-03-30 17:15:38.429,-7.943305477794247
2025-03-30 17:15:38.438,-16.28445843527176
2025-03-30 17:15:38.438,-8.474149700939908
2025-03-30 17:15:38.438,6.710801726292246
2025-03-30 17:15:38.439,13.217535835121254
2025-03-30 17:15:38.439,5.925268537682308
2025-03-30 17:15:38.446,-4.734638635532007
2025-03-30 17:15:38.446,-6.697904205157417
2025-03-30 17:15:38.447,-0.48519962525033167
2025-03-30 17:15:38.447,3.665873982118896
2025-03-30 17:15:38.447,0.17830606679716393
2025-03-30 17:15:38.458,-5.285009066067595
2025-03-30 17:15:38.458,-4.291116620448869
2025-03-30 17:15:38.458,3.131307867390714
2025-03-30 17:15:38.458,8.665251426161792
2025-03-30 17:15:38.459,5.863401447266586
2025-03-30 17:15:38.466,-2.7233625347867236
2025-03-30 17:15:38.466,-8.844754557936518
2025-03-30 17:15:38.467,-7.00972617158937
2025-03-30 17:15:38.467,0.7760638416711981
2025-03-30 17:15:38.476,7.194876101100928
2025-03-30 17:15:38.476,6.35452147900278
2025-03-30 17:15:38.476,-0.32121909858063824
2025-03-30 17:15:38.476,-5.253540018856425
2025-03-30 17:15:38.476,-3.1940505797125396
2025-03-30 17:15:38.484,2.397089108608937
2025-03-30 17:15:38.484,3.7391851860384535
2025-03-30 17:15:38.485,-1.1538794284567873
2025-03-30 17:15:38.485,-5.803764755887261
2025-03-30 17:15:38.485,-3.504505856005668
2025-03-30 17:15:38.494,4.209138307031853
2025-03-30 17:15:38.494,9.100218203161536
2025-03-30 17:15:38.494,5.2569861785335394
2025-03-30 17:15:38.495,-4.608162845759523
2025-03-30 17:15:38.504,-11.394570262597952
2025-03-30 17:15:38.504,-8.009745287617877
2025-03-30 17:15:38.504,3.217269378864162
2025-03-30 17:15:38.504,11.652654327372952
2025-03-30 17:15:38.505,8.914745311449972
2025-03-30 17:15:38.514,-1.7179108834816075
2025-03-30 17:15:38.514,-8.947312023218403
2025-03-30 17:15:38.514,-6.461820394169075
2025-03-30 17:15:38.515,0.897080660908389
2025-03-30 17:15:38.515,4.557369937358262
2025-03-30 17:15:38.524,2.2659316537109655
2025-03-30 17:15:38.524,-1.2728525677995515
2025-03-30 17:15:38.524,-1.3917316972919989
2025-03-30 17:15:38.524,1.5273407506443224
2025-03-30 17:15:38.524,3.3709845551432958
2025-03-30 17:15:38.534,0.948833777451234
2025-03-30 17:15:38.534,-4.388524547068914
2025-03-30 17:15:38.534,-7.044344849413077
2025-03-30 17:15:38.534,-2.4011698326556816
2025-03-30 17:15:38.534,6.807525823951059
2025-03-30 17:15:38.542,11.109065203346608
2025-03-30 17:15:38.542,4.197734445369841
2025-03-30 17:15:38.543,-8.413164794458384
2025-03-30 17:15:38.543,-13.90058817166584
2025-03-30 17:15:38.552,-6.011408212791495
2025-03-30 17:15:38.552,7.858967236610771
2025-03-30 17:15:38.552,14.491774296412519
2025-03-30 17:15:38.553,8.221928893259953
2025-03-30 17:15:38.553,-4.509907076590441
2025-03-30 17:15:38.560,-12.599740826914825
2025-03-30 17:15:38.560,-10.410311994878594
2025-03-30 17:15:38.561,-0.9385006021963049
2025-03-30 17:15:38.561,8.371400002795502
2025-03-30 17:15:38.561,11.343465087132492
2025-03-30 17:15:38.570,6.448135529811296
2025-03-30 17:15:38.570,-2.662362743824709
2025-03-30 17:15:38.571,-9.608331980346072
2025-03-30 17:15:38.571,-9.749929533355706
2025-03-30 17:15:38.571,-3.2601852632761172
2025-03-30 17:15:38.580,5.435837449965809
2025-03-30 17:15:38.580,10.440902274012258
2025-03-30 17:15:38.581,7.676086516387284
2025-03-30 17:15:38.581,-1.6530540125840727
2025-03-30 17:15:38.590,-10.023967143339357
2025-03-30 17:15:38.590,-9.091403677392499
2025-03-30 17:15:38.590,1.083211226602563
2025-03-30 17:15:38.591,10.062874875197563
2025-03-30 17:15:38.591,7.700274704445776
2025-03-30 17:15:38.600,-3.61550648857181
2025-03-30 17:15:38.600,-10.813822319974761
2025-03-30 17:15:38.600,-5.216919986693242
2025-03-30 17:15:38.600,6.995041580392144
2025-03-30 17:15:38.600,11.610219599178391
2025-03-30 17:15:38.608,2.7651720776710187
2025-03-30 17:15:38.608,-9.85406250434542
2025-03-30 17:15:38.609,-11.635866972077267
2025-03-30 17:15:38.609,-0.04999931695400894
2025-03-30 17:15:38.616,11.83960012578891
2025-03-30 17:15:38.617,10.437878328080398
2025-03-30 17:15:38.617,-2.4357012592564464
2025-03-30 17:15:38.617,-12.117502196985484
2025-03-30 17:15:38.617,-8.486687761018462
2025-03-30 17:15:38.628,3.277036033616924
2025-03-30 17:15:38.628,10.135883313162134
2025-03-30 17:15:38.628,6.108840058688487
2025-03-30 17:15:38.628,-2.6978910388602078
2025-03-30 17:15:38.628,-6.601733135976885
2025-03-30 17:15:38.638,-2.961783031668901
2025-03-30 17:15:38.638,2.5110615672226024
2025-03-30 17:15:38.638,3.2681142652560844
2025-03-30 17:15:38.638,-0.9016277755450157
2025-03-30 17:15:38.639,-4.128426344168132
2025-03-30 17:15:38.648,-1.4111928120451667
2025-03-30 17:15:38.648,4.95306029348026
2025-03-30 17:15:38.648,7.080052163867201
2025-03-30 17:15:38.648,0.7872170391637039
2025-03-30 17:15:38.649,-8.170934811694535
2025-03-30 17:15:38.658,-9.650715949857435
2025-03-30 17:15:38.658,-0.8760991684320875
2025-03-30 17:15:38.658,9.590626212939902
2025-03-30 17:15:38.658,10.725630435788187
2025-03-30 17:15:38.659,1.0367907425222613
2025-03-30 17:15:38.666,-9.454927978599416
2025-03-30 17:15:38.666,-9.751983704308703
2025-03-30 17:15:38.667,0.009364506414012319
2025-03-30 17:15:38.667,8.543657511633324
2025-03-30 17:15:38.676,6.514370810240509
2025-03-30 17:15:38.676,-2.3615305871982564
2025-03-30 17:15:38.676,-6.554468482840557
2025-03-30 17:15:38.676,-2.006770168885198
2025-03-30 17:15:38.677,3.4007239491777406
2025-03-30 17:15:38.686,2.339762080099196
2025-03-30 17:15:38.686,-1.5037274827632567
2025-03-30 17:15:38.686,-0.6805494085099708
2025-03-30 17:15:38.686,3.398020167883821
2025-03-30 17:15:38.687,2.825317477986653
2025-03-30 17:15:38.696,-3.7195639811134242
2025-03-30 17:15:38.696,-8.030868655486348
2025-03-30 17:15:38.696,-3.6766786496964015
2025-03-30 17:15:38.696,5.38315916057617
2025-03-30 17:15:38.696,9.901397481869937
2025-03-30 17:15:38.704,5.785224131129784
2025-03-30 17:15:38.705,-2.8237126198011615
2025-03-30 17:15:38.705,-8.820580514121279
2025-03-30 17:15:38.705,-8.163577365986125
2025-03-30 17:15:38.714,-1.8299195277404214
2025-03-30 17:15:38.714,5.504489794066041
2025-03-30 17:15:38.714,8.477852190966592
2025-03-30 17:15:38.715,5.016478378584818
2025-03-30 17:15:38.715,-1.4833263561498675
2025-03-30 17:15:38.724,-5.233296230808874
2025-03-30 17:15:38.724,-4.23507191479168
2025-03-30 17:15:38.724,-1.8684445331406718
2025-03-30 17:15:38.724,-1.1712794018579586
2025-03-30 17:15:38.724,-0.08121773458905482
2025-03-30 17:15:38.732,4.291118695944051
2025-03-30 17:15:38.732,8.419255651630557
2025-03-30 17:15:38.733,4.985933110104727
2025-03-30 17:15:38.733,-5.934477884979703
2025-03-30 17:15:38.742,-13.506326929487217
2025-03-30 17:15:38.742,-7.997167799376393
2025-03-30 17:15:38.742,6.408816107521601
2025-03-30 17:15:38.743,14.967936780514059
2025-03-30 17:15:38.743,8.711610641051506
2025-03-30 17:15:38.752,-5.550899837930199
2025-03-30 17:15:38.752,-13.095805010324865
2025-03-30 17:15:38.752,-7.49706174123289
2025-03-30 17:15:38.752,3.604778180735413
2025-03-30 17:15:38.753,8.766212134712234
2025-03-30 17:15:38.760,5.264139792141181
2025-03-30 17:15:38.760,-0.796618834286095
2025-03-30 17:15:38.761,-3.812678258148982
2025-03-30 17:15:38.761,-3.649819211446045
2025-03-30 17:15:38.770,-2.0979992090090533
2025-03-30 17:15:38.770,0.542481603122154
2025-03-30 17:15:38.770,3.446699204409756
2025-03-30 17:15:38.771,3.695669534032105
2025-03-30 17:15:38.771,0.10015273877076294
2025-03-30 17:15:38.780,-3.6136753790251372
2025-03-30 17:15:38.780,-3.0587867356534444
2025-03-30 17:15:38.780,0.6932524939042999
2025-03-30 17:15:38.780,2.8177479815828397
2025-03-30 17:15:38.781,1.4810106014758877
2025-03-30 17:15:38.790,-0.8595123357883327
2025-03-30 17:15:38.790,-1.9704229295550981
2025-03-30 17:15:38.790,-1.7095931145576215
2025-03-30 17:15:38.791,-0.052622935301256654
2025-03-30 17:15:38.791,2.6911297197154833
2025-03-30 17:15:38.798,3.939782487013451
2025-03-30 17:15:38.798,1.1188721352273634
2025-03-30 17:15:38.798,-3.7326432202833466
2025-03-30 17:15:38.799,-5.293988344419775
2025-03-30 17:15:38.809,-1.8715763758619461
2025-03-30 17:15:38.809,2.3263195662822134
2025-03-30 17:15:38.809,3.3047980862383537
2025-03-30 17:15:38.809,2.3218929396292713
2025-03-30 17:15:38.809,2.188710240652927
2025-03-30 17:15:38.818,1.6056251589260548
2025-03-30 17:15:38.818,-2.3979492042899095
2025-03-30 17:15:38.818,-7.57549704726148
2025-03-30 17:15:38.818,-7.072017772650519
2025-03-30 17:15:38.818,1.5205308267253173
2025-03-30 17:15:38.828,11.032414361197215
2025-03-30 17:15:38.828,11.45806985765543
2025-03-30 17:15:38.828,1.0302095486673684
2025-03-30 17:15:38.828,-11.281254563800559
2025-03-30 17:15:38.828,-14.324222325200996
2025-03-30 17:15:38.836,-5.092023059979989
2025-03-30 17:15:38.836,8.671295188044073
2025-03-30 17:15:38.837,15.096838609359454
2025-03-30 17:15:38.837,8.606948756817452
2025-03-30 17:15:38.837,-4.576624122355671
2025-03-30 17:15:38.846,-12.220912865200615
2025-03-30 17:15:38.846,-8.654015593747479
2025-03-30 17:15:38.846,0.09788697799987156
2025-03-30 17:15:38.846,4.997232325783038
2025-03-30 17:15:38.856,4.634599765540946
2025-03-30 17:15:38.856,3.8410185586006853
2025-03-30 17:15:38.856,4.196944725221988
2025-03-30 17:15:38.856,1.5316949834974298
2025-03-30 17:15:38.857,-5.92134416065795
2025-03-30 17:15:38.864,-11.572538030163665
2025-03-30 17:15:38.865,-7.254548647073382
2025-03-30 17:15:38.865,5.210008106742328
2025-03-30 17:15:38.865,14.082899607474253
2025-03-30 17:15:38.874,10.702495108410332
2025-03-30 17:15:38.874,-1.2018515992678207
2025-03-30 17:15:38.874,-10.852455622766627
2025-03-30 17:15:38.875,-11.680323045680591
2025-03-30 17:15:38.875,-5.075157622525661
2025-03-30 17:15:38.884,3.804371739732598
2025-03-30 17:15:38.884,10.173333509673721
2025-03-30 17:15:38.884,10.629444910670657
2025-03-30 17:15:38.885,4.083252294451761
2025-03-30 17:15:38.885,-6.140340564762377
2025-03-30 17:15:38.894,-12.74478644030724
2025-03-30 17:15:38.894,-10.004567813558257
2025-03-30 17:15:38.894,0.4058786662166791
2025-03-30 17:15:38.894,10.458442127449157
2025-03-30 17:15:38.895,12.77626868067741
2025-03-30 17:15:38.902,5.931080901446305
2025-03-30 17:15:38.902,-5.452469587446268
2025-03-30 17:15:38.902,-13.390735222386885
2025-03-30 17:15:38.903,-11.065237829690883
2025-03-30 17:15:38.912,0.9820148770709828
2025-03-30 17:15:38.912,12.710335561623326
2025-03-30 17:15:38.912,12.724228919936326
2025-03-30 17:15:38.912,0.7894230719088805
2025-03-30 17:15:38.913,-10.611293176193742
2025-03-30 17:15:38.920,-10.025736245584737
2025-03-30 17:15:38.921,-0.020406255723980138
2025-03-30 17:15:38.921,7.165305490883523
2025-03-30 17:15:38.921,5.007108053231929
2025-03-30 17:15:38.930,-1.2390759591580012
2025-03-30 17:15:38.930,-3.5491842483540026
2025-03-30 17:15:38.931,-0.9687965235959166
2025-03-30 17:15:38.931,1.4872539776185978
2025-03-30 17:15:38.931,0.4982347051119992
2025-03-30 17:15:38.940,-1.703207029542236
2025-03-30 17:15:38.940,-0.8364645992894868
2025-03-30 17:15:38.940,3.171541748127123
2025-03-30 17:15:38.941,4.87544968963429
2025-03-30 17:15:38.941,-0.07509685114692147
2025-03-30 17:15:38.950,-7.751900070601378
2025-03-30 17:15:38.950,-8.76309897519313
2025-03-30 17:15:38.950,0.29196935554445985
2025-03-30 17:15:38.950,10.987361219484658
2025-03-30 17:15:38.950,11.661247858407922
2025-03-30 17:15:38.958,0.8308951314382603
2025-03-30 17:15:38.958,-10.844008287934711
2025-03-30 17:15:38.959,-12.13294735149217
2025-03-30 17:15:38.959,-2.573081386067475
2025-03-30 17:15:38.968,8.122282744240664
2025-03-30 17:15:38.969,10.168084242094563
2025-03-30 17:15:38.969,2.750985570074024
2025-03-30 17:15:38.969,-5.749332434605563
2025-03-30 17:15:38.969,-6.426016882137687
2025-03-30 17:15:38.969,0.5309757350164277
2025-03-30 17:15:38.978,5.825620532984
2025-03-30 17:15:38.979,2.106110462403558
2025-03-30 17:15:38.979,-6.3808066956361476
2025-03-30 17:15:38.979,-8.264593790733333
2025-03-30 17:15:38.988,0.6696906747329677
2025-03-30 17:15:38.988,11.221502217912649
2025-03-30 17:15:38.988,11.215887124244468
2025-03-30 17:15:38.989,-0.06691366135490373
2025-03-30 17:15:38.989,-11.37042425653017
2025-03-30 17:15:38.998,-12.413616045586313
2025-03-30 17:15:38.998,-3.6892765273326833
2025-03-30 17:15:38.998,6.474813079451762
2025-03-30 17:15:38.998,10.686499336622434
2025-03-30 17:15:38.999,7.337016414587147
2025-03-30 17:15:39.008,-0.00417856191306859
2025-03-30 17:15:39.008,-5.960730072541512
2025-03-30 17:15:39.008,-7.27239622352973
2025-03-30 17:15:39.009,-4.532742245611427
2025-03-30 17:15:39.009,-0.3029975253994029
2025-03-30 17:15:39.018,3.529321863335597
2025-03-30 17:15:39.018,5.875365096135229
2025-03-30 17:15:39.018,5.410112801956587
2025-03-30 17:15:39.019,1.370856720928636
2025-03-30 17:15:39.019,-4.503000157302131
2025-03-30 17:15:39.026,-8.019506529489377
2025-03-30 17:15:39.027,-5.603792816157892
2025-03-30 17:15:39.027,1.9054688238492488
2025-03-30 17:15:39.027,8.5790061852357
2025-03-30 17:15:39.036,8.083293418382691
2025-03-30 17:15:39.036,0.4131136044454935
2025-03-30 17:15:39.036,-7.178036912639739
2025-03-30 17:15:39.037,-7.733064158335322
2025-03-30 17:15:39.037,-2.023872647458203
2025-03-30 17:15:39.046,3.536365311406059
2025-03-30 17:15:39.046,4.880520342352648
2025-03-30 17:15:39.046,3.159995799304689
2025-03-30 17:15:39.047,0.7573730811902466
2025-03-30 17:15:39.047,-1.5785647917500394
2025-03-30 17:15:39.056,-3.189246349026096
2025-03-30 17:15:39.056,-2.6820390420027818
2025-03-30 17:15:39.056,-0.32625579313189534
2025-03-30 17:15:39.056,1.1764246777952359
2025-03-30 17:15:39.057,0.4252908767020349
2025-03-30 17:15:39.066,-0.020284706559932086
2025-03-30 17:15:39.066,2.4333857195463957
2025-03-30 17:15:39.066,5.021237987997593
2025-03-30 17:15:39.066,2.2429072938401218
2025-03-30 17:15:39.067,-5.480798878462585
2025-03-30 17:15:39.076,-9.969408928057762
2025-03-30 17:15:39.076,-4.82752605319297
2025-03-30 17:15:39.076,5.73455833136491
2025-03-30 17:15:39.076,11.007956254101156
2025-03-30 17:15:39.077,6.01302288884431
2025-03-30 17:15:39.084,-3.305680573283564
2025-03-30 17:15:39.085,-7.670344553959007
2025-03-30 17:15:39.085,-4.761952354458594
2025-03-30 17:15:39.085,0.11348140449686289
2025-03-30 17:15:39.094,2.0957633049275644
2025-03-30 17:15:39.095,1.900147137550262
2025-03-30 17:15:39.095,2.171648349983248
2025-03-30 17:15:39.095,2.364429037947051
2025-03-30 17:15:39.095,0.35033016936664085
2025-03-30 17:15:39.104,-2.712138803727825
2025-03-30 17:15:39.104,-3.091122844827512
2025-03-30 17:15:39.105,-0.2738022515093036
2025-03-30 17:15:39.105,1.6444648806090836
2025-03-30 17:15:39.105,0.047599759309307516
2025-03-30 17:15:39.114,-1.9281070379711112
2025-03-30 17:15:39.114,-0.1859982941875094
2025-03-30 17:15:39.115,3.6424648661285652
2025-03-30 17:15:39.115,4.259154670131818
2025-03-30 17:15:39.115,0.34204096868629497
2025-03-30 17:15:39.124,-3.960655112965907
2025-03-30 17:15:39.124,-5.002566006729875
2025-03-30 17:15:39.124,-3.1552808280954716
2025-03-30 17:15:39.125,0.05183378143767306
2025-03-30 17:15:39.125,4.08421358505585
2025-03-30 17:15:39.132,7.013125395700068
2025-03-30 17:15:39.133,4.959099234602343
2025-03-30 17:15:39.133,-2.585890303418218
2025-03-30 17:15:39.133,-9.132596263793932
2025-03-30 17:15:39.133,-7.168870971898328
2025-03-30 17:15:39.142,2.113053964597493
2025-03-30 17:15:39.142,8.628920301043227
2025-03-30 17:15:39.143,4.945508075976067
2025-03-30 17:15:39.143,-4.105536131459065
2025-03-30 17:15:39.152,-6.8032537908860276
2025-03-30 17:15:39.152,0.47650371742610076
2025-03-30 17:15:39.152,7.935973682568024
2025-03-30 17:15:39.153,4.937706997317689
2025-03-30 17:15:39.153,-5.556494993299296
2025-03-30 17:15:39.161,-10.521410995715371
2025-03-30 17:15:39.161,-3.7704174038674054
2025-03-30 17:15:39.161,6.716246164303677
2025-03-30 17:15:39.161,9.723753133692197
2025-03-30 17:15:39.161,3.819567521469264
2025-03-30 17:15:39.170,-3.6154007368882
2025-03-30 17:15:39.171,-6.46994194687025
2025-03-30 17:15:39.171,-4.6886152572528
2025-03-30 17:15:39.171,-0.8993359053604061
2025-03-30 17:15:39.171,2.937101128948649
2025-03-30 17:15:39.180,5.03122009228268
2025-03-30 17:15:39.180,3.6686829118659543
2025-03-30 17:15:39.181,-0.48186365855360136
2025-03-30 17:15:39.181,-3.8454896368333573
2025-03-30 17:15:39.190,-3.4466304085715267
2025-03-30 17:15:39.190,-0.26346896537310704
2025-03-30 17:15:39.191,1.947055603558182
2025-03-30 17:15:39.191,1.025141464286443
2025-03-30 17:15:39.191,-1.1208127450674499
2025-03-30 17:15:39.200,-1.042135513699248
2025-03-30 17:15:39.200,1.5987830830660905
2025-03-30 17:15:39.200,3.4440861505764158
2025-03-30 17:15:39.201,1.8988989527313767
2025-03-30 17:15:39.201,-1.7395899149726393
2025-03-30 17:15:39.210,-4.378579465201939
2025-03-30 17:15:39.210,-4.2627935846892635
2025-03-30 17:15:39.210,-1.3161401174337028
2025-03-30 17:15:39.210,3.1389085614001644
2025-03-30 17:15:39.211,6.11657089480383
2025-03-30 17:15:39.218,4.865987369281728
2025-03-30 17:15:39.218,0.011287067587896965
2025-03-30 17:15:39.219,-4.835338674083584
2025-03-30 17:15:39.219,-6.581020221139093
2025-03-30 17:15:39.228,-4.344988155242949
2025-03-30 17:15:39.228,1.0054808363969197
2025-03-30 17:15:39.228,6.498030110721201
2025-03-30 17:15:39.228,7.560091908324218
2025-03-30 17:15:39.229,2.3170701823214834
2025-03-30 17:15:39.236,-4.858856887901418
2025-03-30 17:15:39.237,-7.288471849394735
2025-03-30 17:15:39.237,-3.6602717683612913
2025-03-30 17:15:39.237,1.2674943850734663
2025-03-30 17:15:39.237,3.615637055677624
2025-03-30 17:15:39.246,3.97791593762373
2025-03-30 17:15:39.247,3.3631774781530486
2025-03-30 17:15:39.247,0.5829784260289683
2025-03-30 17:15:39.247,-3.851568667471731
2025-03-30 17:15:39.247,-5.718901360643567
2025-03-30 17:15:39.256,-2.491801798020599
2025-03-30 17:15:39.257,2.3790731938863985
2025-03-30 17:15:39.257,3.896118778999821
2025-03-30 17:15:39.257,1.8983288950009594
2025-03-30 17:15:39.257,-0.03360602562140723
2025-03-30 17:15:39.266,-0.2329362579025317
2025-03-30 17:15:39.267,-0.20715815938496965
2025-03-30 17:15:39.267,-1.012198729576914
2025-03-30 17:15:39.267,-1.6175822619339177
2025-03-30 17:15:39.276,-1.2202866601356535
2025-03-30 17:15:39.276,-0.4642403925286892
2025-03-30 17:15:39.277,0.381777534900404
2025-03-30 17:15:39.277,1.9332858993020579
2025-03-30 17:15:39.277,3.394821403899841
2025-03-30 17:15:39.277,2.343073882898425
2025-03-30 17:15:39.286,-1.6293511282730149
2025-03-30 17:15:39.287,-5.1404247971241315
2025-03-30 17:15:39.287,-4.634600677713197
2025-03-30 17:15:39.287,-0.4260364595904662
2025-03-30 17:15:39.296,4.054691762898227
2025-03-30 17:15:39.296,5.7263811067702335
2025-03-30 17:15:39.296,3.655736428296221
2025-03-30 17:15:39.296,-0.9703149398994213
2025-03-30 17:15:39.296,-5.2054696775517595
2025-03-30 17:15:39.304,-5.804785681153158
2025-03-30 17:15:39.305,-2.036352841183753
2025-03-30 17:15:39.305,3.1249257634864525
2025-03-30 17:15:39.305,5.533517143107225
2025-03-30 17:15:39.314,3.5327433831362045
2025-03-30 17:15:39.315,-0.9731189597531406
2025-03-30 17:15:39.315,-4.200543946795511
2025-03-30 17:15:39.315,-3.2565617416842394
2025-03-30 17:15:39.315,1.0893289931965364
2025-03-30 17:15:39.315,4.091903449246397
2025-03-30 17:15:39.324,1.6815641967997454
2025-03-30 17:15:39.324,-3.878615882531866
2025-03-30 17:15:39.325,-5.617428901477033
2025-03-30 17:15:39.325,-0.4900588718517213
2025-03-30 17:15:39.334,6.273523692041929
2025-03-30 17:15:39.334,7.462189523241731
2025-03-30 17:15:39.334,2.156705515051317
2025-03-30 17:15:39.334,-4.672495617198738
2025-03-30 17:15:39.335,-8.395791060424184
2025-03-30 17:15:39.344,-7.237579898904977
2025-03-30 17:15:39.344,-0.9327161664990076
2025-03-30 17:15:39.344,8.03254300218753
2025-03-30 17:15:39.344,12.64001295306082
2025-03-30 17:15:39.345,6.764881522304069
2025-03-30 17:15:39.354,-6.0440860623230535
2025-03-30 17:15:39.354,-13.933133618305865
2025-03-30 17:15:39.354,-9.412618734779063
2025-03-30 17:15:39.355,2.380638987383058
2025-03-30 17:15:39.355,10.10077951687362
2025-03-30 17:15:39.362,8.322615971003344
2025-03-30 17:15:39.362,1.1217269799187073
2025-03-30 17:15:39.363,-4.40314336818739
2025-03-30 17:15:39.363,-5.060901964775425
2025-03-30 17:15:39.372,-2.247172087436461
2025-03-30 17:15:39.372,1.1186604875242125
2025-03-30 17:15:39.372,2.5404967602975734
2025-03-30 17:15:39.373,0.8703639624026859
2025-03-30 17:15:39.373,-2.1917811140970396
2025-03-30 17:15:39.380,-2.6487702712527996
2025-03-30 17:15:39.381,1.2176819596502617
2025-03-30 17:15:39.381,5.542238625351092
2025-03-30 17:15:39.381,4.671445637945936
2025-03-30 17:15:39.381,-1.816224082496688
2025-03-30 17:15:39.390,-7.852346079568529
2025-03-30 17:15:39.391,-7.091774934561878
2025-03-30 17:15:39.391,0.4274452943339973
2025-03-30 17:15:39.391,8.015443320655915
2025-03-30 17:15:39.400,8.624622352314265
2025-03-30 17:15:39.400,1.7089692329100021
2025-03-30 17:15:39.400,-6.215691500366776
2025-03-30 17:15:39.400,-8.161895982427646
2025-03-30 17:15:39.401,-3.453681294224281
2025-03-30 17:15:39.410,2.6444587945213396
2025-03-30 17:15:39.410,5.293143400517023
2025-03-30 17:15:39.410,4.305994946090556
2025-03-30 17:15:39.410,1.944335794396082
2025-03-30 17:15:39.411,-0.892744735132788
2025-03-30 17:15:39.418,-4.164872933735591
2025-03-30 17:15:39.419,-5.949182233575344
2025-03-30 17:15:39.419,-3.4218418971679645
2025-03-30 17:15:39.419,2.8634347029580836
2025-03-30 17:15:39.428,7.873505383362352
2025-03-30 17:15:39.428,6.751420349224419
2025-03-30 17:15:39.429,-0.03397754869926001
2025-03-30 17:15:39.429,-7.038049885595906
2025-03-30 17:15:39.429,-8.919521349448967
2025-03-30 17:15:39.438,-4.491638470891584
2025-03-30 17:15:39.439,3.3561068494762267
2025-03-30 17:15:39.439,9.769583383633904
2025-03-30 17:15:39.439,9.999553289398142
2025-03-30 17:15:39.439,2.3185562585486927
2025-03-30 17:15:39.448,-8.917208873055955
2025-03-30 17:15:39.448,-14.594233297420715
2025-03-30 17:15:39.448,-8.315200809323796
2025-03-30 17:15:39.449,6.269748513207984
2025-03-30 17:15:39.449,16.818422922932676
2025-03-30 17:15:39.456,12.951667768112387
2025-03-30 17:15:39.456,-3.176517855452576
2025-03-30 17:15:39.457,-17.22519025596597
2025-03-30 17:15:39.457,-15.329072955948952
2025-03-30 17:15:39.464,1.8246296411109273
2025-03-30 17:15:39.465,17.823304573686674
2025-03-30 17:15:39.465,15.826222944267922
2025-03-30 17:15:39.465,-3.2726292978162665
2025-03-30 17:15:39.474,-19.70340916614675
2025-03-30 17:15:39.474,-15.048833211734873
2025-03-30 17:15:39.475,6.560494714266451
2025-03-30 17:15:39.475,21.458048942296948
2025-03-30 17:15:39.475,12.742008480798841
2025-03-30 17:15:39.482,-9.865803945083844
2025-03-30 17:15:39.483,-20.886459787552486
2025-03-30 17:15:39.483,-8.57749937145881
2025-03-30 17:15:39.483,12.043686544594399
2025-03-30 17:15:39.492,17.643188559334146
2025-03-30 17:15:39.492,3.4088189987782194
2025-03-30 17:15:39.493,-13.128642076166342
2025-03-30 17:15:39.493,-13.465736721546591
2025-03-30 17:15:39.493,1.5027566313213763
2025-03-30 17:15:39.500,14.048599679353464
2025-03-30 17:15:39.501,10.098962200514183
2025-03-30 17:15:39.501,-5.58843892600399
2025-03-30 17:15:39.501,-15.320805070228632
2025-03-30 17:15:39.510,-8.096381755160605
2025-03-30 17:15:39.510,8.48531836390438
2025-03-30 17:15:39.510,16.424607683222373
2025-03-30 17:15:39.511,6.699899563370117
2025-03-30 17:15:39.511,-10.47625393280897
2025-03-30 17:15:39.518,-16.06662009795594
2025-03-30 17:15:39.519,-3.620985557797759
2025-03-30 17:15:39.519,12.267826173815529
2025-03-30 17:15:39.519,12.72032502545925
2025-03-30 17:15:39.528,-2.103932251510793
2025-03-30 17:15:39.528,-13.17449828301575
2025-03-30 17:15:39.528,-7.049088497826323
2025-03-30 17:15:39.529,7.494905351440822
2025-03-30 17:15:39.529,12.048389196140139
2025-03-30 17:15:39.536,2.143262508234178
2025-03-30 17:15:39.537,-9.096810195172397
2025-03-30 17:15:39.537,-9.077546666583755
2025-03-30 17:15:39.537,0.011013487534469069
2025-03-30 17:15:39.537,6.926361672328865
2025-03-30 17:15:39.546,5.6144096109510855
2025-03-30 17:15:39.547,-0.258089910300128
2025-03-30 17:15:39.547,-3.8774228234598698
2025-03-30 17:15:39.547,-2.414240233915752
2025-03-30 17:15:39.556,1.333656433826708
2025-03-30 17:15:39.556,2.151954174395749
2025-03-30 17:15:39.557,-1.7404885348983734
2025-03-30 17:15:39.557,-5.241766718310206
2025-03-30 17:15:39.557,-1.4728265929810196
2025-03-30 17:15:39.566,7.9177070633510915
2025-03-30 17:15:39.566,11.291668968052877
2025-03-30 17:15:39.566,0.6699203881200385
2025-03-30 17:15:39.566,-14.87758039523661
2025-03-30 17:15:39.567,-16.515744439395398
2025-03-30 17:15:39.574,1.0637898985867622
2025-03-30 17:15:39.575,19.78361870887195
2025-03-30 17:15:39.575,17.905238687215252
2025-03-30 17:15:39.575,-3.384492656764153
2025-03-30 17:15:39.582,-20.649025593402463
2025-03-30 17:15:39.583,-15.682686587812203
2025-03-30 17:15:39.583,4.655353869220225
2025-03-30 17:15:39.583,18.583953577401772
2025-03-30 17:15:39.583,13.59536138273013
2025-03-30 17:15:39.592,-3.586940267486711
2025-03-30 17:15:39.593,-16.817310605580342
2025-03-30 17:15:39.593,-14.937035293637152
2025-03-30 17:15:39.593,0.7565953778889146
2025-03-30 17:15:39.601,17.199099566140724
2025-03-30 17:15:39.601,18.735499735937204
2025-03-30 17:15:39.601,1.9567312610198977
2025-03-30 17:15:39.601,-17.90992605690148
2025-03-30 17:15:39.601,-20.853840941017676
2025-03-30 17:15:39.610,-3.813629224785082
2025-03-30 17:15:39.611,15.722441085006457
2025-03-30 17:15:39.611,19.09831198863864
2025-03-30 17:15:39.611,5.4193884922752575
2025-03-30 17:15:39.618,-10.396253356816151
2025-03-30 17:15:39.619,-14.550667825659671
2025-03-30 17:15:39.619,-6.473993314751606
2025-03-30 17:15:39.619,4.004963504817248
2025-03-30 17:15:39.619,8.276131113101615
2025-03-30 17:15:39.629,6.262140009819976
2025-03-30 17:15:39.629,2.6709159537023823
2025-03-30 17:15:39.629,-0.8664958984480575
2025-03-30 17:15:39.629,-5.725568018000912
2025-03-30 17:15:39.629,-9.292518216492875
2025-03-30 17:15:39.638,-5.140371467504471
2025-03-30 17:15:39.639,6.261007411282821
2025-03-30 17:15:39.639,13.337166313287627
2025-03-30 17:15:39.639,6.659064558973447
2025-03-30 17:15:39.648,-7.173350624826475
2025-03-30 17:15:39.648,-12.437759585563315
2025-03-30 17:15:39.648,-4.013895280061628
2025-03-30 17:15:39.649,6.910344743651739
2025-03-30 17:15:39.649,7.913153457410222
2025-03-30 17:15:39.656,0.07402512478487555
2025-03-30 17:15:39.657,-5.634447178834775
2025-03-30 17:15:39.657,-2.986054583465133
2025-03-30 17:15:39.657,3.126106955839828
2025-03-30 17:15:39.657,4.533130663807609
2025-03-30 17:15:39.666,-0.09243219959316801
2025-03-30 17:15:39.667,-4.916585205872589
2025-03-30 17:15:39.667,-4.435986737282701
2025-03-30 17:15:39.667,0.9812502091711882
2025-03-30 17:15:39.676,5.91728283197244
2025-03-30 17:15:39.676,4.925898487366098
2025-03-30 17:15:39.676,-1.8195833264033254
2025-03-30 17:15:39.676,-7.185054526656932
2025-03-30 17:15:39.677,-4.075910046479284
2025-03-30 17:15:39.684,4.919293052396731
2025-03-30 17:15:39.685,8.564958488874309
2025-03-30 17:15:39.685,0.747020151875748
2025-03-30 17:15:39.685,-9.96704893211613
2025-03-30 17:15:39.685,-9.507567973018498
2025-03-30 17:15:39.694,3.688586823931378
2025-03-30 17:15:39.694,14.987866345134847
2025-03-30 17:15:39.695,10.207916930441371
2025-03-30 17:15:39.695,-6.907259258005676
2025-03-30 17:15:39.702,-17.752777563334586
2025-03-30 17:15:39.703,-9.968226793207084
2025-03-30 17:15:39.703,7.796022503277629
2025-03-30 17:15:39.703,15.770550032894295
2025-03-30 17:15:39.703,6.551616089307155
2025-03-30 17:15:39.714,-6.883854612752827
2025-03-30 17:15:39.714,-8.658726910928772
2025-03-30 17:15:39.714,0.44255244593445053
2025-03-30 17:15:39.715,6.411542907800649
2025-03-30 17:15:39.715,1.2991838347307643
2025-03-30 17:15:39.722,-7.951955487933642
2025-03-30 17:15:39.723,-9.509096240535083
2025-03-30 17:15:39.723,-0.09473158354026334
2025-03-30 17:15:39.723,12.293210969823905
2025-03-30 17:15:39.730,15.872849907671302
2025-03-30 17:15:39.731,5.5458004387399695
2025-03-30 17:15:39.731,-11.204714106761147
2025-03-30 17:15:39.731,-19.61072983662685
2025-03-30 17:15:39.731,-11.875623706462015
2025-03-30 17:15:39.740,4.46340414550235
2025-03-30 17:15:39.741,14.96031188350917
2025-03-30 17:15:39.741,13.390725088583372
2025-03-30 17:15:39.741,4.973296732424148
2025-03-30 17:15:39.750,-3.2502748545289575
2025-03-30 17:15:39.750,-9.040985535584335
2025-03-30 17:15:39.751,-11.596096565685254
2025-03-30 17:15:39.751,-8.222796012258295
2025-03-30 17:15:39.751,1.5351187067575296
2025-03-30 17:15:39.758,11.602807409608968
2025-03-30 17:15:39.759,13.517697845031122
2025-03-30 17:15:39.759,5.152561338458302
2025-03-30 17:15:39.759,-6.412395684291798
2025-03-30 17:15:39.759,-11.55831775003312
2025-03-30 17:15:39.768,-7.436016766384272
2025-03-30 17:15:39.769,0.18574769761470455
2025-03-30 17:15:39.769,4.388738797759034
2025-03-30 17:15:39.769,4.405001752023095
2025-03-30 17:15:39.778,3.86720540610726
2025-03-30 17:15:39.778,3.9231850220908018
2025-03-30 17:15:39.779,1.7446146825956623
2025-03-30 17:15:39.779,-3.929322150500386
2025-03-30 17:15:39.779,-8.953461349251105
2025-03-30 17:15:39.787,-7.610742846972473
2025-03-30 17:15:39.787,0.49884229793730406
2025-03-30 17:15:39.787,8.96847989562918
2025-03-30 17:15:39.787,10.383765290680461
2025-03-30 17:15:39.796,3.3627293615690665
2025-03-30 17:15:39.796,-6.023238558065228
2025-03-30 17:15:39.797,-9.668112830837984
2025-03-30 17:15:39.797,-4.837282422157917
2025-03-30 17:15:39.797,3.2988361344494788
2025-03-30 17:15:39.806,7.029534930184949
2025-03-30 17:15:39.806,4.208581710729834
2025-03-30 17:15:39.806,-0.5107403102564338
2025-03-30 17:15:39.807,-3.001987791808688
2025-03-30 17:15:39.807,-4.562083210445901
2025-03-30 17:15:39.816,-6.337177889493176
2025-03-30 17:15:39.816,-3.3738506615857684
2025-03-30 17:15:39.816,8.049109989351495
2025-03-30 17:15:39.817,18.61954546324409
2025-03-30 17:15:39.817,12.04419897289708
2025-03-30 17:15:39.824,-12.409061537596696
2025-03-30 17:15:39.824,-31.496370829922217
2025-03-30 17:15:39.825,-21.23905678873854
2025-03-30 17:15:39.825,13.215643353769956
2025-03-30 17:15:39.832,38.932320326178406
2025-03-30 17:15:39.833,28.953057524893346
2025-03-30 17:15:39.833,-8.905767486796844
2025-03-30 17:15:39.833,-39.23286644541671
2025-03-30 17:15:39.842,-33.68721489092969
2025-03-30 17:15:39.842,1.95268262590268
2025-03-30 17:15:39.842,33.92469809571209
2025-03-30 17:15:39.843,33.360565503975536
2025-03-30 17:15:39.843,3.8567430144591714
2025-03-30 17:15:39.850,-24.10972853371742
2025-03-30 17:15:39.851,-25.93062181559217
2025-03-30 17:15:39.851,-6.514001054901742
2025-03-30 17:15:39.851,10.764941833716529
2025-03-30 17:15:39.860,12.910588969431938
2025-03-30 17:15:39.860,6.898123618314452
2025-03-30 17:15:39.860,2.7669652832125875
2025-03-30 17:15:39.860,-0.4817547297493773
2025-03-30 17:15:39.861,-6.798454116431156
2025-03-30 17:15:39.870,-11.044432357227027
2025-03-30 17:15:39.870,-5.541035240742936
2025-03-30 17:15:39.870,5.843393562058195
2025-03-30 17:15:39.870,10.891218146193507
2025-03-30 17:15:39.870,5.524653192815991
2025-03-30 17:15:39.878,-2.2881141804048686
2025-03-30 17:15:39.878,-5.416413069709579
2025-03-30 17:15:39.878,-4.840642995425304
2025-03-30 17:15:39.878,-2.622862572598921
2025-03-30 17:15:39.888,2.0753505390457145
2025-03-30 17:15:39.888,6.456341829595257
2025-03-30 17:15:39.888,3.768440490704057
2025-03-30 17:15:39.888,-4.909920152158678
2025-03-30 17:15:39.888,-7.748878896195746
2025-03-30 17:15:39.898,1.4543640248471492
2025-03-30 17:15:39.898,11.211882645457981
2025-03-30 17:15:39.898,6.280709953755878
2025-03-30 17:15:39.898,-9.751638270988206
2025-03-30 17:15:39.898,-16.43366395890849
2025-03-30 17:15:39.906,-2.978866350395868
2025-03-30 17:15:39.906,16.00671321824426
2025-03-30 17:15:39.906,17.844011729534454
2025-03-30 17:15:39.906,0.020736216656264572
2025-03-30 17:15:39.916,-17.18168677426847
2025-03-30 17:15:39.916,-15.624378442182246
2025-03-30 17:15:39.916,0.8220788251634408
2025-03-30 17:15:39.916,13.800002033560732
2025-03-30 17:15:39.916,12.043065013465224
2025-03-30 17:15:39.924,0.6861751277285867
2025-03-30 17:15:39.924,-8.21050626255344
2025-03-30 17:15:39.924,-8.67937220997365
2025-03-30 17:15:39.924,-3.3980475340514937
2025-03-30 17:15:39.934,2.333006216895278
2025-03-30 17:15:39.934,5.531431485155295
2025-03-30 17:15:39.934,5.6291494093785825
2025-03-30 17:15:39.934,2.8418755805770624
2025-03-30 17:15:39.934,-2.031502257638864
2025-03-30 17:15:39.942,-6.545813024954726
2025-03-30 17:15:39.942,-6.985939881082116
2025-03-30 17:15:39.942,-1.7765811169884198
2025-03-30 17:15:39.942,5.67404784907521
2025-03-30 17:15:39.942,9.507744342107422
2025-03-30 17:15:39.952,6.701537008818509
2025-03-30 17:15:39.952,-1.4056646860931563
2025-03-30 17:15:39.952,-10.624683093331917
2025-03-30 17:15:39.952,-14.317266943974934
2025-03-30 17:15:39.962,-6.190514531293516
2025-03-30 17:15:39.962,11.207334214724733
2025-03-30 17:15:39.962,22.858433072123855
2025-03-30 17:15:39.962,14.122470420478436
2025-03-30 17:15:39.962,-10.649694167229688
2025-03-30 17:15:39.970,-28.144674986428296
2025-03-30 17:15:39.970,-19.426132733499045
2025-03-30 17:15:39.970,8.41709900040426
2025-03-30 17:15:39.970,28.063657424915423
2025-03-30 17:15:39.978,20.419686745246427
2025-03-30 17:15:39.978,-5.391056813359901
2025-03-30 17:15:39.978,-22.83802242157872
2025-03-30 17:15:39.978,-16.910135539147777
2025-03-30 17:15:39.988,2.070308087831659
2025-03-30 17:15:39.988,13.688466022702459
2025-03-30 17:15:39.988,10.462457097253402
2025-03-30 17:15:39.988,1.3250813180062213
2025-03-30 17:15:39.988,-3.3754434990026088
2025-03-30 17:15:39.998,-2.8930845617486782
2025-03-30 17:15:39.998,-2.364311494413677
2025-03-30 17:15:39.998,-4.282185585011723
2025-03-30 17:15:39.998,-5.828343952381253
2025-03-30 17:15:39.998,-2.202870639509338
2025-03-30 17:15:40.006,7.431863126135901
2025-03-30 17:15:40.006,15.671361820123824
2025-03-30 17:15:40.006,11.428560422156346
2025-03-30 17:15:40.006,-6.6281033275661745
2025-03-30 17:15:40.016,-23.27771856541815
2025-03-30 17:15:40.016,-20.163166323531733
2025-03-30 17:15:40.016,2.70272868670498
2025-03-30 17:15:40.016,24.32017615442856
2025-03-30 17:15:40.016,24.358935579192835
2025-03-30 17:15:40.024,3.7593819331566003
2025-03-30 17:15:40.024,-18.38019803092477
2025-03-30 17:15:40.024,-24.266957292220987
2025-03-30 17:15:40.024,-11.12097718976634
2025-03-30 17:15:40.034,9.541942378197216
2025-03-30 17:15:40.034,21.43641950697805
2025-03-30 17:15:40.034,15.549235169870382
2025-03-30 17:15:40.034,-2.052956579424815
2025-03-30 17:15:40.034,-15.281457406471256
2025-03-30 17:15:40.042,-13.795490192348844
2025-03-30 17:15:40.042,-2.481656162384817
2025-03-30 17:15:40.042,6.306738709819396
2025-03-30 17:15:40.042,6.8911228225001375
2025-03-30 17:15:40.052,3.5185141231164825
2025-03-30 17:15:40.052,1.720712211519163
2025-03-30 17:15:40.052,1.117939754678275
2025-03-30 17:15:40.052,-1.7125813505828362
2025-03-30 17:15:40.052,-6.010890227760669
2025-03-30 17:15:40.062,-6.375723475717763
2025-03-30 17:15:40.062,-0.3752629348353945
2025-03-30 17:15:40.062,6.658247746689234
2025-03-30 17:15:40.062,7.361798673728084
2025-03-30 17:15:40.062,1.2615643326967825
2025-03-30 17:15:40.072,-4.962298439692543
2025-03-30 17:15:40.072,-5.396223978710753
2025-03-30 17:15:40.072,-0.790984236208643
2025-03-30 17:15:40.072,3.1028370466362887
2025-03-30 17:15:40.072,1.8569043489783355
2025-03-30 17:15:40.082,-2.506209221252488
2025-03-30 17:15:40.082,-3.0559049036019514
2025-03-30 17:15:40.082,3.2410335857679726
2025-03-30 17:15:40.082,9.162479911955073
2025-03-30 17:15:40.082,4.5828895995940595
2025-03-30 17:15:40.090,-8.643376419716379
2025-03-30 17:15:40.090,-15.408288268976806
2025-03-30 17:15:40.090,-5.633541975621923
2025-03-30 17:15:40.091,11.06756959391849
2025-03-30 17:15:40.100,16.06819276860285
2025-03-30 17:15:40.100,4.84067015280874
2025-03-30 17:15:40.100,-8.4559745863426
2025-03-30 17:15:40.100,-10.075204974776039
2025-03-30 17:15:40.100,-2.563358508916262
2025-03-30 17:15:40.110,2.4336175548357297
2025-03-30 17:15:40.110,1.082365467233016
2025-03-30 17:15:40.110,-0.17867307633402718
2025-03-30 17:15:40.110,3.054681432284503
2025-03-30 17:15:40.110,6.223667098040873
2025-03-30 17:15:40.118,3.1561506177009915
2025-03-30 17:15:40.118,-4.799187811216193
2025-03-30 17:15:40.118,-10.013059276566329
2025-03-30 17:15:40.118,-6.76854665700445
2025-03-30 17:15:40.128,3.0813122985854657
2025-03-30 17:15:40.128,11.212137719533533
2025-03-30 17:15:40.128,9.843828491760643
2025-03-30 17:15:40.128,-0.4430062008774005
2025-03-30 17:15:40.128,-10.296028148677022
2025-03-30 17:15:40.138,-10.606462356490127
2025-03-30 17:15:40.138,-1.58876925115023
2025-03-30 17:15:40.138,7.891623944302902
2025-03-30 17:15:40.138,9.22544390461765
2025-03-30 17:15:40.138,1.948815800744533
2025-03-30 17:15:40.148,-6.157021283297238
2025-03-30 17:15:40.148,-6.71219453090724
2025-03-30 17:15:40.148,0.42217643859405396
2025-03-30 17:15:40.148,6.428084739774258
2025-03-30 17:15:40.148,3.531123654114781
2025-03-30 17:15:40.158,-4.879216500610029
2025-03-30 17:15:40.158,-7.601513195128673
2025-03-30 17:15:40.158,-0.03765313770064033
2025-03-30 17:15:40.158,8.926568523001956
2025-03-30 17:15:40.158,7.819067382911901
2025-03-30 17:15:40.166,-2.608749834113661
2025-03-30 17:15:40.166,-10.293300186974296
2025-03-30 17:15:40.166,-6.879485903821433
2025-03-30 17:15:40.166,2.9203707130740177
2025-03-30 17:15:40.176,8.476022598636359
2025-03-30 17:15:40.176,5.917836522520704
2025-03-30 17:15:40.176,0.0596877386311363
2025-03-30 17:15:40.176,-4.158800047844178
2025-03-30 17:15:40.176,-6.418138419759958
2025-03-30 17:15:40.186,-6.397640436213175
2025-03-30 17:15:40.186,-1.0194343939181725
2025-03-30 17:15:40.186,8.894007544645707
2025-03-30 17:15:40.186,13.92198979504159
2025-03-30 17:15:40.186,5.46119176251512
2025-03-30 17:15:40.194,-10.94665880332171
2025-03-30 17:15:40.194,-18.67812471350729
2025-03-30 17:15:40.194,-8.737582671329863
2025-03-30 17:15:40.194,9.2175096206892
2025-03-30 17:15:40.202,17.77594053489525
2025-03-30 17:15:40.202,10.626858090912114
2025-03-30 17:15:40.203,-3.2365651517298786
2025-03-30 17:15:40.203,-11.828729180340892
2025-03-30 17:15:40.203,-11.181991141840419
2025-03-30 17:15:40.212,-4.199998379582102
2025-03-30 17:15:40.212,4.817587764146129
2025-03-30 17:15:40.212,10.994015146495274
2025-03-30 17:15:40.212,9.27792683464805
2025-03-30 17:15:40.222,-0.2319162461946836
2025-03-30 17:15:40.222,-9.349727577129286
2025-03-30 17:15:40.222,-9.462574641546004
2025-03-30 17:15:40.222,-1.738111009684299
2025-03-30 17:15:40.222,4.752210825470498
2025-03-30 17:15:40.232,4.887911346055776
2025-03-30 17:15:40.232,2.328593419572697
2025-03-30 17:15:40.232,1.5707042544617122
2025-03-30 17:15:40.232,1.1325290577614333
2025-03-30 17:15:40.232,-1.8998103083461122
2025-03-30 17:15:40.242,-5.257655957727147
2025-03-30 17:15:40.242,-4.392479965269232
2025-03-30 17:15:40.242,0.3137735258768928
2025-03-30 17:15:40.242,3.801448243360249
2025-03-30 17:15:40.242,3.29492239904871
2025-03-30 17:15:40.252,1.3798658819851917
2025-03-30 17:15:40.252,1.156390340558334
2025-03-30 17:15:40.252,1.1049103394938464
2025-03-30 17:15:40.252,-2.183228029677614
2025-03-30 17:15:40.252,-6.924322187149836
2025-03-30 17:15:40.262,-6.2018154160383485
2025-03-30 17:15:40.262,2.5242262380924325
2025-03-30 17:15:40.262,11.350120004919193
2025-03-30 17:15:40.262,9.781391453934539
2025-03-30 17:15:40.262,-2.1920828447640934
2025-03-30 17:15:40.270,-12.97330707830429
2025-03-30 17:15:40.270,-12.025264175370715
2025-03-30 17:15:40.270,-0.5607761115534041
2025-03-30 17:15:40.271,11.249154831690186
2025-03-30 17:15:40.280,14.352712621012358
2025-03-30 17:15:40.280,6.664151634511276
2025-03-30 17:15:40.280,-6.934082126657865
2025-03-30 17:15:40.280,-16.787805483197225
2025-03-30 17:15:40.280,-13.829620743682703
2025-03-30 17:15:40.288,1.8159989873017033
2025-03-30 17:15:40.288,17.621061499240046
2025-03-30 17:15:40.288,18.52532144946897
2025-03-30 17:15:40.288,2.4109153266709917
2025-03-30 17:15:40.298,-15.980193354087767
2025-03-30 17:15:40.298,-19.08634390440232
2025-03-30 17:15:40.298,-4.624981123804669
2025-03-30 17:15:40.298,12.308262840929952
2025-03-30 17:15:40.298,15.841071632679528
2025-03-30 17:15:40.308,5.323430122576946
2025-03-30 17:15:40.308,-7.016132061073189
2025-03-30 17:15:40.308,-10.821527017229695
2025-03-30 17:15:40.308,-5.916527186783181
2025-03-30 17:15:40.308,1.6064886417679256
2025-03-30 17:15:40.316,6.156678518004124
2025-03-30 17:15:40.316,5.5904480664078156
2025-03-30 17:15:40.316,1.5426750250705648
2025-03-30 17:15:40.317,-2.0966092963863017
2025-03-30 17:15:40.317,-2.8386922608684206
2025-03-30 17:15:40.326,-1.7956642679715524
2025-03-30 17:15:40.326,-1.1868047140751743
2025-03-30 17:15:40.326,-0.8557746492507565
2025-03-30 17:15:40.326,0.6736145386700005
2025-03-30 17:15:40.336,2.637791166415454
2025-03-30 17:15:40.336,2.493368405633147
2025-03-30 17:15:40.336,0.032930059973850304
2025-03-30 17:15:40.336,-1.9172689898577202
2025-03-30 17:15:40.336,-1.5999077369179617
2025-03-30 17:15:40.346,-0.36084166483858315
2025-03-30 17:15:40.346,0.23758401099124402
2025-03-30 17:15:40.346,0.5605864397216153
2025-03-30 17:15:40.346,1.0482579140544197
2025-03-30 17:15:40.346,0.7572255765829767
2025-03-30 17:15:40.356,-0.7092843865689303
2025-03-30 17:15:40.356,-1.6480591746800108
2025-03-30 17:15:40.356,-0.47807791930746635
2025-03-30 17:15:40.356,1.3831724907773837
2025-03-30 17:15:40.356,1.004033498809208
2025-03-30 17:15:40.366,-1.4402947194182163
2025-03-30 17:15:40.366,-1.933819459406712
2025-03-30 17:15:40.366,1.6443252753177342
2025-03-30 17:15:40.366,5.063180941223752
2025-03-30 17:15:40.366,2.4367160913402306
2025-03-30 17:15:40.376,-5.081997173975147
2025-03-30 17:15:40.376,-9.045736775695891
2025-03-30 17:15:40.376,-3.597904701869281
2025-03-30 17:15:40.376,6.77241209256849
2025-03-30 17:15:40.376,11.574340092669129
2025-03-30 17:15:40.384,5.710723446247777
2025-03-30 17:15:40.384,-5.349234322885144
2025-03-30 17:15:40.384,-11.77764817113051
2025-03-30 17:15:40.384,-8.73964715972132
2025-03-30 17:15:40.394,0.9746859048600787
2025-03-30 17:15:40.394,10.60048006444124
2025-03-30 17:15:40.394,13.198046026304553
2025-03-30 17:15:40.394,4.947820638914232
2025-03-30 17:15:40.394,-9.983920123665161
2025-03-30 17:15:40.402,-18.601432363705143
2025-03-30 17:15:40.402,-9.850954103332484
2025-03-30 17:15:40.402,10.733913856041648
2025-03-30 17:15:40.402,22.505466741411286
2025-03-30 17:15:40.412,11.465393711445167
2025-03-30 17:15:40.412,-11.87638331526462
2025-03-30 17:15:40.412,-22.62603471052379
2025-03-30 17:15:40.412,-9.744479108613785
2025-03-30 17:15:40.412,11.572953904383448
2025-03-30 17:15:40.420,18.43635617573308
2025-03-30 17:15:40.420,6.49027490064677
2025-03-30 17:15:40.420,-8.010502686102658
2025-03-30 17:15:40.420,-10.389684496244074
2025-03-30 17:15:40.430,-3.6540831100423334
2025-03-30 17:15:40.430,0.72838926524457
2025-03-30 17:15:40.430,0.4119540122203209
2025-03-30 17:15:40.430,2.089267959734368
2025-03-30 17:15:40.430,7.183911383493913
2025-03-30 17:15:40.438,7.837114747279308
2025-03-30 17:15:40.438,-0.6649870067436517
2025-03-30 17:15:40.439,-10.934744951993377
2025-03-30 17:15:40.439,-11.750747448762214
2025-03-30 17:15:40.439,-1.803022870609647
2025-03-30 17:15:40.448,9.103049320465814
2025-03-30 17:15:40.448,11.274040521690651
2025-03-30 17:15:40.448,4.269612489469639
2025-03-30 17:15:40.448,-4.646205398377216
2025-03-30 17:15:40.458,-8.12090710857004
2025-03-30 17:15:40.458,-4.425752709194414
2025-03-30 17:15:40.458,1.893309449026564
2025-03-30 17:15:40.458,4.279027149518158
2025-03-30 17:15:40.458,0.8572861866858543
2025-03-30 17:15:40.468,-3.000727237519426
2025-03-30 17:15:40.468,-1.013938654987035
2025-03-30 17:15:40.468,5.1529080350581955
2025-03-30 17:15:40.468,6.727084809841933
2025-03-30 17:15:40.468,-0.846895489642042
2025-03-30 17:15:40.478,-10.335048274927516
2025-03-30 17:15:40.478,-10.044974674393847
2025-03-30 17:15:40.478,1.6724871715069258
2025-03-30 17:15:40.478,12.801476110521703
2025-03-30 17:15:40.478,10.624012087525273
2025-03-30 17:15:40.486,-3.3154653079469236
2025-03-30 17:15:40.486,-13.979745682515006
2025-03-30 17:15:40.486,-9.147863989125272
2025-03-30 17:15:40.486,6.653479633638379
2025-03-30 17:15:40.494,16.23620982243712
2025-03-30 17:15:40.494,8.265380164764272
2025-03-30 17:15:40.494,-9.581472981872714
2025-03-30 17:15:40.494,-18.293758894183885
2025-03-30 17:15:40.504,-8.64778333707017
2025-03-30 17:15:40.504,8.573919047024123
2025-03-30 17:15:40.504,15.698877648433381
2025-03-30 17:15:40.504,8.237475880263972
2025-03-30 17:15:40.505,-2.7645959069982027
2025-03-30 17:15:40.514,-6.737788503659832
2025-03-30 17:15:40.514,-5.158447861933177
2025-03-30 17:15:40.514,-4.733433454008927
2025-03-30 17:15:40.514,-5.111127791220721
2025-03-30 17:15:40.514,-0.1709627576903427
2025-03-30 17:15:40.524,9.850986524258545
2025-03-30 17:15:40.524,14.741249895620983
2025-03-30 17:15:40.524,6.164126278068632
2025-03-30 17:15:40.524,-10.358341143899443
2025-03-30 17:15:40.524,-19.475447698513953
2025-03-30 17:15:40.532,-11.846242984846219
2025-03-30 17:15:40.532,6.27602643750849
2025-03-30 17:15:40.532,19.34034962094304
2025-03-30 17:15:40.532,16.680914544005343
2025-03-30 17:15:40.533,0.7838949294642181
2025-03-30 17:15:40.542,-15.6379033014796
2025-03-30 17:15:40.542,-19.614832138966833
2025-03-30 17:15:40.542,-7.895299530471075
2025-03-30 17:15:40.542,9.915177591951522
2025-03-30 17:15:40.550,18.90811937102931
2025-03-30 17:15:40.550,12.109939589090096
2025-03-30 17:15:40.550,-3.283767711864196
2025-03-30 17:15:40.550,-13.661498958821896
2025-03-30 17:15:40.560,-12.247797730961647
2025-03-30 17:15:40.560,-3.3218170604604573
2025-03-30 17:15:40.560,5.168533255272273
2025-03-30 17:15:40.561,9.256256911806567
2025-03-30 17:15:40.561,8.58101475183777
2025-03-30 17:15:40.561,3.225806198714347
2025-03-30 17:15:40.570,-4.991788288725912
2025-03-30 17:15:40.570,-10.519523802842192
2025-03-30 17:15:40.570,-8.146868245596517
2025-03-30 17:15:40.571,0.7006381593620377
2025-03-30 17:15:40.580,8.441565634414381
2025-03-30 17:15:40.580,8.583157411106033
2025-03-30 17:15:40.580,1.7152394850636792
2025-03-30 17:15:40.580,-5.147010720894965
2025-03-30 17:15:40.580,-5.234228844315767
2025-03-30 17:15:40.588,0.6541106569891424
2025-03-30 17:15:40.588,4.329327281853633
2025-03-30 17:15:40.589,0.04864645034762777
2025-03-30 17:15:40.589,-7.143457306590209
2025-03-30 17:15:40.589,-6.904877706586535
2025-03-30 17:15:40.598,2.7808418011279583
2025-03-30 17:15:40.598,12.096101580012004
2025-03-30 17:15:40.598,10.92532414650281
2025-03-30 17:15:40.599,0.0766898341619699
2025-03-30 17:15:40.608,-10.867531966550661
2025-03-30 17:15:40.608,-13.471170217881813
2025-03-30 17:15:40.608,-6.324049201849663
2025-03-30 17:15:40.608,5.194770844702475
2025-03-30 17:15:40.608,12.343414136675355
2025-03-30 17:15:40.616,9.491651800029747
2025-03-30 17:15:40.616,-0.05043748515924901
2025-03-30 17:15:40.616,-7.080317686955714
2025-03-30 17:15:40.617,-6.737124057243297
2025-03-30 17:15:40.626,-2.5694818169219777
2025-03-30 17:15:40.626,0.29845139070405224
2025-03-30 17:15:40.626,1.524145143841007
2025-03-30 17:15:40.626,2.9857171528005697
2025-03-30 17:15:40.626,3.924642325556825
2025-03-30 17:15:40.636,2.2335142721336223
2025-03-30 17:15:40.636,-1.27528932448625
2025-03-30 17:15:40.636,-3.3799998641947986
2025-03-30 17:15:40.636,-2.964215725555387
2025-03-30 17:15:40.636,-2.0277499852966208
2025-03-30 17:15:40.644,-1.6470821267289573
2025-03-30 17:15:40.645,0.08782495503899451
2025-03-30 17:15:40.645,4.392442231744311
2025-03-30 17:15:40.645,8.151432101939147
2025-03-30 17:15:40.645,6.298791989256516
2025-03-30 17:15:40.654,-2.2634384879943887
2025-03-30 17:15:40.654,-11.926919641261772
2025-03-30 17:15:40.654,-14.100098143723178
2025-03-30 17:15:40.654,-4.8191304376726665
2025-03-30 17:15:40.664,10.357681285032458
2025-03-30 17:15:40.664,19.42187347676214
2025-03-30 17:15:40.664,13.475687793970097
2025-03-30 17:15:40.664,-4.529913711555885
2025-03-30 17:15:40.664,-19.931984414442404
2025-03-30 17:15:40.672,-18.37107650942851
2025-03-30 17:15:40.672,-0.8836838872195607
2025-03-30 17:15:40.672,15.324432483830469
2025-03-30 17:15:40.672,15.114932355726761
2025-03-30 17:15:40.673,2.1782075477975753
2025-03-30 17:15:40.682,-7.20074622429566
2025-03-30 17:15:40.682,-4.934257065944251
2025-03-30 17:15:40.682,1.0555062627036054
2025-03-30 17:15:40.682,0.2777274576349415
2025-03-30 17:15:40.690,-5.880251005780906
2025-03-30 17:15:40.691,-7.280964483331931
2025-03-30 17:15:40.691,0.8140513466675823
2025-03-30 17:15:40.691,11.426781536627626
2025-03-30 17:15:40.691,13.540795600065852
2025-03-30 17:15:40.700,3.7024135151256736
2025-03-30 17:15:40.700,-10.171829148899393
2025-03-30 17:15:40.700,-15.833565815583952
2025-03-30 17:15:40.700,-8.37320994298604
2025-03-30 17:15:40.710,4.7558169015118565
2025-03-30 17:15:40.710,11.563318188201384
2025-03-30 17:15:40.710,8.039378757397278
2025-03-30 17:15:40.710,0.6443692364898178
2025-03-30 17:15:40.710,-3.1942193943929387
2025-03-30 17:15:40.718,-3.094245870400378
2025-03-30 17:15:40.718,-2.7775881435707843
2025-03-30 17:15:40.718,-3.0951923644317847
2025-03-30 17:15:40.718,-1.816500701247292
2025-03-30 17:15:40.728,1.330778375802142
2025-03-30 17:15:40.728,3.5225337434413193
2025-03-30 17:15:40.728,2.9779571790040174
2025-03-30 17:15:40.728,1.1482362863547126
2025-03-30 17:15:40.729,-0.037242224623475234
2025-03-30 17:15:40.729,-0.6665319916964052
2025-03-30 17:15:40.738,-1.5471554163356356
2025-03-30 17:15:40.738,-2.3898994910617932
2025-03-30 17:15:40.738,-2.4315816346406045
2025-03-30 17:15:40.738,-1.388159645914228
2025-03-30 17:15:40.748,0.9880653890185759
2025-03-30 17:15:40.748,4.482758138826609
2025-03-30 17:15:40.748,6.464514925727831
2025-03-30 17:15:40.748,2.873582619714542
2025-03-30 17:15:40.748,-5.829604131017511
2025-03-30 17:15:40.758,-11.434221311926736
2025-03-30 17:15:40.758,-5.800192091657002
2025-03-30 17:15:40.758,7.325326603555996
2025-03-30 17:15:40.758,13.86727612345551
2025-03-30 17:15:40.758,5.952203828491234
2025-03-30 17:15:40.766,-7.7270680354080845
2025-03-30 17:15:40.766,-12.409849927360462
2025-03-30 17:15:40.766,-4.683282554554308
2025-03-30 17:15:40.766,5.491003729891697
2025-03-30 17:15:40.776,8.097694641381697
2025-03-30 17:15:40.776,3.266135451822615
2025-03-30 17:15:40.776,-1.9667252093871213
2025-03-30 17:15:40.776,-2.9278302309634525
2025-03-30 17:15:40.776,-1.0969979459348755
2025-03-30 17:15:40.784,-0.1964925458295308
2025-03-30 17:15:40.784,-1.04601218097834
2025-03-30 17:15:40.784,-1.3557917690635168
2025-03-30 17:15:40.785,0.22740459480214842
2025-03-30 17:15:40.794,1.8542522994620012
2025-03-30 17:15:40.794,1.4518640154267912
2025-03-30 17:15:40.794,0.41892269808138605
2025-03-30 17:15:40.794,1.3786415813086967
2025-03-30 17:15:40.794,2.5929044200914695
2025-03-30 17:15:40.795,-0.762054966614029
2025-03-30 17:15:40.804,-7.641187904430116
2025-03-30 17:15:40.804,-8.702057088087813
2025-03-30 17:15:40.804,1.534792443623633
2025-03-30 17:15:40.804,13.553539095996186
2025-03-30 17:15:40.812,12.129228278340833
2025-03-30 17:15:40.812,-3.1070892732916815
2025-03-30 17:15:40.812,-14.921064844480238
2025-03-30 17:15:40.812,-9.887450095363924
2025-03-30 17:15:40.813,4.583058003035551
2025-03-30 17:15:40.822,10.822979269228043
2025-03-30 17:15:40.822,3.6804649586714193
2025-03-30 17:15:40.822,-5.33917103635146
2025-03-30 17:15:40.822,-5.190088020150767
2025-03-30 17:15:40.832,1.760754876363722
2025-03-30 17:15:40.832,5.878233459829628
2025-03-30 17:15:40.832,2.934468084601014
2025-03-30 17:15:40.832,-3.219114893306705
2025-03-30 17:15:40.832,-6.803513465148417
2025-03-30 17:15:40.842,-5.012775036799074
2025-03-30 17:15:40.842,1.1271399666651685
2025-03-30 17:15:40.842,7.255752310888331
2025-03-30 17:15:40.842,7.987797844126056
2025-03-30 17:15:40.842,1.9324944216032167
2025-03-30 17:15:40.852,-5.573930123073658
2025-03-30 17:15:40.852,-7.439045970778231
2025-03-30 17:15:40.852,-2.944404188700422
2025-03-30 17:15:40.852,1.717473925504945
2025-03-30 17:15:40.852,1.8693710305748021
2025-03-30 17:15:40.860,0.19163650144720884
2025-03-30 17:15:40.860,1.7283653639448349
2025-03-30 17:15:40.861,5.485799701451992
2025-03-30 17:15:40.861,5.127288883224518
2025-03-30 17:15:40.861,-1.8306042999310477
2025-03-30 17:15:40.870,-9.248019657762693
2025-03-30 17:15:40.870,-9.11774541242747
2025-03-30 17:15:40.870,-1.3373357121539842
2025-03-30 17:15:40.871,6.215532458083828
2025-03-30 17:15:40.880,7.471567583260557
2025-03-30 17:15:40.880,4.86804452671096
2025-03-30 17:15:40.880,3.583513679134415
2025-03-30 17:15:40.880,1.6588061537385885
2025-03-30 17:15:40.880,-7.086710172902264
2025-03-30 17:15:40.888,-18.354068340794594
2025-03-30 17:15:40.888,-15.238428196346918
2025-03-30 17:15:40.888,9.21546352357115
2025-03-30 17:15:40.888,33.36909479728197
2025-03-30 17:15:40.898,26.513151324431906
2025-03-30 17:15:40.898,-10.944722824241321
2025-03-30 17:15:40.898,-41.23505699225237
2025-03-30 17:15:40.898,-31.12101386296441
2025-03-30 17:15:40.898,9.281856688197342
2025-03-30 17:15:40.906,38.646835742244
2025-03-30 17:15:40.906,30.005110179871444
2025-03-30 17:15:40.906,-4.257297989190297
2025-03-30 17:15:40.906,-30.005795986975286
2025-03-30 17:15:40.916,-25.818238427320544
2025-03-30 17:15:40.916,0.2564026258104535
2025-03-30 17:15:40.916,21.955851348456243
2025-03-30 17:15:40.916,20.113834666578136
2025-03-30 17:15:40.916,-0.5313168672819999
2025-03-30 17:15:40.924,-17.604332131494314
2025-03-30 17:15:40.924,-14.334441393082193
2025-03-30 17:15:40.924,3.792089714284116
2025-03-30 17:15:40.924,16.35993655990937
2025-03-30 17:15:40.934,10.535259188376537
2025-03-30 17:15:40.934,-6.25850065510443
2025-03-30 17:15:40.934,-15.974830997836802
2025-03-30 17:15:40.934,-9.451924432571298
2025-03-30 17:15:40.934,5.432493908335145
2025-03-30 17:15:40.942,13.8359412100307
2025-03-30 17:15:40.942,9.427942371507465
2025-03-30 17:15:40.942,-1.4305724586645914
2025-03-30 17:15:40.943,-8.788507704291636
2025-03-30 17:15:40.952,-8.766755849437292
2025-03-30 17:15:40.952,-3.8390966238286466
2025-03-30 17:15:40.952,2.3880882004647175
2025-03-30 17:15:40.952,7.243012313892258
2025-03-30 17:15:40.952,7.812116896975397
2025-03-30 17:15:40.962,2.4991522613756283
2025-03-30 17:15:40.962,-5.147209024535183
2025-03-30 17:15:40.962,-8.024208788478719
2025-03-30 17:15:40.962,-3.5613433124152154
2025-03-30 17:15:40.962,2.4663444155507266
2025-03-30 17:15:40.972,3.3415825009215285
2025-03-30 17:15:40.972,0.33558263155737483
2025-03-30 17:15:40.972,0.14271671612438833
2025-03-30 17:15:40.972,4.372632781604467
2025-03-30 17:15:40.972,6.181689314356094
2025-03-30 17:15:40.980,-0.7215331261207898
2025-03-30 17:15:40.980,-11.8865530625756
2025-03-30 17:15:40.980,-14.409721648876243
2025-03-30 17:15:40.981,-1.5137048394158743
2025-03-30 17:15:40.990,16.730244263223163
2025-03-30 17:15:40.990,21.48230982799802
2025-03-30 17:15:40.990,5.491972753245191
2025-03-30 17:15:40.990,-17.335010682563993
2025-03-30 17:15:40.990,-24.940256639891327
2025-03-30 17:15:40.998,-9.308341729377362
2025-03-30 17:15:40.998,14.796676562845166
2025-03-30 17:15:40.998,23.836452818592743
2025-03-30 17:15:40.998,9.595429715807228
2025-03-30 17:15:41.008,-11.686464122770357
2025-03-30 17:15:41.008,-17.373987983635747
2025-03-30 17:15:41.008,-4.385756505890302
2025-03-30 17:15:41.008,8.777384370646946
2025-03-30 17:15:41.008,6.7072966577789686
2025-03-30 17:15:41.016,-3.9772793105791617
2025-03-30 17:15:41.017,-5.8955139620546975
2025-03-30 17:15:41.017,4.287011730498273
2025-03-30 17:15:41.017,11.446577761159709
2025-03-30 17:15:41.017,3.1510284919933316
2025-03-30 17:15:41.030,-12.403272731502993
2025-03-30 17:15:41.030,-15.527489620828785
2025-03-30 17:15:41.030,-0.1708101940826936
2025-03-30 17:15:41.030,16.79537179606129
2025-03-30 17:15:41.034,15.246149839604886
2025-03-30 17:15:41.034,-3.237469566358915
2025-03-30 17:15:41.034,-17.200377491062817
2025-03-30 17:15:41.034,-11.68433929433825
2025-03-30 17:15:41.035,5.275694095850347
2025-03-30 17:15:41.044,14.942689733078149
2025-03-30 17:15:41.044,9.160079805583765
2025-03-30 17:15:41.044,-4.74586291987201
2025-03-30 17:15:41.044,-14.030633056477106
2025-03-30 17:15:41.054,-10.704014251443654
2025-03-30 17:15:41.054,3.3299163236841722
2025-03-30 17:15:41.054,16.13560542818129
2025-03-30 17:15:41.054,14.329945236640759
2025-03-30 17:15:41.054,-2.651719413825576
2025-03-30 17:15:41.062,-18.516597366625017
2025-03-30 17:15:41.062,-15.934541232218153
2025-03-30 17:15:41.063,3.1015304968124253
2025-03-30 17:15:41.063,17.951844809783683
2025-03-30 17:15:41.072,12.883067680108718
2025-03-30 17:15:41.072,-4.629700190237066
2025-03-30 17:15:41.072,-13.814611335896963
2025-03-30 17:15:41.072,-5.890710706270744
2025-03-30 17:15:41.072,6.974100387846187
2025-03-30 17:15:41.082,8.516934998797886
2025-03-30 17:15:41.082,-1.7056623271673876
2025-03-30 17:15:41.082,-9.614589568127679
2025-03-30 17:15:41.082,-5.311781488193467
2025-03-30 17:15:41.082,5.598934452763556
2025-03-30 17:15:41.090,10.922380603574132
2025-03-30 17:15:41.090,6.496990646830003
2025-03-30 17:15:41.090,-2.379121993286375
2025-03-30 17:15:41.090,-9.55961473434016
2025-03-30 17:15:41.100,-11.73891044351247
2025-03-30 17:15:41.100,-6.497152039775636
2025-03-30 17:15:41.100,5.478075680549161
2025-03-30 17:15:41.101,16.140461408424667
2025-03-30 17:15:41.101,15.11715230012563
2025-03-30 17:15:41.110,1.544723548778924
2025-03-30 17:15:41.110,-13.466109818272955
2025-03-30 17:15:41.110,-18.317348037472286
2025-03-30 17:15:41.110,-11.32090820134852
2025-03-30 17:15:41.110,1.6744318585942863
2025-03-30 17:15:41.118,14.503722470614866
2025-03-30 17:15:41.118,21.320291495554585
2025-03-30 17:15:41.118,15.213527957619538
2025-03-30 17:15:41.118,-5.153911226143077
2025-03-30 17:15:41.128,-27.042771770524716
2025-03-30 17:15:41.128,-29.843551387267173
2025-03-30 17:15:41.128,-6.1336120569720975
2025-03-30 17:15:41.128,25.545636630331707
2025-03-30 17:15:41.128,35.59248304521109
2025-03-30 17:15:41.136,13.931305658542328
2025-03-30 17:15:41.136,-17.86965781402612
2025-03-30 17:15:41.136,-29.22708114267385
2025-03-30 17:15:41.136,-13.328457872934495
2025-03-30 17:15:41.146,8.20393894894759
2025-03-30 17:15:41.146,13.168133429617914
2025-03-30 17:15:41.146,3.606582146302909
2025-03-30 17:15:41.146,-1.9138601097908385
2025-03-30 17:15:41.146,4.905264818942593
2025-03-30 17:15:41.154,11.76269168267965
2025-03-30 17:15:41.154,3.1037009711131476
2025-03-30 17:15:41.155,-17.821134799835942
2025-03-30 17:15:41.155,-28.640134245831725
2025-03-30 17:15:41.164,-11.345424807512336
2025-03-30 17:15:41.164,23.842966498888465
2025-03-30 17:15:41.164,42.519364387760554
2025-03-30 17:15:41.164,20.876085238344842
2025-03-30 17:15:41.164,-23.98375157468645
2025-03-30 17:15:41.172,-47.451811698431456
2025-03-30 17:15:41.172,-25.36365966308611
2025-03-30 17:15:41.172,18.645899452219403
2025-03-30 17:15:41.172,40.1338812306949
2025-03-30 17:15:41.180,22.630433009963163
2025-03-30 17:15:41.180,-9.354310211718149
2025-03-30 17:15:41.180,-23.497095635361497
2025-03-30 17:15:41.180,-14.372151634427745
2025-03-30 17:15:41.190,-0.49701560278755763
2025-03-30 17:15:41.190,4.178424593446193
2025-03-30 17:15:41.190,4.151088895901507
2025-03-30 17:15:41.190,7.941247855725097
2025-03-30 17:15:41.190,11.43117294430157
2025-03-30 17:15:41.198,4.191106385785747
2025-03-30 17:15:41.198,-11.782051933315772
2025-03-30 17:15:41.198,-19.80994163520719
2025-03-30 17:15:41.198,-8.315335855299466
2025-03-30 17:15:41.208,12.745284680718731
2025-03-30 17:15:41.208,21.166941021189857
2025-03-30 17:15:41.208,7.759316202745726
2025-03-30 17:15:41.208,-12.566900994080372
2025-03-30 17:15:41.208,-17.680328442787836
2025-03-30 17:15:41.216,-3.4087050551842086
2025-03-30 17:15:41.217,12.610599308660989
2025-03-30 17:15:41.217,12.264011167554195
2025-03-30 17:15:41.217,-2.4809968932608175
2025-03-30 17:15:41.226,-13.47453108060953
2025-03-30 17:15:41.226,-8.30263931695711
2025-03-30 17:15:41.226,6.449426756844915
2025-03-30 17:15:41.226,14.429763646384732
2025-03-30 17:15:41.226,7.90796254017943
2025-03-30 17:15:41.236,-5.724543519396639
2025-03-30 17:15:41.236,-13.461134911543882
2025-03-30 17:15:41.236,-9.450251248017983
2025-03-30 17:15:41.236,1.1817629156227127
2025-03-30 17:15:41.236,8.73278914993114
2025-03-30 17:15:41.246,8.253202110568791
2025-03-30 17:15:41.246,3.0025702006537975
2025-03-30 17:15:41.246,-0.7869930044449928
2025-03-30 17:15:41.246,-1.4420696115546918
2025-03-30 17:15:41.246,-2.6598337124757636
2025-03-30 17:15:41.254,-6.740249675969994
2025-03-30 17:15:41.254,-9.236454227260841
2025-03-30 17:15:41.254,-3.3328404783079644
2025-03-30 17:15:41.254,9.866429786756392
2025-03-30 17:15:41.262,18.677580988821
2025-03-30 17:15:41.262,12.117250261424616
2025-03-30 17:15:41.263,-6.658175537757758
2025-03-30 17:15:41.263,-21.56411216383996
2025-03-30 17:15:41.263,-19.299479770387975
2025-03-30 17:15:41.272,-2.0086816869767468
2025-03-30 17:15:41.272,16.0557688220616
2025-03-30 17:15:41.272,21.86711550100081
2025-03-30 17:15:41.272,12.557440543362242
2025-03-30 17:15:41.280,-5.082401062833188
2025-03-30 17:15:41.280,-19.502017711073762
2025-03-30 17:15:41.281,-20.390077363505295
2025-03-30 17:15:41.281,-5.921982263371917
2025-03-30 17:15:41.281,13.571850011696988
2025-03-30 17:15:41.290,22.4804088325522
2025-03-30 17:15:41.290,13.42055016723851
2025-03-30 17:15:41.290,-5.9947649555764455
2025-03-30 17:15:41.291,-19.722507746038072
2025-03-30 17:15:41.300,-16.719319533630127
2025-03-30 17:15:41.300,-0.18102497726777922
2025-03-30 17:15:41.300,14.947639319559183
2025-03-30 17:15:41.300,15.468479567760756
2025-03-30 17:15:41.300,2.707821938844483
2025-03-30 17:15:41.310,-9.368499808109771
2025-03-30 17:15:41.310,-9.72649565868697
2025-03-30 17:15:41.310,-1.749370482856781
2025-03-30 17:15:41.310,3.0407923655640645
2025-03-30 17:15:41.310,0.5707941469153704
2025-03-30 17:15:41.319,-1.5644233744075233
2025-03-30 17:15:41.319,3.2590570591789265
2025-03-30 17:15:41.319,9.441809390515637
2025-03-30 17:15:41.319,6.187230966077027
2025-03-30 17:15:41.328,-6.614764118305731
2025-03-30 17:15:41.328,-16.25591482488142
2025-03-30 17:15:41.329,-11.8738656916501
2025-03-30 17:15:41.329,3.580259460011023
2025-03-30 17:15:41.329,17.275084336555715
2025-03-30 17:15:41.337,18.403971781459134
2025-03-30 17:15:41.337,5.444253583834616
2025-03-30 17:15:41.337,-13.255634602814917
2025-03-30 17:15:41.337,-23.569657439029864
2025-03-30 17:15:41.346,-15.358735531985486
2025-03-30 17:15:41.346,6.628842935624592
2025-03-30 17:15:41.347,23.764215534773065
2025-03-30 17:15:41.347,20.455786082165282
2025-03-30 17:15:41.347,0.23922871956657854
2025-03-30 17:15:41.354,-17.809322876110773
2025-03-30 17:15:41.355,-18.49764391205287
2025-03-30 17:15:41.355,-4.357936813852728
2025-03-30 17:15:41.355,9.213024737432418
2025-03-30 17:15:41.363,10.44718403625277
2025-03-30 17:15:41.363,2.3325016564873193
2025-03-30 17:15:41.363,-2.565033205747483
2025-03-30 17:15:41.363,1.7212841155940541
2025-03-30 17:15:41.372,6.240261470402564
2025-03-30 17:15:41.373,-0.8738678398397041
2025-03-30 17:15:41.373,-15.305467062487589
2025-03-30 17:15:41.373,-17.4781525732187
2025-03-30 17:15:41.373,2.4292611478170576
2025-03-30 17:15:41.381,26.484082115862478
2025-03-30 17:15:41.381,26.042400511216456
2025-03-30 17:15:41.381,-2.94717377081969
2025-03-30 17:15:41.381,-31.27469108904399
2025-03-30 17:15:41.390,-28.508179115780983
2025-03-30 17:15:41.391,2.1754246780884934
2025-03-30 17:15:41.391,28.3453998557396
2025-03-30 17:15:41.391,25.03656347963244
2025-03-30 17:15:41.391,-0.36775268816572204
2025-03-30 17:15:41.399,-20.591260236052193
2025-03-30 17:15:41.399,-18.65243163418002
2025-03-30 17:15:41.399,-1.3415712173420362
2025-03-30 17:15:41.399,12.861838866868863
2025-03-30 17:15:41.409,12.790424426884965
2025-03-30 17:15:41.409,1.8459038478001566
2025-03-30 17:15:41.409,-8.349751361244518
2025-03-30 17:15:41.409,-9.016331443013097
2025-03-30 17:15:41.409,-1.0366501219031132
2025-03-30 17:15:41.418,7.0007071363220215
2025-03-30 17:15:41.419,7.3687430878992
2025-03-30 17:15:41.419,0.25413756315405545
2025-03-30 17:15:41.419,-7.20848458898617
2025-03-30 17:15:41.419,-7.973526155345177
2025-03-30 17:15:41.428,-1.0391962730225628
2025-03-30 17:15:41.428,7.978061130361006
2025-03-30 17:15:41.429,10.9898424143342
2025-03-30 17:15:41.429,3.793779999608023
2025-03-30 17:15:41.429,-8.970200538100034
2025-03-30 17:15:41.436,-15.581681737815579
2025-03-30 17:15:41.437,-7.595190700668928
2025-03-30 17:15:41.437,9.656783873909538
2025-03-30 17:15:41.437,19.609396677055884
2025-03-30 17:15:41.445,10.893720592081797
2025-03-30 17:15:41.445,-9.335166529121453
2025-03-30 17:15:41.445,-21.348941660176912
2025-03-30 17:15:41.445,-12.878513130204993
2025-03-30 17:15:41.446,8.180478581029105
2025-03-30 17:15:41.455,21.509617730914446
2025-03-30 17:15:41.455,14.072032307608024
2025-03-30 17:15:41.455,-7.41380318405599
2025-03-30 17:15:41.455,-22.342788768650543
2025-03-30 17:15:41.463,-15.363536931662257
2025-03-30 17:15:41.463,7.951273532344439
2025-03-30 17:15:41.463,24.72915467334124
2025-03-30 17:15:41.463,16.97354619908047
2025-03-30 17:15:41.463,-8.949595149857512
2025-03-30 17:15:41.472,-27.274812245029814
2025-03-30 17:15:41.473,-18.84686321922116
2025-03-30 17:15:41.473,8.74396408913799
2025-03-30 17:15:41.473,28.21121796659811
2025-03-30 17:15:41.481,20.05354475776227
2025-03-30 17:15:41.481,-7.28958938479976
2025-03-30 17:15:41.481,-25.967265728025158
2025-03-30 17:15:41.481,-18.126162693487426
2025-03-30 17:15:41.490,5.5343110860859515
2025-03-30 17:15:41.490,19.313476311372394
2025-03-30 17:15:41.491,11.882974109510055
2025-03-30 17:15:41.491,-3.7919802278589585
2025-03-30 17:15:41.491,-9.593138173186697
2025-03-30 17:15:41.499,-3.5513682080569264
2025-03-30 17:15:41.499,2.4991074063757557
2025-03-30 17:15:41.499,1.0608517828068336
2025-03-30 17:15:41.500,-3.0760461460024224
2025-03-30 17:15:41.500,-2.491222640334973
2025-03-30 17:15:41.509,2.378702274663542
2025-03-30 17:15:41.509,5.484459908571958
2025-03-30 17:15:41.509,3.711735527777168
2025-03-30 17:15:41.509,-0.6076771811407738
2025-03-30 17:15:41.518,-3.8777144525584593
2025-03-30 17:15:41.518,-4.657569064832193
2025-03-30 17:15:41.519,-3.176187401438266
2025-03-30 17:15:41.519,0.114332984687871
2025-03-30 17:15:41.519,4.197558978806603
2025-03-30 17:15:41.528,6.43071691674917
2025-03-30 17:15:41.529,3.877784331469582
2025-03-30 17:15:41.529,-2.848625692437977
2025-03-30 17:15:41.529,-8.271252927500786
2025-03-30 17:15:41.529,-6.867935487483514
2025-03-30 17:15:41.538,0.7728443341539046
2025-03-30 17:15:41.538,8.091852520530404
2025-03-30 17:15:41.539,8.793254860724604
2025-03-30 17:15:41.539,2.2851012465682703
2025-03-30 17:15:41.539,-6.106191369616918
2025-03-30 17:15:41.547,-9.476337404353282
2025-03-30 17:15:41.547,-5.084286071051207
2025-03-30 17:15:41.547,3.114616058217951
2025-03-30 17:15:41.547,8.140321609729966
2025-03-30 17:15:41.556,6.410373608720412
2025-03-30 17:15:41.557,0.14455972765393516
2025-03-30 17:15:41.557,-5.539054867465365
2025-03-30 17:15:41.557,-6.485201502385536
2025-03-30 17:15:41.557,-1.916947446939514
2025-03-30 17:15:41.566,4.279991581445167
2025-03-30 17:15:41.566,5.598149806141125
2025-03-30 17:15:41.567,-0.16550450522883325
2025-03-30 17:15:41.567,-6.204397257461204
2025-03-30 17:15:41.567,-3.540134902796049
2025-03-30 17:15:41.575,6.191977609610643
2025-03-30 17:15:41.575,10.222744751367385
2025-03-30 17:15:41.575,0.7820641032619822
2025-03-30 17:15:41.575,-12.683997838411894
2025-03-30 17:15:41.584,-13.620934298506905
2025-03-30 17:15:41.585,0.8258664879902826
2025-03-30 17:15:41.585,15.463658802670777
2025-03-30 17:15:41.585,14.803018705835505
2025-03-30 17:15:41.585,0.304407703102596
2025-03-30 17:15:41.594,-12.895708300715972
2025-03-30 17:15:41.595,-13.27547365613513
2025-03-30 17:15:41.595,-3.2601026681158323
2025-03-30 17:15:41.595,6.430609044157529
2025-03-30 17:15:41.595,8.746324023138218
2025-03-30 17:15:41.602,5.1331752887384114
2025-03-30 17:15:41.603,0.633487954141148
2025-03-30 17:15:41.603,-2.4330881638826822
2025-03-30 17:15:41.603,-4.4875618818311045
2025-03-30 17:15:41.613,-4.871105099911167
2025-03-30 17:15:41.613,-2.036045446756051
2025-03-30 17:15:41.613,2.3987302981303467
2025-03-30 17:15:41.613,4.103987560883881
2025-03-30 17:15:41.613,2.1533684782325904
2025-03-30 17:15:41.622,0.5455719346131098
2025-03-30 17:15:41.622,1.1916151619804676
2025-03-30 17:15:41.623,0.09988172836613374
2025-03-30 17:15:41.623,-4.991294612773669
2025-03-30 17:15:41.623,-7.669906645366721
2025-03-30 17:15:41.631,-0.9166311229275845
2025-03-30 17:15:41.631,9.930008920221498
2025-03-30 17:15:41.631,11.246817730640428
2025-03-30 17:15:41.631,-0.38470571409771714
2025-03-30 17:15:41.640,-12.027602456623203
2025-03-30 17:15:41.641,-10.641354949828326
2025-03-30 17:15:41.641,1.0053429690525173
2025-03-30 17:15:41.641,9.6609989451404
2025-03-30 17:15:41.641,8.079515482247652
2025-03-30 17:15:41.650,0.6608804360843978
2025-03-30 17:15:41.651,-4.74737190622817
2025-03-30 17:15:41.651,-5.272546384788016
2025-03-30 17:15:41.651,-3.0543866889838736
2025-03-30 17:15:41.651,-0.48398470648009295
2025-03-30 17:15:41.660,2.1108221515872962
2025-03-30 17:15:41.660,4.401228945395133
2025-03-30 17:15:41.661,4.384017028157951
2025-03-30 17:15:41.661,0.9293451306175604
2025-03-30 17:15:41.661,-3.52120265706249
2025-03-30 17:15:41.669,-5.390722426581418
2025-03-30 17:15:41.669,-3.936727406783518
2025-03-30 17:15:41.669,-0.4999876973556304
2025-03-30 17:15:41.669,4.104432865734343
2025-03-30 17:15:41.678,8.085839768110947
2025-03-30 17:15:41.678,6.787661260166761
2025-03-30 17:15:41.679,-2.371817260571006
2025-03-30 17:15:41.679,-12.951367454433202
2025-03-30 17:15:41.679,-13.067861086055357
2025-03-30 17:15:41.687,0.7572488829808134
2025-03-30 17:15:41.687,16.44191685610406
2025-03-30 17:15:41.687,17.479454739712995
2025-03-30 17:15:41.687,1.1854153323645493
2025-03-30 17:15:41.687,-17.166074783067618
2025-03-30 17:15:41.696,-19.551317487077856
2025-03-30 17:15:41.697,-3.436177215365565
2025-03-30 17:15:41.697,15.6930715597382
2025-03-30 17:15:41.697,19.557021835184063
2025-03-30 17:15:41.705,4.898202276141191
2025-03-30 17:15:41.705,-13.471338146372858
2025-03-30 17:15:41.705,-17.59176236957643
2025-03-30 17:15:41.705,-4.519620061082324
2025-03-30 17:15:41.714,11.190496969944657
2025-03-30 17:15:41.715,13.663122687238998
2025-03-30 17:15:41.715,2.609470710542644
2025-03-30 17:15:41.715,-8.246854028081096
2025-03-30 17:15:41.715,-8.21855142960724
2025-03-30 17:15:41.724,-0.6392483292114092
2025-03-30 17:15:41.725,4.211538105072158
2025-03-30 17:15:41.725,2.5354509342509344
2025-03-30 17:15:41.725,-0.5135413828334776
2025-03-30 17:15:41.725,0.09777617903059774
2025-03-30 17:15:41.733,2.26680589166729
2025-03-30 17:15:41.733,0.7133036376447749
2025-03-30 17:15:41.733,-4.191284619356748
2025-03-30 17:15:41.733,-5.5672268036794605
2025-03-30 17:15:41.742,0.45092131898472754
2025-03-30 17:15:41.742,7.757780899050149
2025-03-30 17:15:41.743,6.973073432455776
2025-03-30 17:15:41.743,-2.161711658930161
2025-03-30 17:15:41.743,-9.64251878397511
2025-03-30 17:15:41.751,-7.146630990071221
2025-03-30 17:15:41.751,2.445355565281874
2025-03-30 17:15:41.751,9.09601827993293
2025-03-30 17:15:41.751,6.868818623504557
2025-03-30 17:15:41.751,-0.8539996277482375
2025-03-30 17:15:41.760,-6.373479700798272
2025-03-30 17:15:41.761,-5.776062112295488
2025-03-30 17:15:41.761,-1.405345390883435
2025-03-30 17:15:41.761,2.403951063813492
2025-03-30 17:15:41.771,3.876521292165848
2025-03-30 17:15:41.771,3.4241981440120264
2025-03-30 17:15:41.771,1.0875257866292676
2025-03-30 17:15:41.771,-2.7710795106692614
2025-03-30 17:15:41.771,-5.113647634650301
2025-03-30 17:15:41.780,-2.4356937798131986
2025-03-30 17:15:41.780,3.648081124135054
2025-03-30 17:15:41.781,6.442208820827595
2025-03-30 17:15:41.781,2.0073185916706766
2025-03-30 17:15:41.781,-5.307701165141907
2025-03-30 17:15:41.789,-7.513559486233182
2025-03-30 17:15:41.789,-1.982429125373833
2025-03-30 17:15:41.789,5.878299807756059
2025-03-30 17:15:41.789,8.369507108382484
2025-03-30 17:15:41.798,3.1097780643355435
2025-03-30 17:15:41.798,-4.715242245427416
2025-03-30 17:15:41.799,-7.6382061773001
2025-03-30 17:15:41.799,-3.6715828451119163
2025-03-30 17:15:41.799,2.022506817425068
2025-03-30 17:15:41.807,3.730996007933542
2025-03-30 17:15:41.807,1.7893906797288388
2025-03-30 17:15:41.807,0.7613662626100955
2025-03-30 17:15:41.807,2.265747030390794
2025-03-30 17:15:41.808,2.7295653591001305
2025-03-30 17:15:41.817,-1.0250074163966523
2025-03-30 17:15:41.817,-6.562654596615896
2025-03-30 17:15:41.817,-8.101974474364196
2025-03-30 17:15:41.817,-2.838050705758422
2025-03-30 17:15:41.827,6.174515914626913
2025-03-30 17:15:41.827,12.180167439704094
2025-03-30 17:15:41.827,9.25032946157748
2025-03-30 17:15:41.827,-2.4412705757604694
2025-03-30 17:15:41.827,-13.956128762266516
2025-03-30 17:15:41.836,-13.682192917016197
2025-03-30 17:15:41.837,-0.21739346582446795
2025-03-30 17:15:41.837,13.112887279579617
2025-03-30 17:15:41.837,12.023273530277022
2025-03-30 17:15:41.837,-1.1325898191442594
2025-03-30 17:15:41.846,-9.761203584412376
2025-03-30 17:15:41.847,-4.325069822198341
2025-03-30 17:15:41.847,5.611584832093182
2025-03-30 17:15:41.847,5.240387012034711
2025-03-30 17:15:41.847,-4.975051473728498
2025-03-30 17:15:41.855,-10.272282033252699
2025-03-30 17:15:41.855,-1.8403550276706104
2025-03-30 17:15:41.855,11.291963739146981
2025-03-30 17:15:41.855,13.32456620031083
2025-03-30 17:15:41.864,0.6662073239104115
2025-03-30 17:15:41.865,-13.794868648935093
2025-03-30 17:15:41.865,-14.862550554928177
2025-03-30 17:15:41.865,-1.1647874048920381
2025-03-30 17:15:41.865,13.875429376731715
2025-03-30 17:15:41.872,16.00947368371862
2025-03-30 17:15:41.873,3.502351335240957
2025-03-30 17:15:41.873,-12.521622593517437
2025-03-30 17:15:41.873,-18.28614813360715
2025-03-30 17:15:41.882,-8.22174110648637
2025-03-30 17:15:41.882,10.25635824005156
2025-03-30 17:15:41.883,21.17450567881874
2025-03-30 17:15:41.883,13.316370324796866
2025-03-30 17:15:41.883,-7.190583480150244
2025-03-30 17:15:41.891,-20.49950489405081
2025-03-30 17:15:41.891,-13.92097489887371
2025-03-30 17:15:41.891,3.1891054748079024
2025-03-30 17:15:41.891,11.493958772290013
2025-03-30 17:15:41.900,6.393069742437775
2025-03-30 17:15:41.901,1.1812053973970353
2025-03-30 17:15:41.901,4.6179959360828144
2025-03-30 17:15:41.901,7.152686963030505
2025-03-30 17:15:41.901,-3.090348538399538
2025-03-30 17:15:41.909,-18.955327208576715
2025-03-30 17:15:41.909,-20.366428997547956
2025-03-30 17:15:41.909,-0.6322777220083027
2025-03-30 17:15:41.909,22.790405840066487
2025-03-30 17:15:41.918,27.097118007397608
2025-03-30 17:15:41.918,8.61686785661821
2025-03-30 17:15:41.919,-14.99600313050051
2025-03-30 17:15:41.919,-24.0662132437471
2025-03-30 17:15:41.919,-14.66911438106522
2025-03-30 17:15:41.927,1.7754381830929093
2025-03-30 17:15:41.927,12.375480634868458
2025-03-30 17:15:41.927,13.421666273481625
2025-03-30 17:15:41.927,8.64521012468488
2025-03-30 17:15:41.936,1.848007194155709
2025-03-30 17:15:41.936,-5.267527475614225
2025-03-30 17:15:41.937,-10.43566085624005
2025-03-30 17:15:41.937,-10.74473569961279
2025-03-30 17:15:41.937,-5.508749985765207
2025-03-30 17:15:41.945,3.0789066105156646
2025-03-30 17:15:41.945,11.305534209351157
2025-03-30 17:15:41.945,14.296320828304989
2025-03-30 17:15:41.945,7.842914808131323
2025-03-30 17:15:41.945,-6.189552707869987
2025-03-30 17:15:41.955,-17.621708212214063
2025-03-30 17:15:41.955,-15.701800652621795
2025-03-30 17:15:41.955,-0.5605417039997401
2025-03-30 17:15:41.955,15.217565811420366
2025-03-30 17:15:41.963,18.074297512872786
2025-03-30 17:15:41.963,6.118479126511321
2025-03-30 17:15:41.963,-9.840096946143433
2025-03-30 17:15:41.963,-16.619339403400684
2025-03-30 17:15:41.972,-9.639956690720696
2025-03-30 17:15:41.973,4.353130586310924
2025-03-30 17:15:41.973,13.597051024534824
2025-03-30 17:15:41.973,11.151992891561573
2025-03-30 17:15:41.973,0.30300707323481013
2025-03-30 17:15:41.981,-9.274872745403494
2025-03-30 17:15:41.981,-10.572979437620015
2025-03-30 17:15:41.981,-4.27502476552503
2025-03-30 17:15:41.981,3.825999215519054
2025-03-30 17:15:41.991,8.161153326428842
2025-03-30 17:15:41.991,6.476166464321567
2025-03-30 17:15:41.991,0.5227855716292078
2025-03-30 17:15:41.991,-4.89506406150243
2025-03-30 17:15:41.991,-5.334511555934862
2025-03-30 17:15:42.000,-1.1148836158225879
2025-03-30 17:15:42.001,2.46830931039796
2025-03-30 17:15:42.001,1.2267741837478603
2025-03-30 17:15:42.001,-2.2579304343712803
2025-03-30 17:15:42.001,-1.8363892545367122
2025-03-30 17:15:42.010,3.212871957807548
2025-03-30 17:15:42.011,6.216285317185672
2025-03-30 17:15:42.011,2.158388252971329
2025-03-30 17:15:42.011,-4.802490452370498
2025-03-30 17:15:42.011,-6.573682276800457
2025-03-30 17:15:42.019,-1.894342819127777
2025-03-30 17:15:42.019,2.5694467061754924
2025-03-30 17:15:42.019,1.933972351857248
2025-03-30 17:15:42.019,-0.4234650772821063
2025-03-30 17:15:42.019,1.3312178730894044
2025-03-30 17:15:42.029,5.872549667513915
2025-03-30 17:15:42.029,5.398604960089848
2025-03-30 17:15:42.029,-3.3976778596467936
2025-03-30 17:15:42.029,-12.751836262854798
2025-03-30 17:15:42.029,-11.46077174285813
2025-03-30 17:15:42.039,1.6503188455519737
2025-03-30 17:15:42.039,14.820907073500695
2025-03-30 17:15:42.039,15.18696994822415
2025-03-30 17:15:42.039,2.209549978690381
2025-03-30 17:15:42.047,-11.946170258926896
2025-03-30 17:15:42.047,-14.622628125793
2025-03-30 17:15:42.047,-4.372098226298692
2025-03-30 17:15:42.047,8.405170951812078
2025-03-30 17:15:42.048,11.499315389362595
2025-03-30 17:15:42.057,2.6601097570472163
2025-03-30 17:15:42.057,-8.013344504571915
2025-03-30 17:15:42.057,-8.746730076640175
2025-03-30 17:15:42.057,0.8419990696249066
2025-03-30 17:15:42.066,9.589479610628562
2025-03-30 17:15:42.067,7.917779134771763
2025-03-30 17:15:42.067,-1.802246924617287
2025-03-30 17:15:42.067,-9.248187622849969
2025-03-30 17:15:42.067,-7.947399510595745
2025-03-30 17:15:42.076,-0.8338344535719038
2025-03-30 17:15:42.077,4.823201686477284
2025-03-30 17:15:42.077,5.492684678770178
2025-03-30 17:15:42.077,3.497000789787333
2025-03-30 17:15:42.077,2.231862426161741
2025-03-30 17:15:42.087,1.2511595336754398
2025-03-30 17:15:42.087,-2.3923491538654496
2025-03-30 17:15:42.087,-8.12076394869564
2025-03-30 17:15:42.087,-9.650041281835051
2025-03-30 17:15:42.087,-1.8550445039145689
2025-03-30 17:15:42.095,10.398207107788418
2025-03-30 17:15:42.095,14.549991563765813
2025-03-30 17:15:42.095,4.5738678806591615
2025-03-30 17:15:42.095,-9.835569473010949
2025-03-30 17:15:42.104,-13.062508969425682
2025-03-30 17:15:42.105,-2.15955534953964
2025-03-30 17:15:42.105,9.20495365349439
2025-03-30 17:15:42.105,7.343684000422213
2025-03-30 17:15:42.105,-4.595005846373977
2025-03-30 17:15:42.118,-10.60737795424153
2025-03-30 17:15:42.118,-1.987315779046411
2025-03-30 17:15:42.118,11.355628900621292
2025-03-30 17:15:42.118,12.851948027046848
2025-03-30 17:15:42.118,-0.1969480817524598
2025-03-30 17:15:42.122,-13.26758794710606
2025-03-30 17:15:42.123,-12.35359588097084
2025-03-30 17:15:42.123,-0.11633636043875939
2025-03-30 17:15:42.123,9.019541598509525
2025-03-30 17:15:42.132,6.866323854250654
2025-03-30 17:15:42.133,-0.39658229752323493
2025-03-30 17:15:42.133,-2.207334417731647
2025-03-30 17:15:42.133,2.5639268300832816
2025-03-30 17:15:42.133,4.849680430774104
2025-03-30 17:15:42.142,-2.2247553424174686
2025-03-30 17:15:42.142,-12.781166869290981
2025-03-30 17:15:42.142,-12.927775580766754
2025-03-30 17:15:42.143,2.3911041796772823
2025-03-30 17:15:42.143,19.82346871268852
2025-03-30 17:15:42.150,20.02085857649938
2025-03-30 17:15:42.150,0.4281088058093431
2025-03-30 17:15:42.151,-19.749271369724717
2025-03-30 17:15:42.151,-20.7690643877369
2025-03-30 17:15:42.160,-4.1582301213960315
2025-03-30 17:15:42.160,11.677389897777932
2025-03-30 17:15:42.160,14.067423421173348
2025-03-30 17:15:42.160,6.902346509846289
2025-03-30 17:15:42.160,-0.17156669626790444
2025-03-30 17:15:42.170,-4.264781970424034
2025-03-30 17:15:42.170,-7.140046730758446
2025-03-30 17:15:42.170,-7.631065423547411
2025-03-30 17:15:42.170,-3.0784778168574127
2025-03-30 17:15:42.170,4.258293241215626
2025-03-30 17:15:42.178,8.203354968514223
2025-03-30 17:15:42.178,5.9870481983667805
2025-03-30 17:15:42.179,0.7030010631741078
2025-03-30 17:15:42.179,-3.5834776242150856
2025-03-30 17:15:42.188,-5.677599485008608
2025-03-30 17:15:42.188,-5.512134777138667
2025-03-30 17:15:42.189,-2.2167002888215874
2025-03-30 17:15:42.189,3.52157813809315
2025-03-30 17:15:42.189,7.538211123501336
2025-03-30 17:15:42.197,6.019939978257795
2025-03-30 17:15:42.197,0.3709273705160977
2025-03-30 17:15:42.197,-4.581713634178952
2025-03-30 17:15:42.197,-6.377303810621813
2025-03-30 17:15:42.197,-5.838670127281738
2025-03-30 17:15:42.207,-2.982874080679924
2025-03-30 17:15:42.207,3.5753994406963114
2025-03-30 17:15:42.207,11.414930620322876
2025-03-30 17:15:42.207,12.314105429730361
2025-03-30 17:15:42.216,0.6293108025976137
2025-03-30 17:15:42.217,-16.011456311878835
2025-03-30 17:15:42.217,-20.114735827577135
2025-03-30 17:15:42.217,-3.54353410173992
2025-03-30 17:15:42.217,19.223767710788128
2025-03-30 17:15:42.225,23.946189799608987
2025-03-30 17:15:42.225,4.060485999118597
2025-03-30 17:15:42.225,-20.21125975847968
2025-03-30 17:15:42.225,-23.603097988080417
2025-03-30 17:15:42.234,-3.4472720189902972
2025-03-30 17:15:42.234,18.470292019196936
2025-03-30 17:15:42.235,20.506849660903388
2025-03-30 17:15:42.235,3.2574701964846113
2025-03-30 17:15:42.235,-14.150602022621813
2025-03-30 17:15:42.243,-15.989397590971333
2025-03-30 17:15:42.243,-4.170420585906151
2025-03-30 17:15:42.243,8.047553594336623
2025-03-30 17:15:42.243,11.167228050999748
2025-03-30 17:15:42.252,5.7631272814718475
2025-03-30 17:15:42.253,-2.3242215649305624
2025-03-30 17:15:42.253,-7.653061554185022
2025-03-30 17:15:42.253,-6.700628952802481
2025-03-30 17:15:42.253,0.32393330257648884
2025-03-30 17:15:42.261,7.046260114869176
2025-03-30 17:15:42.261,5.420332042209912
2025-03-30 17:15:42.261,-3.708615018207794
2025-03-30 17:15:42.261,-8.915930095420704
2025-03-30 17:15:42.270,-1.9975867420982123
2025-03-30 17:15:42.271,9.795216534990907
2025-03-30 17:15:42.271,11.432600877846767
2025-03-30 17:15:42.271,-0.8994473172197159
2025-03-30 17:15:42.271,-14.26246797244282
2025-03-30 17:15:42.280,-13.813102779844648
2025-03-30 17:15:42.281,0.6775575914476049
2025-03-30 17:15:42.281,15.189598733973122
2025-03-30 17:15:42.281,16.075802365845036
2025-03-30 17:15:42.281,2.636397308064409
2025-03-30 17:15:42.289,-13.113026477209308
2025-03-30 17:15:42.289,-17.424024276408808
2025-03-30 17:15:42.289,-6.800765131599265
2025-03-30 17:15:42.289,9.035225901118714
2025-03-30 17:15:42.297,16.210084552670033
2025-03-30 17:15:42.297,9.507732599113845
2025-03-30 17:15:42.297,-3.7579605540310856
2025-03-30 17:15:42.297,-11.929261388030792
2025-03-30 17:15:42.307,-9.669918020644701
2025-03-30 17:15:42.307,-0.9438355810970875
2025-03-30 17:15:42.307,6.172819171017487
2025-03-30 17:15:42.307,6.673531215538653
2025-03-30 17:15:42.307,2.3306858064208176
2025-03-30 17:15:42.316,-0.7934695319302777
2025-03-30 17:15:42.317,0.23463565970534256
2025-03-30 17:15:42.317,0.8716145530539086
2025-03-30 17:15:42.317,-4.233480882775423
2025-03-30 17:15:42.317,-10.467776425635924
2025-03-30 17:15:42.326,-6.265879624888269
2025-03-30 17:15:42.326,9.375903991746153
2025-03-30 17:15:42.327,19.94621292372364
2025-03-30 17:15:42.327,10.20156537684134
2025-03-30 17:15:42.327,-12.25365069598473
2025-03-30 17:15:42.335,-23.613385842095735
2025-03-30 17:15:42.335,-11.795658018051705
2025-03-30 17:15:42.335,10.088826502782759
2025-03-30 17:15:42.335,20.055431354032926
2025-03-30 17:15:42.344,11.217119822926225
2025-03-30 17:15:42.345,-4.1318860417501
2025-03-30 17:15:42.345,-11.08195277452253
2025-03-30 17:15:42.345,-7.509828020623345
2025-03-30 17:15:42.345,-1.872225312670058
2025-03-30 17:15:42.354,0.04127377260271381
2025-03-30 17:15:42.355,0.9328836134788409
2025-03-30 17:15:42.355,4.662269892404324
2025-03-30 17:15:42.355,8.459177106610964
2025-03-30 17:15:42.355,6.189087465329998
2025-03-30 17:15:42.363,-2.6296360395256264
2025-03-30 17:15:42.363,-10.825900691276544
2025-03-30 17:15:42.363,-11.024358482339796
2025-03-30 17:15:42.363,-3.0956071832975534
2025-03-30 17:15:42.372,6.486417576920387
2025-03-30 17:15:42.373,11.216185503922425
2025-03-30 17:15:42.373,9.242464438077251
2025-03-30 17:15:42.373,2.55769789870954
2025-03-30 17:15:42.373,-5.842806185005977
2025-03-30 17:15:42.381,-12.483938441950414
2025-03-30 17:15:42.381,-12.761855092714246
2025-03-30 17:15:42.381,-3.5939164987362293
2025-03-30 17:15:42.381,11.110376596885374
2025-03-30 17:15:42.389,19.87106084890346
2025-03-30 17:15:42.389,13.00772570881177
2025-03-30 17:15:42.389,-5.864115976976904
2025-03-30 17:15:42.389,-20.552150725134638
2025-03-30 17:15:42.390,-17.554512021768836
2025-03-30 17:15:42.399,-0.1583466437243104
2025-03-30 17:15:42.399,14.897658020338405
2025-03-30 17:15:42.399,14.879500288904815
2025-03-30 17:15:42.399,3.1288500726257036
2025-03-30 17:15:42.409,-6.835704908989159
2025-03-30 17:15:42.409,-6.843027801571494
2025-03-30 17:15:42.409,-1.2273873359642442
2025-03-30 17:15:42.409,0.9452447047541164
2025-03-30 17:15:42.409,-2.2275073170310753
2025-03-30 17:15:42.418,-3.92007388587783
2025-03-30 17:15:42.419,1.2544910487758223
2025-03-30 17:15:42.419,8.622687417237135
2025-03-30 17:15:42.419,8.368211331749178
2025-03-30 17:15:42.419,-1.3712209638229942
2025-03-30 17:15:42.428,-10.569013151769195
2025-03-30 17:15:42.429,-8.922224999494546
2025-03-30 17:15:42.429,1.411648770244748
2025-03-30 17:15:42.429,8.513560803250863
2025-03-30 17:15:42.429,5.347424457786823
2025-03-30 17:15:42.437,-2.4121737734082167
2025-03-30 17:15:42.437,-4.700540759711542
2025-03-30 17:15:42.437,0.10264913717671009
2025-03-30 17:15:42.437,4.339665868495832
2025-03-30 17:15:42.446,1.9379414486544992
2025-03-30 17:15:42.447,-4.212674809013468
2025-03-30 17:15:42.447,-6.727860741827546
2025-03-30 17:15:42.447,-2.2671795193094697
2025-03-30 17:15:42.447,5.664017978641473
2025-03-30 17:15:42.455,9.823260710192121
2025-03-30 17:15:42.455,4.840275058836104
2025-03-30 17:15:42.455,-6.696509826224915
2025-03-30 17:15:42.455,-13.574131283396824
2025-03-30 17:15:42.465,-6.462102406324392
2025-03-30 17:15:42.465,9.216345193464619
2025-03-30 17:15:42.465,16.33215648217335
2025-03-30 17:15:42.465,5.722530388888332
2025-03-30 17:15:42.465,-11.421660516042003
2025-03-30 17:15:42.474,-16.041670610466976
2025-03-30 17:15:42.474,-3.792520984662173
2025-03-30 17:15:42.475,10.710114460218218
2025-03-30 17:15:42.475,12.228352027584357
2025-03-30 17:15:42.475,1.7857710629939472
2025-03-30 17:15:42.483,-7.417354891785406
2025-03-30 17:15:42.483,-6.758238509411948
2025-03-30 17:15:42.483,-0.019380347830426192
2025-03-30 17:15:42.483,4.248534969961766
2025-03-30 17:15:42.493,2.855850263724434
2025-03-30 17:15:42.493,-1.1974651813978625
2025-03-30 17:15:42.493,-3.9013786102985426
2025-03-30 17:15:42.493,-3.0540437163252103
2025-03-30 17:15:42.493,1.4551980574105579
2025-03-30 17:15:42.494,6.597026415382448
2025-03-30 17:15:42.502,6.969059415330935
2025-03-30 17:15:42.503,0.20745829446038458
2025-03-30 17:15:42.503,-8.674281911155195
2025-03-30 17:15:42.503,-11.217549311595642
2025-03-30 17:15:42.511,-4.371006288431019
2025-03-30 17:15:42.511,6.125879068871801
2025-03-30 17:15:42.511,11.593382954964605
2025-03-30 17:15:42.511,8.568077069425714
2025-03-30 17:15:42.512,0.7988811981812853
2025-03-30 17:15:42.521,-5.701907162222115
2025-03-30 17:15:42.521,-8.254732947807554
2025-03-30 17:15:42.521,-7.9264510585922565
2025-03-30 17:15:42.521,-5.448535698925396
2025-03-30 17:15:42.529,0.8992492469258354
2025-03-30 17:15:42.529,10.999956729620852
2025-03-30 17:15:42.529,17.66340217817246
2025-03-30 17:15:42.529,11.052340871490816
2025-03-30 17:15:42.530,-8.254617158457455
2025-03-30 17:15:42.539,-24.536317166866898
2025-03-30 17:15:42.539,-21.26004810150977
2025-03-30 17:15:42.539,0.2812807769775576
2025-03-30 17:15:42.539,21.245678384359742
2025-03-30 17:15:42.547,24.429067316109393
2025-03-30 17:15:42.547,9.679794344093937
2025-03-30 17:15:42.547,-9.421104671749433
2025-03-30 17:15:42.547,-19.48643185697275
2025-03-30 17:15:42.557,-16.288605889347902
2025-03-30 17:15:42.557,-4.11782981700914
2025-03-30 17:15:42.557,9.102925661970822
2025-03-30 17:15:42.557,16.05598836999218
2025-03-30 17:15:42.557,13.022362592285205
2025-03-30 17:15:42.566,1.8966684711348365
2025-03-30 17:15:42.567,-10.173150080619994
2025-03-30 17:15:42.567,-14.878932228567805
2025-03-30 17:15:42.567,-8.895040909294833
2025-03-30 17:15:42.567,2.898119874440462
2025-03-30 17:15:42.575,11.086555634361902
2025-03-30 17:15:42.575,9.887809148753647
2025-03-30 17:15:42.575,1.9877539967251843
2025-03-30 17:15:42.575,-4.86041821464131
2025-03-30 17:15:42.585,-5.7443906167542895
2025-03-30 17:15:42.585,-2.71244147654927
2025-03-30 17:15:42.585,-0.9600221660049878
2025-03-30 17:15:42.585,-1.690774114871141
2025-03-30 17:15:42.585,-0.7343910865962957
2025-03-30 17:15:42.593,4.66090082550748
2025-03-30 17:15:42.593,9.939461201317998
2025-03-30 17:15:42.593,7.298089540456813
2025-03-30 17:15:42.594,-4.45128073389535
2025-03-30 17:15:42.594,-16.189887123557824
2025-03-30 17:15:42.603,-15.774967424243753
2025-03-30 17:15:42.603,-0.08110695618029751
2025-03-30 17:15:42.603,19.10198248847686
2025-03-30 17:15:42.603,23.355385468019616
2025-03-30 17:15:42.611,5.956822809359431
2025-03-30 17:15:42.611,-18.308703498113612
2025-03-30 17:15:42.611,-26.096226998755206
2025-03-30 17:15:42.611,-9.700436484079733
2025-03-30 17:15:42.620,14.560025536832214
2025-03-30 17:15:42.621,23.393364247097516
2025-03-30 17:15:42.621,9.937636489955779
2025-03-30 17:15:42.621,-10.801255126254599
2025-03-30 17:15:42.621,-18.27558958120507
2025-03-30 17:15:42.629,-6.88792155004697
2025-03-30 17:15:42.629,9.562518669110574
2025-03-30 17:15:42.629,13.307639574219916
2025-03-30 17:15:42.629,1.6479147309710032
2025-03-30 17:15:42.630,-10.781660503516651
2025-03-30 17:15:42.639,-9.092048462960262
2025-03-30 17:15:42.639,4.572164145949342
2025-03-30 17:15:42.639,13.447925703088988
2025-03-30 17:15:42.639,5.85429252317098
2025-03-30 17:15:42.647,-10.504542391565458
2025-03-30 17:15:42.647,-16.68116319909696
2025-03-30 17:15:42.647,-4.309643761228919
2025-03-30 17:15:42.648,14.076941893345275
2025-03-30 17:15:42.648,18.69735636851212
2025-03-30 17:15:42.656,4.6063139986767325
2025-03-30 17:15:42.657,-13.332665894991557
2025-03-30 17:15:42.657,-17.454213096019824
2025-03-30 17:15:42.657,-5.552815979189507
2025-03-30 17:15:42.665,9.193363913850085
2025-03-30 17:15:42.665,13.175703297129681
2025-03-30 17:15:42.665,4.826619585639868
2025-03-30 17:15:42.665,-5.704525844916014
2025-03-30 17:15:42.666,-7.370816553698359
2025-03-30 17:15:42.675,0.05984105984618404
2025-03-30 17:15:42.675,5.382281493100332
2025-03-30 17:15:42.675,-0.030611404944884513
2025-03-30 17:15:42.675,-9.09658676185752
2025-03-30 17:15:42.685,-6.652239579071304
2025-03-30 17:15:42.685,8.634364552267494
2025-03-30 17:15:42.685,18.545463196401773
2025-03-30 17:15:42.685,7.623115774121942
2025-03-30 17:15:42.685,-14.718836483733906
2025-03-30 17:15:42.693,-23.49450182166839
2025-03-30 17:15:42.693,-8.475017072524292
2025-03-30 17:15:42.693,13.661420562736756
2025-03-30 17:15:42.693,20.486762723454724
2025-03-30 17:15:42.701,9.572158853443968
2025-03-30 17:15:42.701,-3.8090500882957006
2025-03-30 17:15:42.701,-9.443026820562052
2025-03-30 17:15:42.701,-11.004383224784974
2025-03-30 17:15:42.710,-11.598315400159999
2025-03-30 17:15:42.711,-4.44528156707226
2025-03-30 17:15:42.711,12.865188803294867
2025-03-30 17:15:42.711,24.943731242582736
2025-03-30 17:15:42.711,14.110673975631487
2025-03-30 17:15:42.719,-13.26900125467425
2025-03-30 17:15:42.719,-29.73299974576538
2025-03-30 17:15:42.719,-18.2804497133415
2025-03-30 17:15:42.719,8.999914843259704
2025-03-30 17:15:42.728,26.581032090520566
2025-03-30 17:15:42.729,21.3950952460089
2025-03-30 17:15:42.729,0.21798292855149448
2025-03-30 17:15:42.729,-20.354098262780653
2025-03-30 17:15:42.729,-25.681152510736386
2025-03-30 17:15:42.737,-11.072054287251744
2025-03-30 17:15:42.737,13.591365560063853
2025-03-30 17:15:42.737,28.231044387611288
2025-03-30 17:15:42.737,19.01956820554511
2025-03-30 17:15:42.745,-6.5040080424460225
2025-03-30 17:15:42.745,-24.747693953534032
2025-03-30 17:15:42.746,-19.840220536966157
2025-03-30 17:15:42.746,0.27350851644561835
2025-03-30 17:15:42.746,14.452466400540015
2025-03-30 17:15:42.755,12.278583028753483
2025-03-30 17:15:42.755,2.311666300095209
2025-03-30 17:15:42.755,-2.4736432626286855
2025-03-30 17:15:42.755,-0.5103978158376727
2025-03-30 17:15:42.764,0.4833638466620818
2025-03-30 17:15:42.765,-3.471397495007581
2025-03-30 17:15:42.765,-7.798983261931084
2025-03-30 17:15:42.765,-6.737244543555191
2025-03-30 17:15:42.765,-0.29966695156703793
2025-03-30 17:15:42.773,7.367568360069199
2025-03-30 17:15:42.773,12.326971252886873
2025-03-30 17:15:42.773,11.05269961336285
2025-03-30 17:15:42.773,0.685839529342392
2025-03-30 17:15:42.782,-15.14867305681247
2025-03-30 17:15:42.783,-22.947776960840077
2025-03-30 17:15:42.783,-10.447387195615088
2025-03-30 17:15:42.783,15.727214528237745
2025-03-30 17:15:42.783,30.760834062321567
2025-03-30 17:15:42.791,16.932378740608073
2025-03-30 17:15:42.791,-14.467061453817198
2025-03-30 17:15:42.791,-32.67099434794626
2025-03-30 17:15:42.791,-19.350394386504664
2025-03-30 17:15:42.799,12.19074460265455
2025-03-30 17:15:42.799,30.660159526353223
2025-03-30 17:15:42.799,18.57746401890213
2025-03-30 17:15:42.800,-10.500870074670344
2025-03-30 17:15:42.808,-26.990979054980677
2025-03-30 17:15:42.809,-16.112085415737027
2025-03-30 17:15:42.809,8.776606163815195
2025-03-30 17:15:42.809,22.683958106860644
2025-03-30 17:15:42.809,14.473593733729293
2025-03-30 17:15:42.817,-5.2371389232052445
2025-03-30 17:15:42.817,-17.56743046333203
2025-03-30 17:15:42.817,-13.569860004311693
2025-03-30 17:15:42.817,-0.1310191852760234
2025-03-30 17:15:42.827,9.672714604678347
2025-03-30 17:15:42.827,10.16256844545719
2025-03-30 17:15:42.827,5.741926512122827
2025-03-30 17:15:42.827,1.6602015178192513
2025-03-30 17:15:42.827,-2.7222593625980327
2025-03-30 17:15:42.837,-8.923793707493223
2025-03-30 17:15:42.837,-12.37742143676762
2025-03-30 17:15:42.837,-6.509390442438852
2025-03-30 17:15:42.837,6.955074651136959
2025-03-30 17:15:42.837,16.886737874171644
2025-03-30 17:15:42.845,13.791628877392599
2025-03-30 17:15:42.845,-0.22356454819935984
2025-03-30 17:15:42.845,-13.639975685729684
2025-03-30 17:15:42.845,-16.279238601060037
2025-03-30 17:15:42.855,-7.265148315582604
2025-03-30 17:15:42.855,5.86617771112863
2025-03-30 17:15:42.855,13.83545180036115
2025-03-30 17:15:42.855,11.76183520147156
2025-03-30 17:15:42.855,1.6577203797995592
2025-03-30 17:15:42.863,-8.853595160671942
2025-03-30 17:15:42.863,-11.781139743978967
2025-03-30 17:15:42.863,-5.705044197784156
2025-03-30 17:15:42.864,2.849620216899413
2025-03-30 17:15:42.872,6.890674321090319
2025-03-30 17:15:42.873,6.103326205862837
2025-03-30 17:15:42.873,4.013664541353507
2025-03-30 17:15:42.873,1.1636808385348993
2025-03-30 17:15:42.873,-3.9309855942870335
2025-03-30 17:15:42.881,-8.828779719865125
2025-03-30 17:15:42.881,-8.006988182715142
2025-03-30 17:15:42.881,-0.3684327576448151
2025-03-30 17:15:42.882,7.9835365897296215
2025-03-30 17:15:42.882,9.843493087738336
2025-03-30 17:15:42.893,4.182225243595818
2025-03-30 17:15:42.893,-3.123814527942932
2025-03-30 17:15:42.893,-5.463248634663136
2025-03-30 17:15:42.893,-2.6653346913526774
2025-03-30 17:15:42.893,-0.840159536737804
2025-03-30 17:15:42.901,-3.31375019514631
2025-03-30 17:15:42.901,-4.599193008413989
2025-03-30 17:15:42.901,1.5473431838952851
2025-03-30 17:15:42.901,10.472247367774324
2025-03-30 17:15:42.911,10.963849129342952
2025-03-30 17:15:42.911,1.1386102735181562
2025-03-30 17:15:42.911,-8.597779911891273
2025-03-30 17:15:42.911,-10.090110338281217
2025-03-30 17:15:42.911,-6.359701207589281
2025-03-30 17:15:42.921,-2.7955966853370886
2025-03-30 17:15:42.921,2.0476256857016963
2025-03-30 17:15:42.921,10.400284226691541
2025-03-30 17:15:42.921,15.744540823713148
2025-03-30 17:15:42.921,8.347956034594922
2025-03-30 17:15:42.929,-9.601090764834309
2025-03-30 17:15:42.929,-21.78223609264571
2025-03-30 17:15:42.929,-15.004370615699491
2025-03-30 17:15:42.929,4.680406519037838
2025-03-30 17:15:42.938,18.06931620705426
2025-03-30 17:15:42.939,14.134207268437754
2025-03-30 17:15:42.939,0.47311131950680274
2025-03-30 17:15:42.939,-8.185061857719983
2025-03-30 17:15:42.939,-6.803038926121928
2025-03-30 17:15:42.948,-1.9786794890616997
2025-03-30 17:15:42.949,-0.5632927337909104
2025-03-30 17:15:42.949,-1.8811413850245535
2025-03-30 17:15:42.949,-1.458430166622657
2025-03-30 17:15:42.949,2.0834046899639653
2025-03-30 17:15:42.957,6.115284643735926
2025-03-30 17:15:42.957,7.368115460222247
2025-03-30 17:15:42.957,3.9928612402360764
2025-03-30 17:15:42.957,-3.6582287837203773
2025-03-30 17:15:42.966,-11.456237949945562
2025-03-30 17:15:42.967,-12.131356512592806
2025-03-30 17:15:42.967,-1.960966234454774
2025-03-30 17:15:42.967,11.887006165209575
2025-03-30 17:15:42.967,15.381519506983059
2025-03-30 17:15:42.975,3.5863340398331336
2025-03-30 17:15:42.975,-10.58843991723687
2025-03-30 17:15:42.975,-10.543786882929895
2025-03-30 17:15:42.975,2.3179609579558025
2025-03-30 17:15:42.976,9.889630346619592
2025-03-30 17:15:42.985,1.897929231740223
2025-03-30 17:15:42.985,-10.475951827736385
2025-03-30 17:15:42.985,-10.640269089737444
2025-03-30 17:15:42.985,1.7373572949144458
2025-03-30 17:15:42.993,12.613509584233874
2025-03-30 17:15:42.993,12.11352575133025
2025-03-30 17:15:42.993,3.1382064092695368
2025-03-30 17:15:42.994,-6.350492952461048
2025-03-30 17:15:42.994,-11.689355144474888
2025-03-30 17:15:43.003,-11.182754894833803
2025-03-30 17:15:43.003,-4.017496906223281
2025-03-30 17:15:43.003,7.27550425661069
2025-03-30 17:15:43.003,15.106983125903312
2025-03-30 17:15:43.011,12.224808512261284
2025-03-30 17:15:43.011,-0.2897886548233768
2025-03-30 17:15:43.011,-12.455872958905564
2025-03-30 17:15:43.011,-14.269883674866623
2025-03-30 17:15:43.011,-5.090211758250494
2025-03-30 17:15:43.021,6.214192250283481
2025-03-30 17:15:43.021,10.262529658956325
2025-03-30 17:15:43.021,5.6632685092256505
2025-03-30 17:15:43.021,-1.3476342704667867
2025-03-30 17:15:43.031,-4.244125955045702
2025-03-30 17:15:43.031,-2.0532689530347445
2025-03-30 17:15:43.031,1.1475255256799297
2025-03-30 17:15:43.031,1.1027270858258085
2025-03-30 17:15:43.031,-2.1820491096456758
2025-03-30 17:15:43.032,-4.524562529634996
2025-03-30 17:15:43.041,-2.4353789469521887
2025-03-30 17:15:43.041,2.7633270984777343
2025-03-30 17:15:43.041,6.762874241673055
2025-03-30 17:15:43.041,6.809226457841153
2025-03-30 17:15:43.051,2.6651977139231264
2025-03-30 17:15:43.051,-4.594886092845245
2025-03-30 17:15:43.051,-11.445922171029679
2025-03-30 17:15:43.051,-11.678091061097415
2025-03-30 17:15:43.052,-1.99621670498507
2025-03-30 17:15:43.060,12.074089158201534
2025-03-30 17:15:43.061,19.14278885516233
2025-03-30 17:15:43.061,11.870376055646696
2025-03-30 17:15:43.061,-6.167680468761742
2025-03-30 17:15:43.061,-21.98332528094562
2025-03-30 17:15:43.069,-21.897114654326888
2025-03-30 17:15:43.069,-3.2828989680275984
2025-03-30 17:15:43.069,19.86406165226668
2025-03-30 17:15:43.070,26.92145594664568
2025-03-30 17:15:43.077,10.584540595537254
2025-03-30 17:15:43.077,-14.198515349515953
2025-03-30 17:15:43.077,-24.403338201507424
2025-03-30 17:15:43.077,-12.127760240677567
2025-03-30 17:15:43.078,8.30284835963711
2025-03-30 17:15:43.087,16.583598500699964
2025-03-30 17:15:43.087,7.599632671156337
2025-03-30 17:15:43.087,-5.505707093785102
2025-03-30 17:15:43.087,-8.057086527745948
2025-03-30 17:15:43.097,0.16384621966084278
2025-03-30 17:15:43.097,7.060594438777236
2025-03-30 17:15:43.097,3.3829253125167984
2025-03-30 17:15:43.097,-7.141863456010119
2025-03-30 17:15:43.097,-12.280008914639964
2025-03-30 17:15:43.105,-4.449608182805415
2025-03-30 17:15:43.105,10.640284578323675
2025-03-30 17:15:43.105,18.526838781135716
2025-03-30 17:15:43.105,9.84914251605291
2025-03-30 17:15:43.105,-9.704543722811097
2025-03-30 17:15:43.115,-22.9892971928191
2025-03-30 17:15:43.115,-16.265976915704982
2025-03-30 17:15:43.115,6.486732834119599
2025-03-30 17:15:43.115,24.188196196426414
2025-03-30 17:15:43.123,18.501526285415487
2025-03-30 17:15:43.123,-5.060345855914878
2025-03-30 17:15:43.123,-21.24588934536439
2025-03-30 17:15:43.123,-13.527602578567004
2025-03-30 17:15:43.132,6.935829058182933
2025-03-30 17:15:43.133,15.72969185233394
2025-03-30 17:15:43.133,4.536657989823015
2025-03-30 17:15:43.133,-10.617610363787486
2025-03-30 17:15:43.133,-10.49456663583546
2025-03-30 17:15:43.141,3.7455804487576483
2025-03-30 17:15:43.141,12.879107395069624
2025-03-30 17:15:43.141,4.634132643804093
2025-03-30 17:15:43.141,-10.029460541499322
2025-03-30 17:15:43.151,-10.844261823086851
2025-03-30 17:15:43.151,4.620988800877819
2025-03-30 17:15:43.151,16.054934201189415
2025-03-30 17:15:43.151,5.7836496265783515
2025-03-30 17:15:43.151,-16.734044796066154
2025-03-30 17:15:43.159,-23.40694869512852
2025-03-30 17:15:43.159,-1.5308207949115122
2025-03-30 17:15:43.159,27.347870477101935
2025-03-30 17:15:43.159,29.73117821135673
2025-03-30 17:15:43.169,-0.012462818577069656
2025-03-30 17:15:43.169,-30.990039277708142
2025-03-30 17:15:43.169,-30.735365182866065
2025-03-30 17:15:43.169,-1.3641934847338373
2025-03-30 17:15:43.169,25.871673440931374
2025-03-30 17:15:43.177,26.533284728247523
2025-03-30 17:15:43.177,4.93316183747362
2025-03-30 17:15:43.177,-16.632971599077973
2025-03-30 17:15:43.177,-20.961001582775243
2025-03-30 17:15:43.187,-7.766360576181645
2025-03-30 17:15:43.187,9.587782825395914
2025-03-30 17:15:43.187,15.916698415792675
2025-03-30 17:15:43.187,6.929854349806131
2025-03-30 17:15:43.187,-6.972265785300081
2025-03-30 17:15:43.195,-11.304260741742953
2025-03-30 17:15:43.195,-2.938898354571714
2025-03-30 17:15:43.195,7.174499602254023
2025-03-30 17:15:43.196,7.595577306965118
2025-03-30 17:15:43.196,-0.6296239557064199
2025-03-30 17:15:43.205,-7.289310674011271
2025-03-30 17:15:43.205,-6.09936676873844
2025-03-30 17:15:43.205,0.2716588225520241
2025-03-30 17:15:43.205,6.267691430920802
2025-03-30 17:15:43.214,8.378276858945759
2025-03-30 17:15:43.215,4.293282108966592
2025-03-30 17:15:43.215,-5.851596433572604
2025-03-30 17:15:43.215,-14.931902680902256
2025-03-30 17:15:43.215,-11.649647597867684
2025-03-30 17:15:43.223,6.497517440976121
2025-03-30 17:15:43.223,24.873212056649585
2025-03-30 17:15:43.223,22.315263910120045
2025-03-30 17:15:43.223,-5.773817132846764
2025-03-30 17:15:43.233,-36.18288430693496
2025-03-30 17:15:43.233,-36.21400250981274
2025-03-30 17:15:43.233,1.3422197800480313
2025-03-30 17:15:43.233,44.24412312667099
2025-03-30 17:15:43.233,49.31054054814681
2025-03-30 17:15:43.241,7.4700301553809965
2025-03-30 17:15:43.241,-43.63785869189432
2025-03-30 17:15:43.241,-55.709327837447965
2025-03-30 17:15:43.241,-17.976704946456316
2025-03-30 17:15:43.249,32.747420037205565
2025-03-30 17:15:43.249,50.39307032345172
2025-03-30 17:15:43.249,24.759942183655458
2025-03-30 17:15:43.249,-14.371628539862337
2025-03-30 17:15:43.259,-33.36273360528944
2025-03-30 17:15:43.259,-25.373980575136006
2025-03-30 17:15:43.259,-5.261139857847613
2025-03-30 17:15:43.259,12.365951838269616
2025-03-30 17:15:43.259,21.12503717550834
2025-03-30 17:15:43.267,18.068096770254925
2025-03-30 17:15:43.267,3.965977332598189
2025-03-30 17:15:43.267,-12.496582895678348
2025-03-30 17:15:43.267,-19.544912720212935
2025-03-30 17:15:43.276,-13.082218923739346
2025-03-30 17:15:43.277,0.6764458186035633
2025-03-30 17:15:43.277,12.198232557011782
2025-03-30 17:15:43.277,15.23772038888216
2025-03-30 17:15:43.277,8.872517811406308
2025-03-30 17:15:43.285,-2.3398482024360794
2025-03-30 17:15:43.285,-10.465115985864148
2025-03-30 17:15:43.285,-10.193475590254774
2025-03-30 17:15:43.286,-3.8835385988525055
2025-03-30 17:15:43.286,1.299112708640411
2025-03-30 17:15:43.295,1.9900873815543145
2025-03-30 17:15:43.295,2.2989465996729836
2025-03-30 17:15:43.295,6.999852151697459
2025-03-30 17:15:43.295,12.495896828056289
2025-03-30 17:15:43.304,8.446131951872337
2025-03-30 17:15:43.305,-9.151228432622311
2025-03-30 17:15:43.305,-27.934160597841963
2025-03-30 17:15:43.305,-26.79668239456961
2025-03-30 17:15:43.305,1.9349590795511173
2025-03-30 17:15:43.313,37.97482917640128
2025-03-30 17:15:43.313,46.720553575313396
2025-03-30 17:15:43.313,13.52647683108969
2025-03-30 17:15:43.313,-36.37477789029454
2025-03-30 17:15:43.321,-58.04071454851261
2025-03-30 17:15:43.321,-30.381210574529003
2025-03-30 17:15:43.321,21.97688660062626
2025-03-30 17:15:43.322,52.72978442572114
2025-03-30 17:15:43.322,38.78652713580172
2025-03-30 17:15:43.331,-1.3513163176833103
2025-03-30 17:15:43.331,-31.743817936113107
2025-03-30 17:15:43.331,-34.01534997227036
2025-03-30 17:15:43.331,-15.88361680216646
2025-03-30 17:15:43.339,5.812934028640874
2025-03-30 17:15:43.339,20.16538161954408
2025-03-30 17:15:43.339,22.858069318679437
2025-03-30 17:15:43.339,13.12306217239039
2025-03-30 17:15:43.340,-4.520333804568404
2025-03-30 17:15:43.349,-19.31355328620952
2025-03-30 17:15:43.349,-20.508380233342876
2025-03-30 17:15:43.349,-6.829561133604831
2025-03-30 17:15:43.349,10.79204996439762
2025-03-30 17:15:43.357,17.944401547024928
2025-03-30 17:15:43.357,9.923405072687974
2025-03-30 17:15:43.357,-3.927984327714367
2025-03-30 17:15:43.357,-10.009667067770796
2025-03-30 17:15:43.366,-4.483353895883238
2025-03-30 17:15:43.367,3.4414591256463876
2025-03-30 17:15:43.367,2.714715031663898
2025-03-30 17:15:43.367,-5.882073744754732
2025-03-30 17:15:43.367,-9.548300469998612
2025-03-30 17:15:43.375,0.9110769867344595
2025-03-30 17:15:43.375,16.615762388714085
2025-03-30 17:15:43.375,17.293354263324957
2025-03-30 17:15:43.376,-3.7118754765294515
2025-03-30 17:15:43.385,-25.70846186808247
2025-03-30 17:15:43.385,-21.125199807840247
2025-03-30 17:15:43.385,9.36527265955595
2025-03-30 17:15:43.385,32.479259931809075
2025-03-30 17:15:43.385,20.114716676297665
2025-03-30 17:15:43.393,-15.48853843115431
2025-03-30 17:15:43.393,-34.78446820376341
2025-03-30 17:15:43.393,-17.211145596401476
2025-03-30 17:15:43.393,16.2606870121931
2025-03-30 17:15:43.401,30.01245494909749
2025-03-30 17:15:43.401,14.273067209058892
2025-03-30 17:15:43.401,-9.305014274349634
2025-03-30 17:15:43.401,-17.837555551363714
2025-03-30 17:15:43.402,-11.160117539995134
2025-03-30 17:15:43.411,-2.864485411160436
2025-03-30 17:15:43.411,1.6142911815169667
2025-03-30 17:15:43.411,7.449743092200841
2025-03-30 17:15:43.412,14.797350003808594
2025-03-30 17:15:43.412,13.348219164283568
2025-03-30 17:15:43.421,-2.5292425002102923
2025-03-30 17:15:43.421,-20.78779922527669
2025-03-30 17:15:43.421,-22.37129537806609
2025-03-30 17:15:43.421,-3.7101571396829587
2025-03-30 17:15:43.429,17.99554675736907
2025-03-30 17:15:43.429,23.22232889813398
2025-03-30 17:15:43.429,9.515355813992667
2025-03-30 17:15:43.429,-8.893996391903341
2025-03-30 17:15:43.439,-16.958465122544915
2025-03-30 17:15:43.439,-11.589667541122676
2025-03-30 17:15:43.439,-0.6438372757897853
2025-03-30 17:15:43.439,7.008295850678009
2025-03-30 17:15:43.439,8.554884976381244
2025-03-30 17:15:43.449,6.066831849863261
2025-03-30 17:15:43.449,2.0014699040626667
2025-03-30 17:15:43.449,-2.4302433189361135
2025-03-30 17:15:43.449,-6.154850395197195
2025-03-30 17:15:43.449,-7.2240931324202124
2025-03-30 17:15:43.457,-3.5143312723871287
2025-03-30 17:15:43.457,4.043663695783131
2025-03-30 17:15:43.457,9.060329268578458
2025-03-30 17:15:43.457,5.015091065708916
2025-03-30 17:15:43.467,-4.794221829454164
2025-03-30 17:15:43.467,-8.22336380815248
2025-03-30 17:15:43.467,0.1638675491039997
2025-03-30 17:15:43.467,9.666678312072259
2025-03-30 17:15:43.467,6.2731856333596205
2025-03-30 17:15:43.475,-8.054665968681368
2025-03-30 17:15:43.475,-16.22997789113587
2025-03-30 17:15:43.475,-6.511659859554151
2025-03-30 17:15:43.475,12.953946438324602
2025-03-30 17:15:43.484,22.067841357335222
2025-03-30 17:15:43.485,9.701207977205875
2025-03-30 17:15:43.485,-13.915441372011216
2025-03-30 17:15:43.485,-25.777725938986336
2025-03-30 17:15:43.485,-12.799418348745206
2025-03-30 17:15:43.493,13.301778015971506
2025-03-30 17:15:43.493,26.408259364166152
2025-03-30 17:15:43.493,13.30739724886158
2025-03-30 17:15:43.493,-11.852288948567448
2025-03-30 17:15:43.501,-23.273085423109706
2025-03-30 17:15:43.501,-11.49296351051496
2025-03-30 17:15:43.501,8.494516183725349
2025-03-30 17:15:43.502,16.300988092212204
2025-03-30 17:15:43.502,8.065259312935355
2025-03-30 17:15:43.511,-3.336045455359475
2025-03-30 17:15:43.511,-6.369083936237947
2025-03-30 17:15:43.511,-3.09159028724763
2025-03-30 17:15:43.512,-1.925922986348184
2025-03-30 17:15:43.512,-3.938786892435818
2025-03-30 17:15:43.521,-2.587546177641784
2025-03-30 17:15:43.521,4.564229318491719
2025-03-30 17:15:43.521,10.820300440335894
2025-03-30 17:15:43.521,8.63934719747645
2025-03-30 17:15:43.531,-1.592887160610271
2025-03-30 17:15:43.531,-12.425579640218176
2025-03-30 17:15:43.531,-15.507498307949364
2025-03-30 17:15:43.531,-6.85604869895295
2025-03-30 17:15:43.531,9.275073705012481
2025-03-30 17:15:43.539,20.615943530778292
2025-03-30 17:15:43.539,15.954723684655345
2025-03-30 17:15:43.539,-2.5847906062672235
2025-03-30 17:15:43.539,-19.132152339899562
2025-03-30 17:15:43.547,-19.389543428515186
2025-03-30 17:15:43.547,-4.953482582786186
2025-03-30 17:15:43.547,10.099298039327191
2025-03-30 17:15:43.547,14.684157551159986
2025-03-30 17:15:43.548,9.271289828115341
2025-03-30 17:15:43.557,0.9408599342624442
2025-03-30 17:15:43.557,-5.001616196818194
2025-03-30 17:15:43.557,-7.449525459446657
2025-03-30 17:15:43.557,-7.010073942928122
2025-03-30 17:15:43.567,-3.9965910251806296
2025-03-30 17:15:43.567,0.919272997237657
2025-03-30 17:15:43.567,5.498815125708306
2025-03-30 17:15:43.567,7.029783720738894
2025-03-30 17:15:43.567,4.907140772994158
2025-03-30 17:15:43.575,1.005657371540835
2025-03-30 17:15:43.575,-2.634585767643528
2025-03-30 17:15:43.575,-5.129948426561422
2025-03-30 17:15:43.575,-5.884691523791967
2025-03-30 17:15:43.585,-4.447537831555993
2025-03-30 17:15:43.585,-1.4427346966624208
2025-03-30 17:15:43.585,2.3992879108753966
2025-03-30 17:15:43.585,7.51408549265091
2025-03-30 17:15:43.585,12.30743814301771
2025-03-30 17:15:43.593,9.912454893548281
2025-03-30 17:15:43.593,-4.657134364174355
2025-03-30 17:15:43.593,-22.283718953639493
2025-03-30 17:15:43.593,-23.523051944619173
2025-03-30 17:15:43.602,-1.336082660119441
2025-03-30 17:15:43.603,25.644674257202542
2025-03-30 17:15:43.603,30.603424616670637
2025-03-30 17:15:43.603,7.64871468483102
2025-03-30 17:15:43.603,-21.760132630013917
2025-03-30 17:15:43.611,-30.55157033590908
2025-03-30 17:15:43.611,-11.558233824295566
2025-03-30 17:15:43.611,16.571290442495982
2025-03-30 17:15:43.611,26.912524923618527
2025-03-30 17:15:43.619,10.240532000024363
2025-03-30 17:15:43.619,-15.064604475424648
2025-03-30 17:15:43.619,-21.98915015981125
2025-03-30 17:15:43.620,-4.392285640259078
2025-03-30 17:15:43.629,16.7784177471956
2025-03-30 17:15:43.629,17.972780431908305
2025-03-30 17:15:43.629,-1.347156349067915
2025-03-30 17:15:43.629,-20.07583965270038
2025-03-30 17:15:43.629,-18.323201045232615
2025-03-30 17:15:43.637,3.405095243411934
2025-03-30 17:15:43.637,24.55033570320549
2025-03-30 17:15:43.637,23.050281328978592
2025-03-30 17:15:43.638,-2.291634529501696
2025-03-30 17:15:43.647,-27.359187271524554
2025-03-30 17:15:43.647,-26.02172330692488
2025-03-30 17:15:43.647,0.5682964439438161
2025-03-30 17:15:43.647,23.966562618306835
2025-03-30 17:15:43.647,20.820067970071115
2025-03-30 17:15:43.655,-0.974691575765394
2025-03-30 17:15:43.655,-14.423487428711079
2025-03-30 17:15:43.655,-7.160971631405207
2025-03-30 17:15:43.655,6.018676094948198
2025-03-30 17:15:43.656,4.97793260304292
2025-03-30 17:15:43.665,-9.484425770145704
2025-03-30 17:15:43.665,-16.841743835820825
2025-03-30 17:15:43.665,-2.4121586197464246
2025-03-30 17:15:43.665,22.767485548751363
2025-03-30 17:15:43.673,30.728255936380968
2025-03-30 17:15:43.673,7.118953280779259
2025-03-30 17:15:43.673,-28.622724818811957
2025-03-30 17:15:43.673,-39.87286718149271
2025-03-30 17:15:43.682,-12.853387121310814
2025-03-30 17:15:43.683,25.665898794183192
2025-03-30 17:15:43.683,36.97204224697638
2025-03-30 17:15:43.683,13.106717000615031
2025-03-30 17:15:43.683,-16.822620696339126
2025-03-30 17:15:43.691,-22.382475697971945
2025-03-30 17:15:43.691,-5.217885148662014
2025-03-30 17:15:43.691,8.337066810540204
2025-03-30 17:15:43.691,2.815859577710174
2025-03-30 17:15:43.701,-8.438734287287142
2025-03-30 17:15:43.701,-4.384404092266646
2025-03-30 17:15:43.701,13.202277345628397
2025-03-30 17:15:43.701,21.0757770307366
2025-03-30 17:15:43.701,5.440399509975201
2025-03-30 17:15:43.709,-19.154308198603122
2025-03-30 17:15:43.709,-26.774165722978278
2025-03-30 17:15:43.709,-9.638306317126055
2025-03-30 17:15:43.709,15.221548934083776
2025-03-30 17:15:43.717,25.36838945361076
2025-03-30 17:15:43.717,13.598951586800684
2025-03-30 17:15:43.717,-8.384073894743198
