timestamp,bandpass_and_notch
2025-03-30 17:23:23.232,-0.3053809904690691
2025-03-30 17:23:23.232,3.738060155971267
2025-03-30 17:23:23.232,2.0951755001712753
2025-03-30 17:23:23.232,-10.47277466658133
2025-03-30 17:23:23.241,-25.98828283817627
2025-03-30 17:23:23.242,-21.57277756512822
2025-03-30 17:23:23.242,12.525083119820145
2025-03-30 17:23:23.242,48.41778826380687
2025-03-30 17:23:23.242,43.775697067833526
2025-03-30 17:23:23.250,-6.440588709672436
2025-03-30 17:23:23.250,-56.66136915333572
2025-03-30 17:23:23.250,-58.1144154119453
2025-03-30 17:23:23.251,-10.797628889972284
2025-03-30 17:23:23.258,40.4293420019546
2025-03-30 17:23:23.258,54.827407243374125
2025-03-30 17:23:23.259,30.397848246724262
2025-03-30 17:23:23.259,-6.333459000606133
2025-03-30 17:23:23.259,-30.66423381310976
2025-03-30 17:23:23.268,-34.56895354090812
2025-03-30 17:23:23.268,-21.56385144896414
2025-03-30 17:23:23.268,0.7780824458232788
2025-03-30 17:23:23.268,21.924969394422988
2025-03-30 17:23:23.276,30.065976753204737
2025-03-30 17:23:23.276,19.623825854111118
2025-03-30 17:23:23.276,-2.3009497803799333
2025-03-30 17:23:23.277,-19.9182312067121
2025-03-30 17:23:23.286,-21.581689214285266
2025-03-30 17:23:23.286,-9.486831019043613
2025-03-30 17:23:23.286,3.5784340424640306
2025-03-30 17:23:23.286,7.525643924877278
2025-03-30 17:23:23.286,4.497473053783479
2025-03-30 17:23:23.296,3.902492454192405
2025-03-30 17:23:23.296,8.646353821845914
2025-03-30 17:23:23.296,10.13197700578329
2025-03-30 17:23:23.296,-0.1395816609919719
2025-03-30 17:23:23.296,-16.499533387746606
2025-03-30 17:23:23.304,-22.12099055295629
2025-03-30 17:23:23.304,-7.973125364126765
2025-03-30 17:23:23.304,14.656812206556792
2025-03-30 17:23:23.305,24.384272625696358
2025-03-30 17:23:23.314,12.22957638224111
2025-03-30 17:23:23.314,-8.935895602450067
2025-03-30 17:23:23.314,-18.49019438637437
2025-03-30 17:23:23.314,-9.567911498927073
2025-03-30 17:23:23.315,5.583882236064897
2025-03-30 17:23:23.322,10.796763832312184
2025-03-30 17:23:23.322,3.4327271281354386
2025-03-30 17:23:23.322,-5.070101111730017
2025-03-30 17:23:23.323,-4.322837714159865
2025-03-30 17:23:23.323,2.993823462826743
2025-03-30 17:23:23.332,5.845612846621237
2025-03-30 17:23:23.332,-0.6819180451265499
2025-03-30 17:23:23.332,-9.035861853551731
2025-03-30 17:23:23.333,-8.102323304743361
2025-03-30 17:23:23.342,3.375615588887736
2025-03-30 17:23:23.342,14.133832824727836
2025-03-30 17:23:23.342,11.865927931322405
2025-03-30 17:23:23.342,-2.9188966347886076
2025-03-30 17:23:23.343,-16.041977475539966
2025-03-30 17:23:23.350,-14.240356466794815
2025-03-30 17:23:23.350,0.27404209478414243
2025-03-30 17:23:23.350,12.403937672305478
2025-03-30 17:23:23.351,11.27329583308838
2025-03-30 17:23:23.351,1.3714052238038277
2025-03-30 17:23:23.360,-4.988182471762448
2025-03-30 17:23:23.360,-3.0351640667799256
2025-03-30 17:23:23.360,0.6169232707579853
2025-03-30 17:23:23.360,-1.2423648896350423
2025-03-30 17:23:23.370,-6.211134427854546
2025-03-30 17:23:23.370,-5.623685549561231
2025-03-30 17:23:23.370,3.3012648411700116
2025-03-30 17:23:23.370,12.151626921719608
2025-03-30 17:23:23.370,10.275082275873746
2025-03-30 17:23:23.378,-2.10441068948413
2025-03-30 17:23:23.378,-12.889629363094087
2025-03-30 17:23:23.378,-11.453078532077942
2025-03-30 17:23:23.379,-0.2861322339205201
2025-03-30 17:23:23.379,9.173706139901075
2025-03-30 17:23:23.388,9.831664098702186
2025-03-30 17:23:23.388,3.9115435037443023
2025-03-30 17:23:23.388,-3.4833977904051383
2025-03-30 17:23:23.388,-9.290410712142508
2025-03-30 17:23:23.398,-10.030517352146838
2025-03-30 17:23:23.398,-1.852637371385149
2025-03-30 17:23:23.398,11.766200613906289
2025-03-30 17:23:23.398,17.562344284589543
2025-03-30 17:23:23.399,5.881802537618107
2025-03-30 17:23:23.406,-14.370733280932726
2025-03-30 17:23:23.406,-22.186919819872557
2025-03-30 17:23:23.407,-8.38260484617534
2025-03-30 17:23:23.407,12.928635174461302
2025-03-30 17:23:23.407,20.518491039823125
2025-03-30 17:23:23.416,9.148112825287026
2025-03-30 17:23:23.416,-7.749123927972819
2025-03-30 17:23:23.416,-14.742395847793684
2025-03-30 17:23:23.416,-8.424270475189108
2025-03-30 17:23:23.425,3.340611252059376
2025-03-30 17:23:23.426,10.402568689291488
2025-03-30 17:23:23.426,7.689519962470723
2025-03-30 17:23:23.426,-2.0651386801131095
2025-03-30 17:23:23.426,-10.196389186861573
2025-03-30 17:23:23.434,-8.700745305827878
2025-03-30 17:23:23.434,1.9557158135085113
2025-03-30 17:23:23.434,11.769375328756425
2025-03-30 17:23:23.435,10.55879210412896
2025-03-30 17:23:23.444,-0.8297428975703776
2025-03-30 17:23:23.444,-10.896866622029505
2025-03-30 17:23:23.444,-10.188512306400378
2025-03-30 17:23:23.444,-1.1493806546575795
2025-03-30 17:23:23.445,6.536360331763199
2025-03-30 17:23:23.454,7.4030988497980825
2025-03-30 17:23:23.454,3.345564763990724
2025-03-30 17:23:23.454,-2.081504831326708
2025-03-30 17:23:23.454,-6.568798355390195
2025-03-30 17:23:23.454,-6.626186817947701
2025-03-30 17:23:23.462,0.7381690252197821
2025-03-30 17:23:23.462,10.937823671578734
2025-03-30 17:23:23.463,12.196309771445303
2025-03-30 17:23:23.463,-1.1344460095680458
2025-03-30 17:23:23.463,-17.90370705373632
2025-03-30 17:23:23.472,-19.211288699696386
2025-03-30 17:23:23.472,-0.04238417887342083
2025-03-30 17:23:23.472,22.078069773241566
2025-03-30 17:23:23.472,24.107600881937458
2025-03-30 17:23:23.480,2.7457823032019695
2025-03-30 17:23:23.480,-20.805990124289316
2025-03-30 17:23:23.480,-23.154106341541766
2025-03-30 17:23:23.481,-3.7369369143342266
2025-03-30 17:23:23.490,15.57478932686351
2025-03-30 17:23:23.490,15.669329283508265
2025-03-30 17:23:23.490,0.7836859210976759
2025-03-30 17:23:23.490,-9.291446325474292
2025-03-30 17:23:23.491,-4.521068738291796
2025-03-30 17:23:23.498,4.7101909896492415
2025-03-30 17:23:23.498,3.847808215263866
2025-03-30 17:23:23.498,-5.737368961469597
2025-03-30 17:23:23.499,-9.507166057997134
2025-03-30 17:23:23.508,-0.24457534938775144
2025-03-30 17:23:23.508,11.82210228116538
2025-03-30 17:23:23.508,11.916683607842423
2025-03-30 17:23:23.508,-0.9783331322618252
2025-03-30 17:23:23.508,-13.15583461673888
2025-03-30 17:23:23.516,-12.175596573698241
2025-03-30 17:23:23.516,0.08017504615596327
2025-03-30 17:23:23.516,10.92979862623697
2025-03-30 17:23:23.517,10.670497106619369
2025-03-30 17:23:23.517,1.2773240436062978
2025-03-30 17:23:23.526,-7.176220428006787
2025-03-30 17:23:23.526,-7.104848778720003
2025-03-30 17:23:23.526,-0.5057422310938444
2025-03-30 17:23:23.527,4.067088731148584
2025-03-30 17:23:23.536,1.56184883313359
2025-03-30 17:23:23.536,-3.5400662080166883
2025-03-30 17:23:23.536,-2.905707013388867
2025-03-30 17:23:23.536,4.365860922575982
2025-03-30 17:23:23.537,9.22086909702133
2025-03-30 17:23:23.546,3.5411361196168873
2025-03-30 17:23:23.546,-8.407764316085707
2025-03-30 17:23:23.546,-13.355940751446237
2025-03-30 17:23:23.546,-4.633853211988428
2025-03-30 17:23:23.546,9.060525281586363
2025-03-30 17:23:23.554,13.299195758401215
2025-03-30 17:23:23.554,4.535411224304393
2025-03-30 17:23:23.554,-6.532763526859766
2025-03-30 17:23:23.555,-8.380946607741791
2025-03-30 17:23:23.564,-1.8610458202838127
2025-03-30 17:23:23.564,2.726135338505171
2025-03-30 17:23:23.564,0.02637494773697069
2025-03-30 17:23:23.564,-3.5533009266211706
2025-03-30 17:23:23.565,0.30989906418139423
2025-03-30 17:23:23.574,8.66982986311276
2025-03-30 17:23:23.574,9.632979201748217
2025-03-30 17:23:23.574,-1.4991664793476813
2025-03-30 17:23:23.574,-13.953337459334618
2025-03-30 17:23:23.574,-13.497767884369523
2025-03-30 17:23:23.582,0.2852504994795949
2025-03-30 17:23:23.582,13.716184624304276
2025-03-30 17:23:23.582,14.691127931930852
2025-03-30 17:23:23.583,3.7412568273686437
2025-03-30 17:23:23.592,-9.581566364037455
2025-03-30 17:23:23.592,-15.499457112913968
2025-03-30 17:23:23.592,-9.254173534352898
2025-03-30 17:23:23.592,5.490770476908073
2025-03-30 17:23:23.593,16.468721813005043
2025-03-30 17:23:23.600,12.454546922894357
2025-03-30 17:23:23.600,-3.381012590431168
2025-03-30 17:23:23.600,-14.754492304307094
2025-03-30 17:23:23.600,-10.579901001567967
2025-03-30 17:23:23.610,2.3925830297307273
2025-03-30 17:23:23.610,9.275601589873462
2025-03-30 17:23:23.610,5.198213212660323
2025-03-30 17:23:23.610,-1.8045208547149287
2025-03-30 17:23:23.610,-3.5304242939813495
2025-03-30 17:23:23.620,-0.5886276827492939
2025-03-30 17:23:23.620,1.7883302981569762
2025-03-30 17:23:23.620,1.285125377013338
2025-03-30 17:23:23.621,-0.6294067552564788
2025-03-30 17:23:23.621,-2.02155363845003
2025-03-30 17:23:23.630,-2.039373129557305
2025-03-30 17:23:23.630,-0.6841855789320038
2025-03-30 17:23:23.630,1.2362143242324666
2025-03-30 17:23:23.631,2.5713174430023327
2025-03-30 17:23:23.631,2.74697004998863
2025-03-30 17:23:23.640,1.5639406556322697
2025-03-30 17:23:23.640,-1.3414580572915022
2025-03-30 17:23:23.640,-5.0772199643808635
2025-03-30 17:23:23.640,-6.011446620269708
2025-03-30 17:23:23.641,-0.8187441169688012
2025-03-30 17:23:23.650,7.668684781935549
2025-03-30 17:23:23.650,10.663093503641553
2025-03-30 17:23:23.650,2.849592451296676
2025-03-30 17:23:23.650,-9.522565259505981
2025-03-30 17:23:23.651,-13.762973581407175
2025-03-30 17:23:23.658,-4.701614129993534
2025-03-30 17:23:23.659,9.107967772079572
2025-03-30 17:23:23.659,14.318764663510299
2025-03-30 17:23:23.659,6.372772085934719
2025-03-30 17:23:23.659,-6.556144020606784
2025-03-30 17:23:23.668,-12.109758184776853
2025-03-30 17:23:23.668,-5.946491684875526
2025-03-30 17:23:23.669,4.090929428011599
2025-03-30 17:23:23.669,6.741996400441274
2025-03-30 17:23:23.678,0.6049688691276379
2025-03-30 17:23:23.678,-4.031481878479157
2025-03-30 17:23:23.678,1.0225692275098868
2025-03-30 17:23:23.679,9.416908168105952
2025-03-30 17:23:23.679,7.268885315615294
2025-03-30 17:23:23.688,-7.562991881172948
2025-03-30 17:23:23.688,-19.615787533845207
2025-03-30 17:23:23.688,-13.018579644439672
2025-03-30 17:23:23.688,8.793825401448967
2025-03-30 17:23:23.689,25.0687096299352
2025-03-30 17:23:23.696,19.18094928758033
2025-03-30 17:23:23.696,-4.3487375816128
2025-03-30 17:23:23.696,-24.3138095858461
2025-03-30 17:23:23.697,-23.002395987718202
2025-03-30 17:23:23.706,-2.315202415348991
2025-03-30 17:23:23.706,18.821255999447175
2025-03-30 17:23:23.706,22.529315136554462
2025-03-30 17:23:23.706,7.72490858749946
2025-03-30 17:23:23.706,-11.085149363730798
2025-03-30 17:23:23.714,-18.492589768073003
2025-03-30 17:23:23.714,-10.598405677857084
2025-03-30 17:23:23.715,4.428861473381111
2025-03-30 17:23:23.715,14.178247660151953
2025-03-30 17:23:23.724,10.980963365139697
2025-03-30 17:23:23.724,-2.1540349291485756
2025-03-30 17:23:23.724,-12.719026331268575
2025-03-30 17:23:23.724,-9.492526392518622
2025-03-30 17:23:23.724,4.868326657445657
2025-03-30 17:23:23.732,14.553416335203336
2025-03-30 17:23:23.732,7.542348309690979
2025-03-30 17:23:23.732,-9.515785573398956
2025-03-30 17:23:23.732,-17.49511874594837
2025-03-30 17:23:23.742,-6.446405396164363
2025-03-30 17:23:23.742,12.431469290812759
2025-03-30 17:23:23.742,18.86054647156383
2025-03-30 17:23:23.742,5.933930749068468
2025-03-30 17:23:23.742,-12.513271412535191
2025-03-30 17:23:23.750,-17.484710044577163
2025-03-30 17:23:23.750,-5.149340067247804
2025-03-30 17:23:23.751,10.661145726566748
2025-03-30 17:23:23.751,14.617717293391319
2025-03-30 17:23:23.760,4.884645793826351
2025-03-30 17:23:23.760,-8.008654427296051
2025-03-30 17:23:23.760,-12.92203022805548
2025-03-30 17:23:23.760,-6.698801789923468
2025-03-30 17:23:23.761,5.250002681374246
2025-03-30 17:23:23.768,13.27207831466356
2025-03-30 17:23:23.768,10.281617909830214
2025-03-30 17:23:23.769,-1.910404276489899
2025-03-30 17:23:23.769,-13.037408093235925
2025-03-30 17:23:23.769,-13.470164530496966
2025-03-30 17:23:23.778,-3.214438841512443
2025-03-30 17:23:23.778,8.95527817520768
2025-03-30 17:23:23.779,14.184505115699798
2025-03-30 17:23:23.779,9.848420907347206
2025-03-30 17:23:23.788,-0.8961133418285918
2025-03-30 17:23:23.788,-11.840879237862074
2025-03-30 17:23:23.788,-15.618606322927363
2025-03-30 17:23:23.788,-7.685178746417971
2025-03-30 17:23:23.788,7.652080825133245
2025-03-30 17:23:23.796,17.641800590258875
2025-03-30 17:23:23.796,12.580011193731583
2025-03-30 17:23:23.796,-3.004584990733763
2025-03-30 17:23:23.797,-14.492123237119518
2025-03-30 17:23:23.806,-12.747295581524233
2025-03-30 17:23:23.806,-2.0012452023163765
2025-03-30 17:23:23.806,7.635550570789358
2025-03-30 17:23:23.806,10.604119064947728
2025-03-30 17:23:23.807,7.314662250240523
2025-03-30 17:23:23.816,0.07917461276240997
2025-03-30 17:23:23.816,-8.05127489449648
2025-03-30 17:23:23.816,-12.105247927465047
2025-03-30 17:23:23.816,-7.382485818118277
2025-03-30 17:23:23.817,4.941868019108881
2025-03-30 17:23:23.824,15.596936898861786
2025-03-30 17:23:23.824,13.79898336323
2025-03-30 17:23:23.824,-1.3375862570563528
2025-03-30 17:23:23.825,-16.899817553749536
2025-03-30 17:23:23.834,-17.441455580255596
2025-03-30 17:23:23.834,-1.68406086151527
2025-03-30 17:23:23.834,14.86759902940293
2025-03-30 17:23:23.834,16.34788873245604
2025-03-30 17:23:23.834,3.3397947510239483
2025-03-30 17:23:23.842,-9.577885997285877
2025-03-30 17:23:23.842,-11.049955485040869
2025-03-30 17:23:23.842,-3.4812680044843676
2025-03-30 17:23:23.843,3.2873705335217673
2025-03-30 17:23:23.852,4.138048568183969
2025-03-30 17:23:23.852,2.0237050242619805
2025-03-30 17:23:23.852,1.488832900706981
2025-03-30 17:23:23.853,2.2484724197131785
2025-03-30 17:23:23.853,0.4405307858768276
2025-03-30 17:23:23.862,-4.64491466383866
2025-03-30 17:23:23.862,-7.446939714199523
2025-03-30 17:23:23.862,-2.2670000528722842
2025-03-30 17:23:23.862,7.69566735467376
2025-03-30 17:23:23.862,11.28140945866284
2025-03-30 17:23:23.870,2.349674323931866
2025-03-30 17:23:23.870,-10.616443463162321
2025-03-30 17:23:23.871,-12.859987964309523
2025-03-30 17:23:23.871,-1.3505426853916316
2025-03-30 17:23:23.871,10.932964817791555
2025-03-30 17:23:23.880,10.989401349101334
2025-03-30 17:23:23.880,1.0225290103494429
2025-03-30 17:23:23.880,-6.689287521140728
2025-03-30 17:23:23.880,-6.160342856108151
2025-03-30 17:23:23.890,-2.3810176896454234
2025-03-30 17:23:23.890,-0.8115980642495622
2025-03-30 17:23:23.890,0.4646350228576125
2025-03-30 17:23:23.890,4.959036470466324
2025-03-30 17:23:23.890,8.926549198513742
2025-03-30 17:23:23.898,4.4609805380533905
2025-03-30 17:23:23.898,-8.034750288895786
2025-03-30 17:23:23.898,-15.823691128895726
2025-03-30 17:23:23.898,-7.481060366728038
2025-03-30 17:23:23.906,10.783648406486655
2025-03-30 17:23:23.907,19.127260715917124
2025-03-30 17:23:23.907,7.283642960705269
2025-03-30 17:23:23.907,-11.694063378299667
2025-03-30 17:23:23.907,-16.56701938911678
2025-03-30 17:23:23.916,-3.5868699123375736
2025-03-30 17:23:23.916,10.221125006679314
2025-03-30 17:23:23.916,9.331221101236764
2025-03-30 17:23:23.917,-2.135754413463019
2025-03-30 17:23:23.926,-8.134777527572801
2025-03-30 17:23:23.926,-1.6408963965310313
2025-03-30 17:23:23.926,7.940103533351798
2025-03-30 17:23:23.926,7.680040610046639
2025-03-30 17:23:23.926,-3.1257951481695523
2025-03-30 17:23:23.934,-12.372222296912607
2025-03-30 17:23:23.934,-8.999509437031445
2025-03-30 17:23:23.935,4.499430538203823
2025-03-30 17:23:23.935,14.283852004723924
2025-03-30 17:23:23.935,9.88818924376248
2025-03-30 17:23:23.944,-4.1505148059151855
2025-03-30 17:23:23.944,-12.9586982044007
2025-03-30 17:23:23.944,-7.879061017090522
2025-03-30 17:23:23.944,3.947094762933809
2025-03-30 17:23:23.954,8.656946483049397
2025-03-30 17:23:23.954,2.4990393897984555
2025-03-30 17:23:23.954,-4.578368721669704
2025-03-30 17:23:23.955,-2.8149597169377074
2025-03-30 17:23:23.955,4.418729884983933
2025-03-30 17:23:23.964,5.612335098582405
2025-03-30 17:23:23.964,-2.7211945505588213
2025-03-30 17:23:23.964,-10.28224147164871
2025-03-30 17:23:23.964,-5.888853941089619
2025-03-30 17:23:23.965,7.080071961650081
2025-03-30 17:23:23.974,13.248296180999962
2025-03-30 17:23:23.974,4.103975316545304
2025-03-30 17:23:23.974,-10.324667734870754
2025-03-30 17:23:23.974,-12.876018565578
2025-03-30 17:23:23.974,-0.3614301449958479
2025-03-30 17:23:23.982,12.273663227035538
2025-03-30 17:23:23.982,10.226947512391325
2025-03-30 17:23:23.982,-3.4047698733568064
2025-03-30 17:23:23.983,-12.23116745410692
2025-03-30 17:23:23.992,-6.809386738548783
2025-03-30 17:23:23.992,5.083042008403604
2025-03-30 17:23:23.992,9.607282817355106
2025-03-30 17:23:23.992,3.551656937017114
2025-03-30 17:23:23.993,-4.177642065470009
2025-03-30 17:23:24.002,-5.28417018721875
2025-03-30 17:23:24.002,-0.9896933139775754
2025-03-30 17:23:24.002,2.2912134601141423
2025-03-30 17:23:24.002,1.7030996996734813
2025-03-30 17:23:24.003,-0.3722344998878484
2025-03-30 17:23:24.012,-1.172615275393444
2025-03-30 17:23:24.012,-0.7324872260425438
2025-03-30 17:23:24.012,-0.12931594214558265
2025-03-30 17:23:24.012,0.7512970022346047
2025-03-30 17:23:24.013,2.133481390019103
2025-03-30 17:23:24.020,2.567774046048333
2025-03-30 17:23:24.020,0.3901424768892703
2025-03-30 17:23:24.021,-3.3661429417933633
2025-03-30 17:23:24.021,-5.340589520238146
2025-03-30 17:23:24.021,-3.3855601482343682
2025-03-30 17:23:24.032,1.35782071394819
2025-03-30 17:23:24.032,5.797803566531752
2025-03-30 17:23:24.032,7.123239477989885
2025-03-30 17:23:24.032,4.032159664020818
2025-03-30 17:23:24.032,-2.374577850625736
2025-03-30 17:23:24.040,-8.29964499391492
2025-03-30 17:23:24.040,-9.320729124535603
2025-03-30 17:23:24.041,-3.9873310136986846
2025-03-30 17:23:24.041,4.710863854810235
2025-03-30 17:23:24.041,11.274163446831984
2025-03-30 17:23:24.050,10.808116082868052
2025-03-30 17:23:24.050,2.0624232929316495
2025-03-30 17:23:24.050,-9.974044066851565
2025-03-30 17:23:24.051,-15.507398265915059
2025-03-30 17:23:24.060,-8.154832506023421
2025-03-30 17:23:24.060,6.9183088970765905
2025-03-30 17:23:24.060,16.207836616701684
2025-03-30 17:23:24.061,11.297996672882446
2025-03-30 17:23:24.061,-2.6574624085101695
2025-03-30 17:23:24.068,-12.981574215629092
2025-03-30 17:23:24.068,-11.903993742906101
2025-03-30 17:23:24.069,-2.020717182963133
2025-03-30 17:23:24.069,7.848910697065361
2025-03-30 17:23:24.078,10.296556029892674
2025-03-30 17:23:24.078,4.825822339365646
2025-03-30 17:23:24.078,-2.376492488137268
2025-03-30 17:23:24.078,-5.148245275925919
2025-03-30 17:23:24.079,-3.9246486440926236
2025-03-30 17:23:24.088,-3.358113637453525
2025-03-30 17:23:24.088,-3.887846585534908
2025-03-30 17:23:24.088,-0.38948053558522655
2025-03-30 17:23:24.088,8.598956281309794
2025-03-30 17:23:24.089,14.549914785130106
2025-03-30 17:23:24.096,7.078766620234784
2025-03-30 17:23:24.096,-11.49460197838543
2025-03-30 17:23:24.096,-24.008011667840606
2025-03-30 17:23:24.097,-14.874697637863935
2025-03-30 17:23:24.104,11.11850951491201
2025-03-30 17:23:24.104,29.908683567296602
2025-03-30 17:23:24.105,21.550299726512737
2025-03-30 17:23:24.105,-7.805677566707466
2025-03-30 17:23:24.105,-30.42360421603434
2025-03-30 17:23:24.114,-24.802388816674714
2025-03-30 17:23:24.114,2.7363441324527296
2025-03-30 17:23:24.114,25.464552626141515
2025-03-30 17:23:24.115,23.564609328273065
2025-03-30 17:23:24.122,2.1088794863401663
2025-03-30 17:23:24.122,-17.09507329480439
2025-03-30 17:23:24.123,-18.315357171898825
2025-03-30 17:23:24.123,-4.926779001836059
2025-03-30 17:23:24.123,8.180571189212737
2025-03-30 17:23:24.132,10.984526275584914
2025-03-30 17:23:24.132,5.2611297549389855
2025-03-30 17:23:24.133,-1.5837783873886169
2025-03-30 17:23:24.133,-4.630543517774538
2025-03-30 17:23:24.142,-3.327023932289833
2025-03-30 17:23:24.142,-0.044295434011857426
2025-03-30 17:23:24.142,1.3222559847368591
2025-03-30 17:23:24.143,-1.0605061150914032
2025-03-30 17:23:24.143,-3.203878737347943
2025-03-30 17:23:24.152,0.4518670394964738
2025-03-30 17:23:24.152,7.1723767862547785
2025-03-30 17:23:24.152,6.639871409244727
2025-03-30 17:23:24.152,-4.01772890056926
2025-03-30 17:23:24.153,-12.39880368883274
2025-03-30 17:23:24.160,-5.812627215835514
2025-03-30 17:23:24.161,9.785371371251555
2025-03-30 17:23:24.161,15.167081693891689
2025-03-30 17:23:24.161,2.230430231010158
2025-03-30 17:23:24.161,-14.980449664241934
2025-03-30 17:23:24.170,-16.756134198572116
2025-03-30 17:23:24.170,-0.43586911518758864
2025-03-30 17:23:24.171,17.139812680083267
2025-03-30 17:23:24.171,18.13598066417167
2025-03-30 17:23:24.180,1.9037137755079376
2025-03-30 17:23:24.180,-15.380660954720328
2025-03-30 17:23:24.180,-17.736318189704377
2025-03-30 17:23:24.180,-4.76828283004167
2025-03-30 17:23:24.181,10.01350358831069
2025-03-30 17:23:24.188,14.148797299968559
2025-03-30 17:23:24.188,6.96279238522401
2025-03-30 17:23:24.189,-3.4104775054945504
2025-03-30 17:23:24.189,-9.131836585753408
2025-03-30 17:23:24.189,-7.3689733213239546
2025-03-30 17:23:24.198,-0.2980534201244492
2025-03-30 17:23:24.198,6.038793549590927
2025-03-30 17:23:24.199,5.5456530709961775
2025-03-30 17:23:24.199,-1.3023459591773814
2025-03-30 17:23:24.208,-6.177113806709313
2025-03-30 17:23:24.208,-2.220736183209251
2025-03-30 17:23:24.208,6.258074905286759
2025-03-30 17:23:24.209,8.034808266953943
2025-03-30 17:23:24.209,-0.487417771678059
2025-03-30 17:23:24.218,-9.759488182764878
2025-03-30 17:23:24.218,-8.883974844727385
2025-03-30 17:23:24.219,0.7110772356956799
2025-03-30 17:23:24.219,7.923021193158605
2025-03-30 17:23:24.219,6.534392163913492
2025-03-30 17:23:24.228,1.3568341238137962
2025-03-30 17:23:24.228,-0.9978443063459833
2025-03-30 17:23:24.228,-1.317088319379776
2025-03-30 17:23:24.228,-3.5978398978226553
2025-03-30 17:23:24.229,-6.175348912078046
2025-03-30 17:23:24.238,-3.6131322438222373
2025-03-30 17:23:24.238,3.7133536945552246
2025-03-30 17:23:24.238,8.280301538547377
2025-03-30 17:23:24.238,5.117785933832537
2025-03-30 17:23:24.239,-1.7168510175706277
2025-03-30 17:23:24.248,-4.789464551072381
2025-03-30 17:23:24.248,-2.4358348728097177
2025-03-30 17:23:24.248,0.5538519062576283
2025-03-30 17:23:24.248,-0.04984699354449813
2025-03-30 17:23:24.249,-2.904814968917826
2025-03-30 17:23:24.258,-3.1838331135359104
2025-03-30 17:23:24.258,1.6888184912549322
2025-03-30 17:23:24.258,8.417027588306983
2025-03-30 17:23:24.258,9.63068724945852
2025-03-30 17:23:24.259,0.9571105262763291
2025-03-30 17:23:24.266,-12.109082261081532
2025-03-30 17:23:24.266,-16.628316899221595
2025-03-30 17:23:24.266,-5.395598932448307
2025-03-30 17:23:24.267,12.70658373268366
2025-03-30 17:23:24.274,19.889978076464484
2025-03-30 17:23:24.274,8.582714163516378
2025-03-30 17:23:24.275,-9.81019919955523
2025-03-30 17:23:24.275,-17.462979056725096
2025-03-30 17:23:24.275,-9.056209100757055
2025-03-30 17:23:24.284,4.678134907478362
2025-03-30 17:23:24.284,10.735493545392965
2025-03-30 17:23:24.285,6.961267470417964
2025-03-30 17:23:24.285,0.4397069239125873
2025-03-30 17:23:24.285,-3.0866566072645667
2025-03-30 17:23:24.296,-3.9117031679408
2025-03-30 17:23:24.296,-3.7829115288229223
2025-03-30 17:23:24.296,-1.9545478030651415
2025-03-30 17:23:24.296,1.989189567379245
2025-03-30 17:23:24.297,4.8705406338723325
2025-03-30 17:23:24.304,3.076316635661894
2025-03-30 17:23:24.304,-2.069840600934249
2025-03-30 17:23:24.305,-4.962088519879979
2025-03-30 17:23:24.305,-2.0215648218789246
2025-03-30 17:23:24.314,4.0092371844539505
2025-03-30 17:23:24.314,6.408332291493952
2025-03-30 17:23:24.314,1.1966766002879652
2025-03-30 17:23:24.315,-7.654233233397608
2025-03-30 17:23:24.315,-10.377113299835994
2025-03-30 17:23:24.324,-1.4419240079618802
2025-03-30 17:23:24.324,12.001776905928912
2025-03-30 17:23:24.324,15.259519653870514
2025-03-30 17:23:24.324,2.459127414708851
2025-03-30 17:23:24.324,-14.57199856480838
2025-03-30 17:23:24.332,-17.865731981296598
2025-03-30 17:23:24.332,-3.5430338693586565
2025-03-30 17:23:24.332,13.384335355649641
2025-03-30 17:23:24.333,15.945678770900365
2025-03-30 17:23:24.342,3.708271519322669
2025-03-30 17:23:24.342,-8.762963228624045
2025-03-30 17:23:24.342,-9.813886813075667
2025-03-30 17:23:24.342,-2.287973048717371
2025-03-30 17:23:24.342,3.2316688217251723
2025-03-30 17:23:24.350,2.023830544108489
2025-03-30 17:23:24.350,-1.1632677548359356
2025-03-30 17:23:24.351,-0.061494676020122443
2025-03-30 17:23:24.351,4.871755383457903
2025-03-30 17:23:24.351,6.810917165969979
2025-03-30 17:23:24.360,0.6243036871096503
2025-03-30 17:23:24.360,-9.666102893220247
2025-03-30 17:23:24.361,-13.013820297236949
2025-03-30 17:23:24.361,-3.2402038286511208
2025-03-30 17:23:24.370,11.806840528587712
2025-03-30 17:23:24.370,16.612387557687683
2025-03-30 17:23:24.370,5.141380643581608
2025-03-30 17:23:24.370,-11.175664961962784
2025-03-30 17:23:24.371,-15.575053370520283
2025-03-30 17:23:24.378,-4.698064832333183
2025-03-30 17:23:24.378,8.426515994888318
2025-03-30 17:23:24.379,10.326294104706916
2025-03-30 17:23:24.379,1.9795304845007275
2025-03-30 17:23:24.388,-4.846703408654214
2025-03-30 17:23:24.388,-3.226206878380066
2025-03-30 17:23:24.388,1.8163652002617718
2025-03-30 17:23:24.388,2.076473592570416
2025-03-30 17:23:24.389,-2.599235452896816
2025-03-30 17:23:24.398,-5.148416573361214
2025-03-30 17:23:24.398,-1.3318640364758103
2025-03-30 17:23:24.398,4.981020912953512
2025-03-30 17:23:24.399,6.991070744862637
2025-03-30 17:23:24.399,2.6202707966930365
2025-03-30 17:23:24.408,-4.228237573505244
2025-03-30 17:23:24.408,-7.91628569672346
2025-03-30 17:23:24.408,-5.123074784065287
2025-03-30 17:23:24.408,2.9682305867495473
2025-03-30 17:23:24.409,9.957689747833234
2025-03-30 17:23:24.416,7.933042096981229
2025-03-30 17:23:24.416,-3.75487270419096
2025-03-30 17:23:24.417,-14.098513942156618
2025-03-30 17:23:24.417,-10.24651479853855
2025-03-30 17:23:24.417,6.350441834025479
2025-03-30 17:23:24.426,18.343531812219158
2025-03-30 17:23:24.426,11.31519402434569
2025-03-30 17:23:24.426,-8.289327652260083
2025-03-30 17:23:24.427,-19.34188194683589
2025-03-30 17:23:24.436,-10.286747455679556
2025-03-30 17:23:24.436,7.883079760745015
2025-03-30 17:23:24.436,15.490109585652782
2025-03-30 17:23:24.436,6.904101235438205
2025-03-30 17:23:24.437,-5.5084455080065435
2025-03-30 17:23:24.444,-8.406781835611088
2025-03-30 17:23:24.444,-2.2722615956801953
2025-03-30 17:23:24.445,2.7310911822961135
2025-03-30 17:23:24.445,1.1383112250920897
2025-03-30 17:23:24.454,-2.146856387950319
2025-03-30 17:23:24.454,-0.23712893325138018
2025-03-30 17:23:24.454,5.258085319435574
2025-03-30 17:23:24.455,5.459141230113589
2025-03-30 17:23:24.455,-3.3602367894405996
2025-03-30 17:23:24.464,-11.902938367665438
2025-03-30 17:23:24.464,-7.363068810618882
2025-03-30 17:23:24.464,8.886294858837493
2025-03-30 17:23:24.464,18.9894158384689
2025-03-30 17:23:24.465,8.59270977652684
2025-03-30 17:23:24.472,-13.876970499834215
2025-03-30 17:23:24.472,-24.266530938151295
2025-03-30 17:23:24.473,-10.005887048604816
2025-03-30 17:23:24.473,14.748114925970263
2025-03-30 17:23:24.480,24.68853095442073
2025-03-30 17:23:24.480,11.051930078538955
2025-03-30 17:23:24.480,-10.673580423237407
2025-03-30 17:23:24.481,-19.524118163441443
2025-03-30 17:23:24.490,-10.439165393655495
2025-03-30 17:23:24.490,4.434171825627367
2025-03-30 17:23:24.490,11.29212743495766
2025-03-30 17:23:24.491,7.46490671467285
2025-03-30 17:23:24.491,0.14157454242037748
2025-03-30 17:23:24.500,-3.36200643301184
2025-03-30 17:23:24.500,-2.3244011502704387
2025-03-30 17:23:24.500,-1.114863444176265
2025-03-30 17:23:24.500,-2.5981345881690605
2025-03-30 17:23:24.501,-3.899976812350144
2025-03-30 17:23:24.510,-0.15765422680932267
2025-03-30 17:23:24.510,7.117168024284507
2025-03-30 17:23:24.510,8.905615410011546
2025-03-30 17:23:24.510,-0.03285538730555887
2025-03-30 17:23:24.511,-11.104460794261648
2025-03-30 17:23:24.518,-10.078994190944565
2025-03-30 17:23:24.519,3.726101953401601
2025-03-30 17:23:24.519,13.953865162363057
2025-03-30 17:23:24.519,7.32690203933938
2025-03-30 17:23:24.519,-8.568809219559215
2025-03-30 17:23:24.528,-14.486810745802664
2025-03-30 17:23:24.528,-3.712502391387762
2025-03-30 17:23:24.528,10.593671348451645
2025-03-30 17:23:24.529,12.758114110366236
2025-03-30 17:23:24.538,2.4304748376602605
2025-03-30 17:23:24.538,-8.185349856549916
2025-03-30 17:23:24.538,-9.890378600094948
2025-03-30 17:23:24.538,-4.165322974267532
2025-03-30 17:23:24.539,2.4380346539807607
2025-03-30 17:23:24.548,6.115067797837822
2025-03-30 17:23:24.548,6.944995579714691
2025-03-30 17:23:24.548,5.309156824564799
2025-03-30 17:23:24.548,0.04961655994021349
2025-03-30 17:23:24.549,-8.456707800289053
2025-03-30 17:23:24.556,-14.183784831761855
2025-03-30 17:23:24.557,-8.63177691555169
2025-03-30 17:23:24.557,7.973300124103963
2025-03-30 17:23:24.557,21.41088722782743
2025-03-30 17:23:24.564,16.218368608424615
2025-03-30 17:23:24.564,-5.304132600831466
2025-03-30 17:23:24.565,-22.790958006972875
2025-03-30 17:23:24.565,-19.43597550660455
2025-03-30 17:23:24.565,0.20449379405087909
2025-03-30 17:23:24.574,16.94249743442228
2025-03-30 17:23:24.574,17.727595962175204
2025-03-30 17:23:24.575,5.835063058470005
2025-03-30 17:23:24.575,-6.83603646784498
2025-03-30 17:23:24.584,-12.084741557853748
2025-03-30 17:23:24.584,-9.477099412187144
2025-03-30 17:23:24.584,-2.6911051528329795
2025-03-30 17:23:24.584,4.403357989395994
2025-03-30 17:23:24.585,8.617960233747832
2025-03-30 17:23:24.592,7.719264148918907
2025-03-30 17:23:24.593,2.0831239553466023
2025-03-30 17:23:24.593,-4.469786830840625
2025-03-30 17:23:24.593,-7.253637271611706
2025-03-30 17:23:24.593,-4.763516831703272
2025-03-30 17:23:24.602,0.292170791420997
2025-03-30 17:23:24.602,3.871161328720028
2025-03-30 17:23:24.603,3.9021499696995634
2025-03-30 17:23:24.603,1.2420436027880273
2025-03-30 17:23:24.612,-1.3608740033440156
2025-03-30 17:23:24.612,-1.4528878525425797
2025-03-30 17:23:24.613,0.5014480505178939
2025-03-30 17:23:24.613,1.0113027055860564
2025-03-30 17:23:24.613,-1.833030380143781
2025-03-30 17:23:24.613,-4.198272191928129
2025-03-30 17:23:24.622,-0.7301343976782894
2025-03-30 17:23:24.623,6.359031388217774
2025-03-30 17:23:24.623,7.479301656039226
2025-03-30 17:23:24.623,-1.5776168252934313
2025-03-30 17:23:24.632,-11.262714942151508
2025-03-30 17:23:24.632,-8.621720259488532
2025-03-30 17:23:24.632,5.239168263189899
2025-03-30 17:23:24.632,14.472659898998886
2025-03-30 17:23:24.633,7.376654634297338
2025-03-30 17:23:24.642,-8.668129139828787
2025-03-30 17:23:24.642,-15.275188852098347
2025-03-30 17:23:24.642,-4.416140410920561
2025-03-30 17:23:24.642,12.181761623041606
2025-03-30 17:23:24.642,15.764593534114214
2025-03-30 17:23:24.650,0.9896404732981863
2025-03-30 17:23:24.650,-17.332686254677085
2025-03-30 17:23:24.651,-18.596182468252984
2025-03-30 17:23:24.651,1.3505490634502648
2025-03-30 17:23:24.660,23.26616180049557
2025-03-30 17:23:24.660,23.2035045007176
2025-03-30 17:23:24.660,-1.0817042992219708
2025-03-30 17:23:24.660,-25.95396211025109
2025-03-30 17:23:24.660,-26.36361264191232
2025-03-30 17:23:24.668,-2.0936242162995002
2025-03-30 17:23:24.668,22.86446964939164
2025-03-30 17:23:24.669,25.546727523351286
2025-03-30 17:23:24.669,5.948029042895728
2025-03-30 17:23:24.678,-15.678150327951625
2025-03-30 17:23:24.678,-20.339714408353874
2025-03-30 17:23:24.678,-7.443037914624052
2025-03-30 17:23:24.678,7.996829515731855
2025-03-30 17:23:24.679,12.256969776278227
2025-03-30 17:23:24.686,5.421207919713138
2025-03-30 17:23:24.687,-2.1881362307680026
2025-03-30 17:23:24.687,-3.4975958060498713
2025-03-30 17:23:24.687,-1.539100471520757
2025-03-30 17:23:24.687,-2.1423524097855133
2025-03-30 17:23:24.696,-3.869412107587014
2025-03-30 17:23:24.696,-0.6079635555858568
2025-03-30 17:23:24.697,6.635642482582773
2025-03-30 17:23:24.697,7.902993137975
2025-03-30 17:23:24.706,-1.685748925403587
2025-03-30 17:23:24.706,-11.688335873567734
2025-03-30 17:23:24.706,-7.862052827271181
2025-03-30 17:23:24.706,7.573698676343518
2025-03-30 17:23:24.706,15.93114915189975
2025-03-30 17:23:24.714,5.352079453229766
2025-03-30 17:23:24.714,-12.873298057976548
2025-03-30 17:23:24.715,-17.48469401693675
2025-03-30 17:23:24.715,-3.1666888773361275
2025-03-30 17:23:24.722,13.789100969855685
2025-03-30 17:23:24.722,15.564790809652623
2025-03-30 17:23:24.723,2.3743269232282342
2025-03-30 17:23:24.723,-10.510952398132234
2025-03-30 17:23:24.723,-11.042647589959012
2025-03-30 17:23:24.732,-1.580942002894572
2025-03-30 17:23:24.732,6.668353979841703
2025-03-30 17:23:24.733,6.21421837632519
2025-03-30 17:23:24.733,-0.6718845915936232
2025-03-30 17:23:24.733,-5.850673965342072
2025-03-30 17:23:24.742,-3.583352830175405
2025-03-30 17:23:24.743,3.942872318135291
2025-03-30 17:23:24.743,8.362299275236792
2025-03-30 17:23:24.743,3.5896472701252606
2025-03-30 17:23:24.752,-6.587489446411696
2025-03-30 17:23:24.752,-11.130936524861381
2025-03-30 17:23:24.752,-3.938934909236286
2025-03-30 17:23:24.752,7.912058691719416
2025-03-30 17:23:24.753,11.22814779711395
2025-03-30 17:23:24.760,2.16508516402946
2025-03-30 17:23:24.760,-8.72366207136387
2025-03-30 17:23:24.761,-8.876443414242251
2025-03-30 17:23:24.761,1.3338090148343544
2025-03-30 17:23:24.761,9.48545209767187
2025-03-30 17:23:24.770,6.3391732231946225
2025-03-30 17:23:24.771,-3.6734309424889853
2025-03-30 17:23:24.771,-8.940106034768826
2025-03-30 17:23:24.771,-4.782015397365066
2025-03-30 17:23:24.780,2.582236353848111
2025-03-30 17:23:24.780,5.460869020224216
2025-03-30 17:23:24.780,3.5793586340377113
2025-03-30 17:23:24.781,1.467618244550243
2025-03-30 17:23:24.781,0.5692203026755995
2025-03-30 17:23:24.790,-1.6217465580709094
2025-03-30 17:23:24.790,-5.481431394812989
2025-03-30 17:23:24.790,-6.828588523239163
2025-03-30 17:23:24.791,-2.1645543767859317
2025-03-30 17:23:24.791,6.027918928989967
2025-03-30 17:23:24.798,10.971180688869486
2025-03-30 17:23:24.798,7.903931802928425
2025-03-30 17:23:24.799,-1.6962134118476553
2025-03-30 17:23:24.799,-11.13457406976674
2025-03-30 17:23:24.808,-13.3283922206501
2025-03-30 17:23:24.808,-6.031463696347022
2025-03-30 17:23:24.808,6.144496595708141
2025-03-30 17:23:24.809,14.73539817927005
2025-03-30 17:23:24.809,13.489433905624923
2025-03-30 17:23:24.816,2.8936520543300097
2025-03-30 17:23:24.816,-10.084291984174163
2025-03-30 17:23:24.817,-16.63944144952543
2025-03-30 17:23:24.817,-12.048561857373103
2025-03-30 17:23:24.826,0.9504529165696443
2025-03-30 17:23:24.826,13.690583748605041
2025-03-30 17:23:24.826,17.1761231500617
2025-03-30 17:23:24.826,8.303031222270166
2025-03-30 17:23:24.827,-7.067472770711957
2025-03-30 17:23:24.834,-17.062099339280905
2025-03-30 17:23:24.835,-12.94217600474946
2025-03-30 17:23:24.835,1.857500916745335
2025-03-30 17:23:24.835,13.29920831163834
2025-03-30 17:23:24.835,10.74143142007393
2025-03-30 17:23:24.844,-1.1198759701840943
2025-03-30 17:23:24.844,-8.010150153497195
2025-03-30 17:23:24.844,-3.7066359918830383
2025-03-30 17:23:24.845,3.272041582555951
2025-03-30 17:23:24.854,2.7058178148837375
2025-03-30 17:23:24.854,-3.290900167830695
2025-03-30 17:23:24.855,-4.753606581375983
2025-03-30 17:23:24.855,1.1068865548647397
2025-03-30 17:23:24.855,6.57303951938315
2025-03-30 17:23:24.864,4.830846476078074
2025-03-30 17:23:24.864,-1.7935173954820913
2025-03-30 17:23:24.864,-6.570287417639612
2025-03-30 17:23:24.864,-6.082563365380777
2025-03-30 17:23:24.865,-1.0434085398371957
2025-03-30 17:23:24.872,5.821081395868877
2025-03-30 17:23:24.873,9.647090383244288
2025-03-30 17:23:24.873,5.475586980225728
2025-03-30 17:23:24.873,-5.128882812607475
2025-03-30 17:23:24.882,-12.329571266306376
2025-03-30 17:23:24.882,-8.050340789149011
2025-03-30 17:23:24.882,3.4385720737876775
2025-03-30 17:23:24.883,10.040938867905641
2025-03-30 17:23:24.883,6.605508905009927
2025-03-30 17:23:24.892,-0.2679198392484045
2025-03-30 17:23:24.892,-2.9701044241192824
2025-03-30 17:23:24.892,-2.3365531302521734
2025-03-30 17:23:24.893,-3.0683065492030717
2025-03-30 17:23:24.893,-4.591354716357513
2025-03-30 17:23:24.902,-2.087948325586403
2025-03-30 17:23:24.902,4.727795928054246
2025-03-30 17:23:24.902,9.038567614012216
2025-03-30 17:23:24.903,4.947308199911777
2025-03-30 17:23:24.903,-4.3606876134389125
2025-03-30 17:23:24.912,-9.271654329666053
2025-03-30 17:23:24.912,-4.863183802101929
2025-03-30 17:23:24.912,2.9679786635259906
2025-03-30 17:23:24.912,4.905000965684755
2025-03-30 17:23:24.913,0.45057543543686185
2025-03-30 17:23:24.922,-1.6781471801956964
2025-03-30 17:23:24.922,3.308404390462204
2025-03-30 17:23:24.922,7.8053676211385215
2025-03-30 17:23:24.922,1.6174944199931496
2025-03-30 17:23:24.923,-11.969875745666096
2025-03-30 17:23:24.930,-16.813047068416406
2025-03-30 17:23:24.930,-3.3130312041071592
2025-03-30 17:23:24.931,17.130763955290536
2025-03-30 17:23:24.931,22.538838359402014
2025-03-30 17:23:24.940,5.450760452934327
2025-03-30 17:23:24.940,-17.062198515202795
2025-03-30 17:23:24.940,-21.89156979269095
2025-03-30 17:23:24.940,-5.856682102154926
2025-03-30 17:23:24.941,12.050460201288024
2025-03-30 17:23:24.948,14.27493070435341
2025-03-30 17:23:24.948,3.893162391491991
2025-03-30 17:23:24.949,-3.732780982811484
2025-03-30 17:23:24.949,-2.6445517985716336
2025-03-30 17:23:24.949,-0.9678629661716815
2025-03-30 17:23:24.958,-4.811327973612916
2025-03-30 17:23:24.959,-7.573892824066755
2025-03-30 17:23:24.959,-0.9341314815440147
2025-03-30 17:23:24.959,10.028819997617436
2025-03-30 17:23:24.968,11.754143439731806
2025-03-30 17:23:24.968,0.9926169812235356
2025-03-30 17:23:24.968,-9.946752808888082
2025-03-30 17:23:24.969,-9.236974585374906
2025-03-30 17:23:24.969,-0.048856471989247585
2025-03-30 17:23:24.976,5.703515219815475
2025-03-30 17:23:24.976,3.447662927419696
2025-03-30 17:23:24.977,-0.6686119731020056
2025-03-30 17:23:24.977,-0.7488736186651493
2025-03-30 17:23:24.977,1.3630694983806086
2025-03-30 17:23:24.986,1.0705999805085662
2025-03-30 17:23:24.986,-1.759420160062191
2025-03-30 17:23:24.986,-3.6588338946678967
2025-03-30 17:23:24.987,-2.454701035901503
2025-03-30 17:23:24.996,1.3299757773116854
2025-03-30 17:23:24.996,5.333873258471725
2025-03-30 17:23:24.996,5.6234703135749164
2025-03-30 17:23:24.996,-0.4016899065183699
2025-03-30 17:23:24.997,-8.560868396266898
2025-03-30 17:23:25.006,-9.22753800858658
2025-03-30 17:23:25.006,1.2143414536678048
2025-03-30 17:23:25.006,12.73059900678351
2025-03-30 17:23:25.006,11.359780500053947
2025-03-30 17:23:25.006,-3.2234171891605863
2025-03-30 17:23:25.014,-15.32945481285683
2025-03-30 17:23:25.014,-11.174253636951827
2025-03-30 17:23:25.015,4.525262163872802
2025-03-30 17:23:25.015,14.21394334539888
2025-03-30 17:23:25.024,8.38471337968377
2025-03-30 17:23:25.024,-4.245559841514789
2025-03-30 17:23:25.024,-8.959597610394336
2025-03-30 17:23:25.025,-3.064375246918624
2025-03-30 17:23:25.025,2.9718307371097556
2025-03-30 17:23:25.034,1.106326717924592
2025-03-30 17:23:25.034,-3.668258246982023
2025-03-30 17:23:25.034,-1.6574928240525522
2025-03-30 17:23:25.034,6.545081934152081
2025-03-30 17:23:25.035,9.707101743696981
2025-03-30 17:23:25.042,1.0904611664652784
2025-03-30 17:23:25.042,-11.366728287603737
2025-03-30 17:23:25.043,-13.514326195973856
2025-03-30 17:23:25.043,-1.6446537234414103
2025-03-30 17:23:25.052,12.661427570655363
2025-03-30 17:23:25.052,14.78407404301391
2025-03-30 17:23:25.052,2.5625764920790073
2025-03-30 17:23:25.052,-11.535646209535559
2025-03-30 17:23:25.052,-13.596244455305136
2025-03-30 17:23:25.060,-2.646654736835999
2025-03-30 17:23:25.061,9.143439874101736
2025-03-30 17:23:25.061,10.289802701373985
2025-03-30 17:23:25.061,1.8684815399098744
2025-03-30 17:23:25.070,-5.804309187952572
2025-03-30 17:23:25.070,-6.053191500097076
2025-03-30 17:23:25.071,-1.6315016219751146
2025-03-30 17:23:25.071,1.7907616037226748
2025-03-30 17:23:25.071,2.820289241529702
2025-03-30 17:23:25.080,2.833925574933464
2025-03-30 17:23:25.080,1.5980498022462026
2025-03-30 17:23:25.080,-1.5188954683445315
2025-03-30 17:23:25.080,-4.195783454811236
2025-03-30 17:23:25.081,-3.1785134616757054
2025-03-30 17:23:25.090,0.9123303745338105
2025-03-30 17:23:25.090,3.9609516256878337
2025-03-30 17:23:25.090,3.474317355427016
2025-03-30 17:23:25.090,0.7699183821091008
2025-03-30 17:23:25.091,-1.916999159553742
2025-03-30 17:23:25.100,-3.74289783603696
2025-03-30 17:23:25.100,-3.974165147448629
2025-03-30 17:23:25.100,-1.2127094998311803
2025-03-30 17:23:25.101,4.016809270873729
2025-03-30 17:23:25.101,7.504830929508515
2025-03-30 17:23:25.110,4.843318176004339
2025-03-30 17:23:25.110,-3.0305717317980845
2025-03-30 17:23:25.110,-9.380722406718016
2025-03-30 17:23:25.111,-7.962777174164733
2025-03-30 17:23:25.111,0.32475896584559905
2025-03-30 17:23:25.118,7.9813619485793
2025-03-30 17:23:25.118,8.57408761045539
2025-03-30 17:23:25.119,2.9458552243149794
2025-03-30 17:23:25.119,-3.111811104308222
2025-03-30 17:23:25.119,-5.797858032535298
2025-03-30 17:23:25.128,-5.505940089834368
2025-03-30 17:23:25.129,-3.235336467989835
2025-03-30 17:23:25.129,1.2190855111092873
2025-03-30 17:23:25.129,6.466223429905913
2025-03-30 17:23:25.138,8.288342108889193
2025-03-30 17:23:25.138,3.759907094169979
2025-03-30 17:23:25.138,-4.6345351142698155
2025-03-30 17:23:25.138,-10.632900875024166
2025-03-30 17:23:25.139,-9.403725609454243
2025-03-30 17:23:25.148,-0.9355891302555523
2025-03-30 17:23:25.148,9.802414058583832
2025-03-30 17:23:25.148,15.050985749864404
2025-03-30 17:23:25.148,9.147995734159128
2025-03-30 17:23:25.149,-5.5634243763266245
2025-03-30 17:23:25.156,-17.99780330902282
2025-03-30 17:23:25.156,-16.634366674014185
2025-03-30 17:23:25.157,-0.7986695020282784
2025-03-30 17:23:25.157,16.7134607187695
2025-03-30 17:23:25.164,20.212919208773783
2025-03-30 17:23:25.165,6.095263655624656
2025-03-30 17:23:25.165,-12.704595131016836
2025-03-30 17:23:25.165,-18.85143052384881
2025-03-30 17:23:25.165,-7.900066203459435
2025-03-30 17:23:25.174,7.949310622020246
2025-03-30 17:23:25.174,13.733157047577896
2025-03-30 17:23:25.175,6.792322744183231
2025-03-30 17:23:25.175,-3.4383936084837994
2025-03-30 17:23:25.184,-7.568626196596735
2025-03-30 17:23:25.184,-4.6261172772124315
2025-03-30 17:23:25.184,0.3518376684254542
2025-03-30 17:23:25.184,2.947316517940418
2025-03-30 17:23:25.185,2.4053787768522037
2025-03-30 17:23:25.194,0.4636528818117012
2025-03-30 17:23:25.194,-0.8915612513849619
2025-03-30 17:23:25.195,-0.8610259297683096
2025-03-30 17:23:25.195,-0.02052488673201794
2025-03-30 17:23:25.195,0.6259444756215073
2025-03-30 17:23:25.204,0.7136303898778268
2025-03-30 17:23:25.204,0.49542501961495544
2025-03-30 17:23:25.204,-0.031713916823610036
2025-03-30 17:23:25.204,-1.3030635452045922
2025-03-30 17:23:25.205,-2.9455980017325363
2025-03-30 17:23:25.214,-2.862135839781123
2025-03-30 17:23:25.214,0.8257611536993257
2025-03-30 17:23:25.214,6.149929391859235
2025-03-30 17:23:25.214,7.462794161619144
2025-03-30 17:23:25.215,1.5304194699319564
2025-03-30 17:23:25.222,-7.33983105513612
2025-03-30 17:23:25.223,-10.809425314520027
2025-03-30 17:23:25.223,-5.260052566245334
2025-03-30 17:23:25.223,4.667072931431857
2025-03-30 17:23:25.232,10.94749028369505
2025-03-30 17:23:25.232,9.011710525226992
2025-03-30 17:23:25.233,0.6365288875249063
2025-03-30 17:23:25.233,-7.743702959331169
2025-03-30 17:23:25.233,-9.98985456499219
2025-03-30 17:23:25.242,-5.414035474897578
2025-03-30 17:23:25.242,1.2031400270000878
2025-03-30 17:23:25.243,5.466218337269131
2025-03-30 17:23:25.243,7.285061029728466
2025-03-30 17:23:25.243,7.410905939496235
2025-03-30 17:23:25.252,3.508921574682881
2025-03-30 17:23:25.252,-5.68597865608533
2025-03-30 17:23:25.253,-13.97057889208752
2025-03-30 17:23:25.253,-11.724458732718352
2025-03-30 17:23:25.253,1.7397298582131213
2025-03-30 17:23:25.260,14.494741166607389
2025-03-30 17:23:25.261,14.251622985163802
2025-03-30 17:23:25.261,2.091520727608148
2025-03-30 17:23:25.261,-9.352366989232275
2025-03-30 17:23:25.261,-10.334567574271563
2025-03-30 17:23:25.272,-3.2368746822478522
2025-03-30 17:23:25.272,2.790306639298689
2025-03-30 17:23:25.272,3.0066723637162793
2025-03-30 17:23:25.273,0.626020887164172
2025-03-30 17:23:25.273,0.7724068913235962
2025-03-30 17:23:25.280,3.7352426684538025
2025-03-30 17:23:25.281,4.907942096387835
2025-03-30 17:23:25.281,0.45924129985977974
2025-03-30 17:23:25.281,-7.3479456396789775
2025-03-30 17:23:25.290,-10.86897067217138
2025-03-30 17:23:25.290,-4.631657948429394
2025-03-30 17:23:25.291,7.259072958839007
2025-03-30 17:23:25.291,13.55239500086188
2025-03-30 17:23:25.291,7.69115680961078
2025-03-30 17:23:25.300,-4.381168185740876
2025-03-30 17:23:25.300,-10.698174422425543
2025-03-30 17:23:25.300,-6.589786693741011
2025-03-30 17:23:25.301,1.2283536855415245
2025-03-30 17:23:25.301,3.9150396029872554
2025-03-30 17:23:25.310,0.9747078500625348
2025-03-30 17:23:25.310,-0.6462279667230005
2025-03-30 17:23:25.310,3.0601001231743585
2025-03-30 17:23:25.311,6.911155172554629
2025-03-30 17:23:25.311,3.1178499174616956
2025-03-30 17:23:25.318,-7.1463546781653955
2025-03-30 17:23:25.319,-12.994713362739335
2025-03-30 17:23:25.319,-6.626693908827443
2025-03-30 17:23:25.319,6.435005045976164
2025-03-30 17:23:25.328,13.585252782433606
2025-03-30 17:23:25.328,9.466095631358456
2025-03-30 17:23:25.328,-0.4264369060744926
2025-03-30 17:23:25.329,-8.662272502852048
2025-03-30 17:23:25.329,-11.996284421474249
2025-03-30 17:23:25.338,-8.669605258626266
2025-03-30 17:23:25.338,2.1907869476107855
2025-03-30 17:23:25.338,14.632475146732105
2025-03-30 17:23:25.339,16.34823841572391
2025-03-30 17:23:25.339,2.2603169237482783
2025-03-30 17:23:25.346,-15.555043613533584
2025-03-30 17:23:25.346,-18.92842363441856
2025-03-30 17:23:25.347,-4.5052007842977675
2025-03-30 17:23:25.347,12.392347578471254
2025-03-30 17:23:25.356,15.876010832927612
2025-03-30 17:23:25.356,5.934216310213125
2025-03-30 17:23:25.356,-5.5488721328760064
2025-03-30 17:23:25.356,-9.722508477856902
2025-03-30 17:23:25.357,-6.901882340899002
2025-03-30 17:23:25.366,-1.3140470564443136
2025-03-30 17:23:25.366,3.888936289921291
2025-03-30 17:23:25.366,6.412410669886801
2025-03-30 17:23:25.367,4.682786713780058
2025-03-30 17:23:25.367,-0.07687125694999278
2025-03-30 17:23:25.376,-4.01461311738644
2025-03-30 17:23:25.376,-4.32683344369397
2025-03-30 17:23:25.377,-1.6873239424061865
2025-03-30 17:23:25.377,1.2317970077923392
2025-03-30 17:23:25.377,2.356378746405002
2025-03-30 17:23:25.386,1.3457740534217673
2025-03-30 17:23:25.386,-0.3500918027363047
2025-03-30 17:23:25.386,-0.5218034602403095
2025-03-30 17:23:25.386,1.2200312756507592
2025-03-30 17:23:25.387,2.088599118154695
2025-03-30 17:23:25.396,-0.6322398368049515
2025-03-30 17:23:25.396,-4.884517638944924
2025-03-30 17:23:25.396,-5.018570489122481
2025-03-30 17:23:25.397,0.9803279808763358
2025-03-30 17:23:25.397,7.555822152697313
2025-03-30 17:23:25.404,7.22173473136324
2025-03-30 17:23:25.405,-0.4938958890523149
2025-03-30 17:23:25.405,-7.950269732222074
2025-03-30 17:23:25.405,-7.738485388812745
2025-03-30 17:23:25.414,-0.5676670089045743
2025-03-30 17:23:25.414,6.198898564592719
2025-03-30 17:23:25.414,6.718758595859452
2025-03-30 17:23:25.415,1.8029188987687523
2025-03-30 17:23:25.415,-3.459676684454666
2025-03-30 17:23:25.424,-5.026829578102406
2025-03-30 17:23:25.424,-2.5157849503331096
2025-03-30 17:23:25.424,1.4158275851875035
2025-03-30 17:23:25.425,3.2261532108626905
2025-03-30 17:23:25.425,1.5552421022205922
2025-03-30 17:23:25.434,-0.9780318711336914
2025-03-30 17:23:25.434,-0.7347919238085713
2025-03-30 17:23:25.434,1.5702462849790073
2025-03-30 17:23:25.434,1.2629899297915659
2025-03-30 17:23:25.435,-2.9572366032197444
2025-03-30 17:23:25.444,-5.527610622712817
2025-03-30 17:23:25.444,-1.2484033588242722
2025-03-30 17:23:25.444,6.427131184794119
2025-03-30 17:23:25.444,8.614048869939355
2025-03-30 17:23:25.445,1.8872246528613328
2025-03-30 17:23:25.452,-7.508606156708504
2025-03-30 17:23:25.453,-10.52220367442453
2025-03-30 17:23:25.453,-4.213982706338283
2025-03-30 17:23:25.453,5.92924562273948
2025-03-30 17:23:25.462,10.934742266042953
2025-03-30 17:23:25.462,6.339250907493571
2025-03-30 17:23:25.462,-3.2074936372432203
2025-03-30 17:23:25.462,-8.35146160627353
2025-03-30 17:23:25.463,-5.226152438169185
2025-03-30 17:23:25.472,0.7526683519385932
2025-03-30 17:23:25.472,2.784669481659829
2025-03-30 17:23:25.472,1.1464306817600252
2025-03-30 17:23:25.472,0.5323774911477308
2025-03-30 17:23:25.473,1.966484044589434
2025-03-30 17:23:25.480,2.2357783787877366
2025-03-30 17:23:25.481,0.05535409204911529
2025-03-30 17:23:25.481,-2.093487805889266
2025-03-30 17:23:25.481,-2.348385079582678
2025-03-30 17:23:25.481,-1.6871434199291488
2025-03-30 17:23:25.490,-1.1388585322601275
2025-03-30 17:23:25.491,-0.0336991804451552
2025-03-30 17:23:25.491,1.9300029871181696
2025-03-30 17:23:25.491,3.3227842576305178
2025-03-30 17:23:25.500,2.8052111389579637
2025-03-30 17:23:25.500,0.5948154830451866
2025-03-30 17:23:25.500,-2.4543283077612177
2025-03-30 17:23:25.501,-5.1975373072014355
2025-03-30 17:23:25.501,-5.101295157723409
2025-03-30 17:23:25.510,0.11885442564993252
2025-03-30 17:23:25.510,7.742518012337456
2025-03-30 17:23:25.510,9.891343085015016
2025-03-30 17:23:25.511,1.9453889201290187
2025-03-30 17:23:25.511,-9.987141735707725
2025-03-30 17:23:25.520,-13.834689119399567
2025-03-30 17:23:25.520,-4.438213303640524
2025-03-30 17:23:25.520,10.410041061595294
2025-03-30 17:23:25.521,17.152791936415607
2025-03-30 17:23:25.521,8.813863876373604
2025-03-30 17:23:25.528,-8.582428518329921
2025-03-30 17:23:25.529,-20.171741657631447
2025-03-30 17:23:25.529,-14.508746538164095
2025-03-30 17:23:25.529,5.0341536301436225
2025-03-30 17:23:25.538,21.293171887468976
2025-03-30 17:23:25.538,18.903963979641535
2025-03-30 17:23:25.538,-0.01942831778394616
2025-03-30 17:23:25.538,-17.6866768584408
2025-03-30 17:23:25.539,-18.869694823211002
2025-03-30 17:23:25.548,-5.398622592682241
2025-03-30 17:23:25.548,8.480433772882115
2025-03-30 17:23:25.548,12.428938241092924
2025-03-30 17:23:25.548,8.343488998983624
2025-03-30 17:23:25.549,3.341919498483353
2025-03-30 17:23:25.562,-0.5495713739524142
2025-03-30 17:23:25.562,-6.1439189865307045
2025-03-30 17:23:25.562,-12.566447678851763
2025-03-30 17:23:25.562,-12.459265229984432
2025-03-30 17:23:25.562,-0.8391620860310348
2025-03-30 17:23:25.566,15.366828980850132
2025-03-30 17:23:25.566,21.18409599017274
2025-03-30 17:23:25.566,9.048962713267109
2025-03-30 17:23:25.566,-11.47411662329903
2025-03-30 17:23:25.576,-22.117572715361685
2025-03-30 17:23:25.576,-14.148672216425284
2025-03-30 17:23:25.576,3.5879845420984413
2025-03-30 17:23:25.576,15.0552733447488
2025-03-30 17:23:25.576,13.183195053604363
2025-03-30 17:23:25.584,4.095266460576115
2025-03-30 17:23:25.584,-2.8984804152351726
2025-03-30 17:23:25.584,-5.618052782998504
2025-03-30 17:23:25.584,-7.57564950670492
2025-03-30 17:23:25.594,-9.135575528468099
2025-03-30 17:23:25.594,-5.415131195006821
2025-03-30 17:23:25.594,5.19044945985353
2025-03-30 17:23:25.594,14.87542495623574
2025-03-30 17:23:25.594,13.86380426617938
2025-03-30 17:23:25.602,2.3448422547576095
2025-03-30 17:23:25.602,-10.077843283191061
2025-03-30 17:23:25.602,-15.707821269204347
2025-03-30 17:23:25.602,-13.507859827772478
2025-03-30 17:23:25.612,-3.7825882411110276
2025-03-30 17:23:25.612,12.273594806513263
2025-03-30 17:23:25.612,25.00158667395639
2025-03-30 17:23:25.612,19.09565998853738
2025-03-30 17:23:25.612,-7.029785534689271
2025-03-30 17:23:25.620,-31.100988451425575
2025-03-30 17:23:25.621,-27.630929329594665
2025-03-30 17:23:25.621,1.7979310768072303
2025-03-30 17:23:25.621,28.07353450663508
2025-03-30 17:23:25.628,26.527782796631747
2025-03-30 17:23:25.629,2.5003626826708056
2025-03-30 17:23:25.629,-18.24042161541939
2025-03-30 17:23:25.629,-18.679246702793556
2025-03-30 17:23:25.638,-4.537134530525475
2025-03-30 17:23:25.638,7.700897466616419
2025-03-30 17:23:25.638,9.287673887820354
2025-03-30 17:23:25.639,3.8721895981534056
2025-03-30 17:23:25.639,-1.0962502792205668
2025-03-30 17:23:25.646,-2.5302206980743227
2025-03-30 17:23:25.647,-1.9102820302065415
2025-03-30 17:23:25.647,-1.2666674223153143
2025-03-30 17:23:25.647,-0.8232699485114026
2025-03-30 17:23:25.647,0.356148379258283
2025-03-30 17:23:25.656,2.367867143552836
2025-03-30 17:23:25.657,3.2326451969012755
2025-03-30 17:23:25.657,0.477761766528108
2025-03-30 17:23:25.657,-4.889166044480418
2025-03-30 17:23:25.666,-7.0540157580835885
2025-03-30 17:23:25.666,-1.1411060919316627
2025-03-30 17:23:25.666,8.870679294153813
2025-03-30 17:23:25.667,11.636545398509757
2025-03-30 17:23:25.667,1.4787331910309964
2025-03-30 17:23:25.676,-12.17951885668642
2025-03-30 17:23:25.676,-13.846616311204134
2025-03-30 17:23:25.676,-0.9192946682382136
2025-03-30 17:23:25.676,12.127407372283127
2025-03-30 17:23:25.677,11.418554391780852
2025-03-30 17:23:25.684,0.2527379279292671
2025-03-30 17:23:25.684,-7.346242920714661
2025-03-30 17:23:25.685,-5.602027604426774
2025-03-30 17:23:25.685,-1.4590188262634485
2025-03-30 17:23:25.694,-0.8811185751449025
2025-03-30 17:23:25.694,-0.1036375422435113
2025-03-30 17:23:25.694,5.186156247573209
2025-03-30 17:23:25.695,9.281011163472035
2025-03-30 17:23:25.695,3.313349047226355
2025-03-30 17:23:25.702,-9.63200136239492
2025-03-30 17:23:25.703,-14.855443503219435
2025-03-30 17:23:25.703,-4.075374562449384
2025-03-30 17:23:25.703,12.480493708712833
2025-03-30 17:23:25.712,16.748842225580816
2025-03-30 17:23:25.712,3.6551757522500377
2025-03-30 17:23:25.712,-13.018492084095639
2025-03-30 17:23:25.713,-16.03346971661027
2025-03-30 17:23:25.713,-3.057955655150801
2025-03-30 17:23:25.720,11.912166295288666
2025-03-30 17:23:25.721,13.99261197201354
2025-03-30 17:23:25.721,2.3793598865058536
2025-03-30 17:23:25.721,-10.068869293078405
2025-03-30 17:23:25.730,-10.915056639065346
2025-03-30 17:23:25.730,-0.8231910602446033
2025-03-30 17:23:25.731,8.135750289679791
2025-03-30 17:23:25.731,6.398551054156982
2025-03-30 17:23:25.731,-2.362748299549378
2025-03-30 17:23:25.740,-6.165616638553182
2025-03-30 17:23:25.740,-0.07558958826783968
2025-03-30 17:23:25.740,6.807502524389036
2025-03-30 17:23:25.741,3.106973741756074
2025-03-30 17:23:25.741,-8.080679787455063
2025-03-30 17:23:25.748,-10.901093845052825
2025-03-30 17:23:25.749,2.0755124981727886
2025-03-30 17:23:25.749,16.772857626945942
2025-03-30 17:23:25.749,13.19934421393441
2025-03-30 17:23:25.758,-7.986444690485933
2025-03-30 17:23:25.758,-23.277878740505592
2025-03-30 17:23:25.758,-13.711963961587182
2025-03-30 17:23:25.759,11.674855872154245
2025-03-30 17:23:25.759,25.51437661403168
2025-03-30 17:23:25.766,13.093981545100883
2025-03-30 17:23:25.766,-11.905208524402715
2025-03-30 17:23:25.766,-23.578278292664447
2025-03-30 17:23:25.767,-11.630634299983805
2025-03-30 17:23:25.774,9.764635894940831
2025-03-30 17:23:25.775,19.00278042799233
2025-03-30 17:23:25.775,9.315018322100846
2025-03-30 17:23:25.775,-6.8125037244203845
2025-03-30 17:23:25.784,-13.008792697437066
2025-03-30 17:23:25.784,-5.940191846371664
2025-03-30 17:23:25.784,3.8375706080604113
2025-03-30 17:23:25.785,5.915481902478781
2025-03-30 17:23:25.785,1.4876466164543918
2025-03-30 17:23:25.794,-0.9028554091322256
2025-03-30 17:23:25.794,1.6892010096080565
2025-03-30 17:23:25.795,2.9922380315691193
2025-03-30 17:23:25.795,-2.0078682735228823
2025-03-30 17:23:25.795,-8.006437971189303
2025-03-30 17:23:25.804,-5.764187890981892
2025-03-30 17:23:25.804,4.3205912248614755
2025-03-30 17:23:25.804,11.017337431100065
2025-03-30 17:23:25.804,6.1630354545715
2025-03-30 17:23:25.804,-4.906727195557848
2025-03-30 17:23:25.814,-10.168397665206307
2025-03-30 17:23:25.814,-5.2465644500746915
2025-03-30 17:23:25.814,3.1407159579880917
2025-03-30 17:23:25.814,6.734685505417229
2025-03-30 17:23:25.815,4.290156860926901
2025-03-30 17:23:25.822,0.03891425240737734
2025-03-30 17:23:25.823,-2.5304703049440525
2025-03-30 17:23:25.823,-3.083470180973422
2025-03-30 17:23:25.823,-2.597229057614904
2025-03-30 17:23:25.832,-1.5245928364282668
2025-03-30 17:23:25.832,0.35399987934267696
2025-03-30 17:23:25.833,3.1077039447382586
2025-03-30 17:23:25.833,5.390034893391736
2025-03-30 17:23:25.833,4.269686839808042
2025-03-30 17:23:25.842,-1.7520648274415422
2025-03-30 17:23:25.842,-8.835700773401298
2025-03-30 17:23:25.842,-9.437031626379854
2025-03-30 17:23:25.843,-0.513975204811907
2025-03-30 17:23:25.843,10.859214671922718
2025-03-30 17:23:25.850,13.215338951533969
2025-03-30 17:23:25.851,3.0535399935480383
2025-03-30 17:23:25.851,-10.378286419868234
2025-03-30 17:23:25.851,-14.210632341169333
2025-03-30 17:23:25.851,-5.1620099145066725
2025-03-30 17:23:25.860,7.555446660247344
2025-03-30 17:23:25.861,12.091314612200282
2025-03-30 17:23:25.861,5.522650354402696
2025-03-30 17:23:25.861,-4.395986244694286
2025-03-30 17:23:25.870,-7.921720660041975
2025-03-30 17:23:25.870,-3.050671769967394
2025-03-30 17:23:25.871,3.349310126300834
2025-03-30 17:23:25.871,3.7155277810126983
2025-03-30 17:23:25.871,-1.66231045078729
2025-03-30 17:23:25.880,-5.276011578375238
2025-03-30 17:23:25.881,-1.602039503117129
2025-03-30 17:23:25.881,5.986801527232644
2025-03-30 17:23:25.881,8.953656316613008
2025-03-30 17:23:25.881,3.266058387781051
2025-03-30 17:23:25.889,-6.485324715139644
2025-03-30 17:23:25.889,-12.051998225768513
2025-03-30 17:23:25.889,-8.72006418766596
2025-03-30 17:23:25.889,1.6920484495348609
2025-03-30 17:23:25.889,12.193356668056628
2025-03-30 17:23:25.898,14.761822457459441
2025-03-30 17:23:25.899,6.209893524256088
2025-03-30 17:23:25.899,-8.015990390698084
2025-03-30 17:23:25.899,-16.966193635351715
2025-03-30 17:23:25.908,-13.114368121810669
2025-03-30 17:23:25.908,0.8316766039344008
2025-03-30 17:23:25.908,13.8397320843089
2025-03-30 17:23:25.909,15.741801816057716
2025-03-30 17:23:25.909,5.702528679305708
2025-03-30 17:23:25.918,-7.447970461934928
2025-03-30 17:23:25.918,-13.227849530443535
2025-03-30 17:23:25.918,-8.426135807325208
2025-03-30 17:23:25.918,1.1698578577887677
2025-03-30 17:23:25.919,7.156279514333699
2025-03-30 17:23:25.926,6.2583483053898386
2025-03-30 17:23:25.927,2.065286882559533
2025-03-30 17:23:25.927,-0.19844735500137478
2025-03-30 17:23:25.927,0.19047028344992523
2025-03-30 17:23:25.927,-0.6761777788978871
2025-03-30 17:23:25.937,-5.13843298934195
2025-03-30 17:23:25.937,-8.972996201266028
2025-03-30 17:23:25.937,-5.059899474545537
2025-03-30 17:23:25.937,6.929857771096023
2025-03-30 17:23:25.946,16.748824661587978
2025-03-30 17:23:25.946,12.798514069530981
2025-03-30 17:23:25.946,-4.320588040839781
2025-03-30 17:23:25.946,-19.93797523653157
2025-03-30 17:23:25.947,-19.009317953089965
2025-03-30 17:23:25.954,-1.4082866034175376
2025-03-30 17:23:25.955,17.4306972270238
2025-03-30 17:23:25.955,21.116153878402237
2025-03-30 17:23:25.955,7.227361018623393
2025-03-30 17:23:25.964,-11.499003371250405
2025-03-30 17:23:25.964,-19.3408171869835
2025-03-30 17:23:25.965,-10.898553945459968
2025-03-30 17:23:25.965,5.519848746208197
2025-03-30 17:23:25.965,15.783017727501122
2025-03-30 17:23:25.972,11.95639750545383
2025-03-30 17:23:25.973,-1.2980832821470298
2025-03-30 17:23:25.973,-11.556775053135826
2025-03-30 17:23:25.973,-10.531395089621695
2025-03-30 17:23:25.973,-1.2733152635226095
2025-03-30 17:23:25.982,6.527159966977023
2025-03-30 17:23:25.983,7.031798588773132
2025-03-30 17:23:25.983,2.577552279122509
2025-03-30 17:23:25.983,-1.3120206150918747
2025-03-30 17:23:25.992,-2.399674420388815
2025-03-30 17:23:25.993,-2.3786921347088077
2025-03-30 17:23:25.993,-2.8874064596486857
2025-03-30 17:23:25.993,-2.7117815977182986
2025-03-30 17:23:25.993,0.5241398325735307
2025-03-30 17:23:25.993,5.981998246952723
2025-03-30 17:23:26.002,8.126187001523098
2025-03-30 17:23:26.003,2.1795942456386976
2025-03-30 17:23:26.003,-8.235495920932676
2025-03-30 17:23:26.003,-12.352983662207896
2025-03-30 17:23:26.012,-4.30215539825638
2025-03-30 17:23:26.012,8.39943608578748
2025-03-30 17:23:26.012,12.581220657455628
2025-03-30 17:23:26.013,4.766150166975948
2025-03-30 17:23:26.013,-5.512108262449867
2025-03-30 17:23:26.021,-7.948265744235212
2025-03-30 17:23:26.021,-2.7675463350456546
2025-03-30 17:23:26.021,1.9612900426668498
2025-03-30 17:23:26.021,1.1613263049938816
2025-03-30 17:23:26.021,-2.0938352146661923
2025-03-30 17:23:26.030,-1.6099651213806032
2025-03-30 17:23:26.031,3.808857902298488
2025-03-30 17:23:26.031,8.261255513043546
2025-03-30 17:23:26.031,5.050182439175121
2025-03-30 17:23:26.040,-4.952696833791721
2025-03-30 17:23:26.040,-12.409160180409748
2025-03-30 17:23:26.041,-8.752166143975943
2025-03-30 17:23:26.041,3.5883749477856526
2025-03-30 17:23:26.041,12.39454587191881
2025-03-30 17:23:26.049,8.719124969412647
2025-03-30 17:23:26.049,-2.7813488284765033
2025-03-30 17:23:26.049,-9.136618428914447
2025-03-30 17:23:26.049,-4.186898638337891
2025-03-30 17:23:26.049,4.654258707744638
2025-03-30 17:23:26.058,5.832187765259326
2025-03-30 17:23:26.059,-2.3883643838871795
2025-03-30 17:23:26.059,-9.58836048557785
2025-03-30 17:23:26.059,-5.094569370926664
2025-03-30 17:23:26.068,8.534460540712864
2025-03-30 17:23:26.068,15.972233751911569
2025-03-30 17:23:26.068,5.948350947510034
2025-03-30 17:23:26.068,-13.145699775918974
2025-03-30 17:23:26.069,-20.039870346222457
2025-03-30 17:23:26.076,-5.520238591866801
2025-03-30 17:23:26.077,15.003341317803413
2025-03-30 17:23:26.077,19.137155011309606
2025-03-30 17:23:26.077,3.7138547520473395
2025-03-30 17:23:26.086,-13.285832060999073
2025-03-30 17:23:26.086,-15.016116461957456
2025-03-30 17:23:26.087,-2.827366012107821
2025-03-30 17:23:26.087,9.330532612464147
2025-03-30 17:23:26.087,11.066363689945712
2025-03-30 17:23:26.096,3.3765436911689912
2025-03-30 17:23:26.096,-5.3791549524333355
2025-03-30 17:23:26.097,-7.741314148084495
2025-03-30 17:23:26.097,-3.089355540192302
2025-03-30 17:23:26.097,2.481063732625803
2025-03-30 17:23:26.106,3.104548405438778
2025-03-30 17:23:26.106,0.08565838016928845
2025-03-30 17:23:26.106,-0.6563169194134195
2025-03-30 17:23:26.107,2.217412765912906
2025-03-30 17:23:26.107,3.6038149230894767
2025-03-30 17:23:26.114,0.48797733604749166
2025-03-30 17:23:26.115,-3.314782227459655
2025-03-30 17:23:26.115,-3.836397162521482
2025-03-30 17:23:26.115,-2.8278783147987507
2025-03-30 17:23:26.115,-2.6726082068303074
2025-03-30 17:23:26.125,-0.5567880887468014
2025-03-30 17:23:26.125,6.113344192447507
2025-03-30 17:23:26.125,11.69278383463828
2025-03-30 17:23:26.125,7.133258537513909
2025-03-30 17:23:26.125,-6.82906903056993
2025-03-30 17:23:26.134,-17.322126806918092
2025-03-30 17:23:26.135,-12.902688173573614
2025-03-30 17:23:26.135,3.4652347569196196
2025-03-30 17:23:26.135,17.124904242709786
2025-03-30 17:23:26.142,15.935386465242605
2025-03-30 17:23:26.143,1.2276042545196537
2025-03-30 17:23:26.143,-13.376301334729373
2025-03-30 17:23:26.143,-14.208799163494067
2025-03-30 17:23:26.143,-1.5509689276333067
2025-03-30 17:23:26.152,9.322480137277742
2025-03-30 17:23:26.153,5.557394278466529
2025-03-30 17:23:26.153,-5.963847943493606
2025-03-30 17:23:26.153,-6.503863324138302
2025-03-30 17:23:26.162,7.932932775021245
2025-03-30 17:23:26.162,17.939348231262336
2025-03-30 17:23:26.162,5.698920778778136
2025-03-30 17:23:26.163,-18.690026485993346
2025-03-30 17:23:26.163,-26.841735821664436
2025-03-30 17:23:26.170,-6.908089585691597
2025-03-30 17:23:26.171,21.030120952411266
2025-03-30 17:23:26.171,27.894157884610273
2025-03-30 17:23:26.171,7.930190900824347
2025-03-30 17:23:26.179,-16.867758795291294
2025-03-30 17:23:26.179,-22.11974997407287
2025-03-30 17:23:26.179,-5.967331717517004
2025-03-30 17:23:26.179,11.99096188723713
2025-03-30 17:23:26.179,13.50803911614657
2025-03-30 17:23:26.188,0.4995831612960424
2025-03-30 17:23:26.189,-9.5723209600329
2025-03-30 17:23:26.189,-5.0943658436500305
2025-03-30 17:23:26.189,6.576607059856751
2025-03-30 17:23:26.196,9.231788832071139
2025-03-30 17:23:26.197,-1.624811008071883
2025-03-30 17:23:26.197,-12.924806635471727
2025-03-30 17:23:26.197,-9.909137390518609
2025-03-30 17:23:26.197,5.613482061289167
2025-03-30 17:23:26.206,16.695446256478817
2025-03-30 17:23:26.206,10.723933244149743
2025-03-30 17:23:26.207,-6.180425380966876
2025-03-30 17:23:26.207,-16.4583993274499
2025-03-30 17:23:26.216,-10.632597775881932
2025-03-30 17:23:26.216,3.785235995195887
2025-03-30 17:23:26.216,12.354611109750415
2025-03-30 17:23:26.217,8.972426542104072
2025-03-30 17:23:26.217,-0.4051265786259093
2025-03-30 17:23:26.224,-6.515395566877883
2025-03-30 17:23:26.225,-5.966334868760654
2025-03-30 17:23:26.225,-1.8578996118766904
2025-03-30 17:23:26.225,1.640204406652393
2025-03-30 17:23:26.234,2.985326102830785
2025-03-30 17:23:26.234,2.450082190283461
2025-03-30 17:23:26.235,0.4722502798235422
2025-03-30 17:23:26.235,-1.8870701647585395
2025-03-30 17:23:26.235,-2.4959455585938914
2025-03-30 17:23:26.244,-0.21773777181294196
2025-03-30 17:23:26.244,2.939861331126971
2025-03-30 17:23:26.245,3.4607556574280998
2025-03-30 17:23:26.245,0.3116483821232817
2025-03-30 17:23:26.245,-3.843029208213899
2025-03-30 17:23:26.254,-5.47597662890599
2025-03-30 17:23:26.254,-3.2087636209467973
2025-03-30 17:23:26.255,1.8108732290296097
2025-03-30 17:23:26.255,6.8640987036560315
2025-03-30 17:23:26.255,8.413319282497033
2025-03-30 17:23:26.264,3.774239289513316
2025-03-30 17:23:26.264,-5.672060532629005
2025-03-30 17:23:26.265,-13.09623838520072
2025-03-30 17:23:26.265,-10.757919811806623
2025-03-30 17:23:26.265,1.7849233516488132
2025-03-30 17:23:26.273,14.69202642749193
2025-03-30 17:23:26.273,15.725554642948314
2025-03-30 17:23:26.273,2.6508382689612624
2025-03-30 17:23:26.273,-13.038650051579438
2025-03-30 17:23:26.282,-16.458869231933182
2025-03-30 17:23:26.282,-4.310664013839038
2025-03-30 17:23:26.283,10.92195625395059
2025-03-30 17:23:26.283,13.261706099368572
2025-03-30 17:23:26.283,0.5775831465154079
2025-03-30 17:23:26.290,-12.017720216886504
2025-03-30 17:23:26.291,-8.667345169359503
2025-03-30 17:23:26.291,7.927051995185231
2025-03-30 17:23:26.291,17.71555502907395
2025-03-30 17:23:26.299,6.188197548412077
2025-03-30 17:23:26.299,-16.755577142188383
2025-03-30 17:23:26.299,-25.607604426180675
2025-03-30 17:23:26.299,-7.789985681477886
2025-03-30 17:23:26.308,20.50719199995641
2025-03-30 17:23:26.308,30.525024677720463
2025-03-30 17:23:26.308,11.811468156966784
2025-03-30 17:23:26.309,-16.76072374292191
2025-03-30 17:23:26.309,-27.72761005655467
2025-03-30 17:23:26.316,-13.644756483530966
2025-03-30 17:23:26.317,7.929907932198633
2025-03-30 17:23:26.317,16.32121239524305
2025-03-30 17:23:26.317,9.332934830668167
2025-03-30 17:23:26.317,0.47293384581693654
2025-03-30 17:23:26.326,-0.8773099108202203
2025-03-30 17:23:26.326,0.5296531614981664
2025-03-30 17:23:26.327,-3.5836813783756183
2025-03-30 17:23:26.327,-10.988231928593333
2025-03-30 17:23:26.336,-11.073799580163822
2025-03-30 17:23:26.336,0.5724694154927059
2025-03-30 17:23:26.336,14.683004633848098
2025-03-30 17:23:26.337,17.32101070549171
2025-03-30 17:23:26.337,4.813065951896873
2025-03-30 17:23:26.344,-11.825746342892286
2025-03-30 17:23:26.345,-17.500838886185658
2025-03-30 17:23:26.345,-7.809751108371494
2025-03-30 17:23:26.345,7.016983643452119
2025-03-30 17:23:26.354,13.044504370176673
2025-03-30 17:23:26.354,6.703980635684072
2025-03-30 17:23:26.355,-3.2231732318990556
2025-03-30 17:23:26.355,-6.842274425396515
2025-03-30 17:23:26.355,-3.404091495885488
2025-03-30 17:23:26.364,0.8410075440375266
2025-03-30 17:23:26.364,1.906412849933075
2025-03-30 17:23:26.364,1.3370156735862722
2025-03-30 17:23:26.365,1.0598284178563155
2025-03-30 17:23:26.365,-0.1976243850921794
2025-03-30 17:23:26.373,-3.0752779608668543
2025-03-30 17:23:26.373,-3.80317773398035
2025-03-30 17:23:26.373,1.2541807589213323
2025-03-30 17:23:26.373,8.275791494155905
2025-03-30 17:23:26.382,8.109900658189192
2025-03-30 17:23:26.382,-2.2993695536413843
2025-03-30 17:23:26.382,-13.673318684375836
2025-03-30 17:23:26.383,-13.130244191582069
2025-03-30 17:23:26.383,0.9508442094776582
2025-03-30 17:23:26.390,15.575237586422478
2025-03-30 17:23:26.391,16.323495256795766
2025-03-30 17:23:26.391,2.64057599794412
2025-03-30 17:23:26.391,-12.069151672275378
2025-03-30 17:23:26.400,-15.07178128424407
2025-03-30 17:23:26.401,-6.438495785192025
2025-03-30 17:23:26.401,4.023768335544291
2025-03-30 17:23:26.401,8.85749734382279
2025-03-30 17:23:26.401,8.545811240707735
2025-03-30 17:23:26.401,5.846873316105401
2025-03-30 17:23:26.410,-0.045740079304425224
2025-03-30 17:23:26.410,-9.343543015280348
2025-03-30 17:23:26.411,-14.799873152782235
2025-03-30 17:23:26.411,-7.136353770358856
2025-03-30 17:23:26.418,10.388680633648994
2025-03-30 17:23:26.419,20.255405616225957
2025-03-30 17:23:26.419,9.91643061488508
2025-03-30 17:23:26.419,-11.144137989293807
2025-03-30 17:23:26.428,-20.719906753087376
2025-03-30 17:23:26.428,-9.301499342261893
2025-03-30 17:23:26.429,9.978274134263549
2025-03-30 17:23:26.429,17.467970860350658
2025-03-30 17:23:26.429,7.8612193862896085
2025-03-30 17:23:26.438,-7.124636646101086
2025-03-30 17:23:26.438,-13.083887336177677
2025-03-30 17:23:26.439,-6.587409412475228
2025-03-30 17:23:26.439,4.059402493662561
2025-03-30 17:23:26.439,8.59094589528434
2025-03-30 17:23:26.446,4.497819174648968
2025-03-30 17:23:26.447,-1.8915707881965558
2025-03-30 17:23:26.447,-3.2403370782943326
2025-03-30 17:23:26.447,0.26851474057839575
2025-03-30 17:23:26.447,1.4922913633919093
2025-03-30 17:23:26.456,-3.5892791823009635
2025-03-30 17:23:26.457,-8.540183815182502
2025-03-30 17:23:26.457,-3.4319088588332787
2025-03-30 17:23:26.457,10.430152069418451
2025-03-30 17:23:26.464,17.997878943083336
2025-03-30 17:23:26.465,7.218362820664884
2025-03-30 17:23:26.465,-14.033568797027769
2025-03-30 17:23:26.465,-23.787154012797302
2025-03-30 17:23:26.465,-10.527915324591342
2025-03-30 17:23:26.474,12.490414568448214
2025-03-30 17:23:26.475,21.710979780166962
2025-03-30 17:23:26.475,9.95456598655463
2025-03-30 17:23:26.475,-7.060844937939352
2025-03-30 17:23:26.483,-11.512360285317001
2025-03-30 17:23:26.483,-4.113304382831279
2025-03-30 17:23:26.483,1.0670076277349296
2025-03-30 17:23:26.483,-2.138158956100621
2025-03-30 17:23:26.483,-4.6682227580849975
2025-03-30 17:23:26.492,2.487678865012848
2025-03-30 17:23:26.493,13.121498747719043
2025-03-30 17:23:26.493,12.30384705164126
2025-03-30 17:23:26.493,-3.4933579110024384
2025-03-30 17:23:26.502,-18.886349957926562
2025-03-30 17:23:26.502,-15.803306778813539
2025-03-30 17:23:26.502,4.601236942279861
2025-03-30 17:23:26.503,20.94813254534006
2025-03-30 17:23:26.503,14.88621610561574
2025-03-30 17:23:26.510,-7.438651001266882
2025-03-30 17:23:26.511,-21.482245914335067
2025-03-30 17:23:26.511,-11.822196449970367
2025-03-30 17:23:26.511,10.641215195557928
2025-03-30 17:23:26.518,21.291568122215114
2025-03-30 17:23:26.519,9.065374665570875
2025-03-30 17:23:26.519,-12.256172977632202
2025-03-30 17:23:26.519,-19.956748152817582
2025-03-30 17:23:26.528,-6.892766727755965
2025-03-30 17:23:26.528,11.909087400748906
2025-03-30 17:23:26.529,16.6585997913499
2025-03-30 17:23:26.529,4.202393304826414
2025-03-30 17:23:26.529,-10.240528657113273
2025-03-30 17:23:26.538,-11.574387234259866
2025-03-30 17:23:26.538,-1.0146444137164763
2025-03-30 17:23:26.538,7.955725062046059
2025-03-30 17:23:26.539,6.374375639794686
2025-03-30 17:23:26.539,-1.5558579480521852
2025-03-30 17:23:26.548,-5.825435487970537
2025-03-30 17:23:26.548,-2.579470992919982
2025-03-30 17:23:26.548,3.04776130532837
2025-03-30 17:23:26.548,4.272034423540024
2025-03-30 17:23:26.549,0.45094602404179474
2025-03-30 17:23:26.558,-3.2351012638108863
2025-03-30 17:23:26.558,-2.770785624368978
2025-03-30 17:23:26.559,0.168194960711734
2025-03-30 17:23:26.559,1.51324934556918
2025-03-30 17:23:26.559,0.6078363033190928
2025-03-30 17:23:26.567,0.24342279573765707
2025-03-30 17:23:26.567,1.5727721176772524
2025-03-30 17:23:26.567,1.998950894465444
2025-03-30 17:23:26.567,-0.695161385276047
2025-03-30 17:23:26.567,-4.1540671472358675
2025-03-30 17:23:26.578,-3.710520699404588
2025-03-30 17:23:26.578,1.2591944087784444
2025-03-30 17:23:26.578,5.304243737324937
2025-03-30 17:23:26.579,2.9575377978372166
2025-03-30 17:23:26.579,-3.6814154879805865
2025-03-30 17:23:26.586,-6.041172732620043
2025-03-30 17:23:26.587,0.4205443466697039
2025-03-30 17:23:26.587,8.743986951633877
2025-03-30 17:23:26.587,7.451977676894269
2025-03-30 17:23:26.596,-4.491964476021205
2025-03-30 17:23:26.596,-14.068057304480492
2025-03-30 17:23:26.597,-8.913280069209135
2025-03-30 17:23:26.597,6.863336371387241
2025-03-30 17:23:26.597,16.270782496012668
2025-03-30 17:23:26.604,8.973023898497752
2025-03-30 17:23:26.605,-6.846746002796343
2025-03-30 17:23:26.605,-14.279834066016425
2025-03-30 17:23:26.605,-6.861460335647635
2025-03-30 17:23:26.605,5.437122039312568
2025-03-30 17:23:26.614,9.201672563588565
2025-03-30 17:23:26.615,2.857266591711716
2025-03-30 17:23:26.615,-3.7728529372788984
2025-03-30 17:23:26.615,-3.116644781917917
2025-03-30 17:23:26.615,1.5888428999036626
2025-03-30 17:23:26.624,2.541037541636873
2025-03-30 17:23:26.625,-1.6148096496540336
2025-03-30 17:23:26.625,-4.5667202966991285
2025-03-30 17:23:26.625,-1.384773313253626
2025-03-30 17:23:26.634,4.422967128974004
2025-03-30 17:23:26.635,4.9524048541467796
2025-03-30 17:23:26.635,-1.5497153931459053
2025-03-30 17:23:26.635,-6.978833885624508
2025-03-30 17:23:26.635,-2.919271286811576
2025-03-30 17:23:26.644,7.230578683698634
2025-03-30 17:23:26.644,10.397142282888689
2025-03-30 17:23:26.644,0.17249489869293833
2025-03-30 17:23:26.645,-13.154075509605745
2025-03-30 17:23:26.645,-13.655789707771891
2025-03-30 17:23:26.652,0.7120124737240825
2025-03-30 17:23:26.653,14.969475862031155
2025-03-30 17:23:26.653,14.563914353643078
2025-03-30 17:23:26.653,1.500016355329299
2025-03-30 17:23:26.653,-10.062434717289054
2025-03-30 17:23:26.662,-11.152744979775374
2025-03-30 17:23:26.662,-5.6028251486439995
2025-03-30 17:23:26.662,-0.6551122927278394
2025-03-30 17:23:26.662,3.306880658597857
2025-03-30 17:23:26.672,9.020173623992983
2025-03-30 17:23:26.672,12.719219389755217
2025-03-30 17:23:26.672,6.466972439793222
2025-03-30 17:23:26.672,-8.853811640141448
2025-03-30 17:23:26.672,-19.909490614388986
2025-03-30 17:23:26.680,-14.74757271103459
2025-03-30 17:23:26.680,3.2069475441598216
2025-03-30 17:23:26.680,18.657322719379035
2025-03-30 17:23:26.680,19.472089243454548
2025-03-30 17:23:26.688,5.831474322605562
2025-03-30 17:23:26.688,-11.761739046889996
2025-03-30 17:23:26.688,-19.934633323157634
2025-03-30 17:23:26.689,-11.825712787679103
2025-03-30 17:23:26.689,5.653488271367967
2025-03-30 17:23:26.698,16.075777658019366
2025-03-30 17:23:26.698,10.029854332016395
2025-03-30 17:23:26.698,-3.9346357926923745
2025-03-30 17:23:26.698,-9.485296440568504
2025-03-30 17:23:26.708,-2.3346739773829066
2025-03-30 17:23:26.708,5.74266169573792
2025-03-30 17:23:26.708,3.344233186253697
2025-03-30 17:23:26.708,-5.850516448172357
2025-03-30 17:23:26.708,-8.692982075724387
2025-03-30 17:23:26.716,0.002692560164045288
2025-03-30 17:23:26.716,10.764091613663485
2025-03-30 17:23:26.717,11.007547786159684
2025-03-30 17:23:26.717,-0.21491367336879263
2025-03-30 17:23:26.726,-11.527141614156774
2025-03-30 17:23:26.726,-11.912204640550241
2025-03-30 17:23:26.726,-1.6256108994556167
2025-03-30 17:23:26.726,9.343760766668098
2025-03-30 17:23:26.726,11.469509107865422
2025-03-30 17:23:26.736,3.7250132869925427
2025-03-30 17:23:26.736,-6.565067775559363
2025-03-30 17:23:26.736,-10.371104521644769
2025-03-30 17:23:26.736,-4.646413921951211
2025-03-30 17:23:26.736,4.874701820345361
2025-03-30 17:23:26.746,9.012916331729695
2025-03-30 17:23:26.746,4.430890400417763
2025-03-30 17:23:26.746,-3.2385505380341773
2025-03-30 17:23:26.746,-6.519977246508459
2025-03-30 17:23:26.746,-4.329365627647962
2025-03-30 17:23:26.756,-0.7735461786278071
2025-03-30 17:23:26.756,1.8975706419838017
2025-03-30 17:23:26.756,4.61737794907283
2025-03-30 17:23:26.756,6.519689432424788
2025-03-30 17:23:26.756,4.094012191601982
2025-03-30 17:23:26.764,-2.961892568449582
2025-03-30 17:23:26.764,-9.22390812348365
2025-03-30 17:23:26.764,-9.312901117726424
2025-03-30 17:23:26.764,-3.3422940726352364
2025-03-30 17:23:26.774,4.934000126423008
2025-03-30 17:23:26.774,11.747846370717395
2025-03-30 17:23:26.774,12.946739925128561
2025-03-30 17:23:26.774,4.722669917783272
2025-03-30 17:23:26.774,-10.21885494285129
2025-03-30 17:23:26.782,-19.955901099622796
2025-03-30 17:23:26.782,-13.533426474794576
2025-03-30 17:23:26.782,5.173384558091292
2025-03-30 17:23:26.782,18.96501600611992
2025-03-30 17:23:26.792,15.49503001286578
2025-03-30 17:23:26.792,0.6326567298881021
2025-03-30 17:23:26.792,-9.728735682062622
2025-03-30 17:23:26.792,-8.683865178571793
2025-03-30 17:23:26.792,-3.7542345219261537
2025-03-30 17:23:26.802,-3.188820563633934
2025-03-30 17:23:26.802,-3.6762907922215793
2025-03-30 17:23:26.802,2.780821400120905
2025-03-30 17:23:26.802,13.490416720926333
2025-03-30 17:23:26.802,15.159693363412497
2025-03-30 17:23:26.810,1.3662316162621722
2025-03-30 17:23:26.810,-16.46718878563462
2025-03-30 17:23:26.810,-20.506528480660226
2025-03-30 17:23:26.810,-6.427544775574627
2025-03-30 17:23:26.818,12.191430802929737
2025-03-30 17:23:26.818,18.62927485110733
2025-03-30 17:23:26.818,9.172869181380168
2025-03-30 17:23:26.819,-5.356153451478907
2025-03-30 17:23:26.819,-11.728853053176486
2025-03-30 17:23:26.828,-6.915972638316048
2025-03-30 17:23:26.828,0.8425479380591416
2025-03-30 17:23:26.828,2.822608013195607
2025-03-30 17:23:26.829,-0.039079983139140184
2025-03-30 17:23:26.838,-0.08098403961404416
2025-03-30 17:23:26.838,5.007782570236129
2025-03-30 17:23:26.838,7.9317730048618875
2025-03-30 17:23:26.838,1.995111272943607
2025-03-30 17:23:26.838,-8.444903564680503
2025-03-30 17:23:26.848,-12.317493739402765
2025-03-30 17:23:26.848,-5.2098026483939295
2025-03-30 17:23:26.848,5.898670582971199
2025-03-30 17:23:26.848,11.290027568136507
2025-03-30 17:23:26.848,8.134068896975808
2025-03-30 17:23:26.856,0.5485658082598517
2025-03-30 17:23:26.856,-6.25182102143731
2025-03-30 17:23:26.856,-9.133198962060138
2025-03-30 17:23:26.857,-6.690148162524091
2025-03-30 17:23:26.857,0.28328980140138993
2025-03-30 17:23:26.866,7.556060804631255
2025-03-30 17:23:26.866,9.512024250471313
2025-03-30 17:23:26.866,4.253089044971331
2025-03-30 17:23:26.866,-4.019311013005903
2025-03-30 17:23:26.867,-8.688437441887189
2025-03-30 17:23:26.878,-6.596085838150966
2025-03-30 17:23:26.878,-0.06133344116814121
2025-03-30 17:23:26.878,5.9038651237001085
2025-03-30 17:23:26.878,7.295010581836669
2025-03-30 17:23:26.878,3.107045561780841
2025-03-30 17:23:26.886,-3.82612388888243
2025-03-30 17:23:26.886,-7.67151715486598
2025-03-30 17:23:26.886,-4.143755151317641
2025-03-30 17:23:26.886,4.022247133514146
2025-03-30 17:23:26.896,8.306358655699706
2025-03-30 17:23:26.896,3.5872312119002
2025-03-30 17:23:26.896,-5.1541871203907625
2025-03-30 17:23:26.896,-8.08279714277286
2025-03-30 17:23:26.896,-2.247193655481982
2025-03-30 17:23:26.906,4.875528502375049
2025-03-30 17:23:26.906,4.995309345336997
2025-03-30 17:23:26.906,-0.307309900563696
2025-03-30 17:23:26.906,-2.2429219761762305
2025-03-30 17:23:26.906,2.052197312192485
2025-03-30 17:23:26.916,4.370771981317478
2025-03-30 17:23:26.916,-2.514936271044988
2025-03-30 17:23:26.916,-11.559910048583996
2025-03-30 17:23:26.916,-8.21428123257024
2025-03-30 17:23:26.916,8.517212661728122
2025-03-30 17:23:26.924,20.05012822420202
2025-03-30 17:23:26.924,9.620616572509313
2025-03-30 17:23:26.924,-14.445257370124128
2025-03-30 17:23:26.924,-25.23690339346818
2025-03-30 17:23:26.932,-8.387336053694058
2025-03-30 17:23:26.932,19.400290559897904
2025-03-30 17:23:26.932,27.6614869995172
2025-03-30 17:23:26.933,6.225148216375967
2025-03-30 17:23:26.933,-22.76829293122126
2025-03-30 17:23:26.942,-28.62362906177849
2025-03-30 17:23:26.942,-5.125485837451421
2025-03-30 17:23:26.942,23.393649648787697
2025-03-30 17:23:26.942,28.36091624699048
2025-03-30 17:23:26.950,6.0068015762844515
2025-03-30 17:23:26.950,-20.749526551496892
2025-03-30 17:23:26.950,-26.594272005737945
2025-03-30 17:23:26.950,-7.883634967952053
2025-03-30 17:23:26.960,16.05869230933035
2025-03-30 17:23:26.960,23.058118510812548
2025-03-30 17:23:26.960,8.862091822497971
2025-03-30 17:23:26.960,-10.907095921276916
2025-03-30 17:23:26.960,-17.756162161885875
2025-03-30 17:23:26.970,-7.9911269803372305
2025-03-30 17:23:26.970,6.257361117649661
2025-03-30 17:23:26.970,11.385143339391707
2025-03-30 17:23:26.970,5.412395243333189
2025-03-30 17:23:26.970,-2.9348347921916833
2025-03-30 17:23:26.980,-5.357461925915475
2025-03-30 17:23:26.980,-1.8786818940830599
2025-03-30 17:23:26.980,1.6317748909410288
2025-03-30 17:23:26.980,1.1880248510024563
2025-03-30 17:23:26.980,-1.463030286262446
2025-03-30 17:23:26.990,-1.985042078620486
2025-03-30 17:23:26.990,0.8580414677671842
2025-03-30 17:23:26.990,3.5106642567134627
2025-03-30 17:23:26.990,2.0926984066709777
2025-03-30 17:23:26.990,-2.0846965529213617
2025-03-30 17:23:27.000,-3.5296272929277834
2025-03-30 17:23:27.000,-0.021329689862731066
2025-03-30 17:23:27.000,3.478074919430018
2025-03-30 17:23:27.000,1.3527269668714381
2025-03-30 17:23:27.000,-3.873240637850672
2025-03-30 17:23:27.008,-4.094433602811141
2025-03-30 17:23:27.008,2.402599131533261
2025-03-30 17:23:27.008,6.990960530394194
2025-03-30 17:23:27.008,2.3359660932769137
2025-03-30 17:23:27.009,-6.276464819068421
2025-03-30 17:23:27.018,-7.230926137988868
2025-03-30 17:23:27.018,1.3409285794588122
2025-03-30 17:23:27.019,8.492200603505882
2025-03-30 17:23:27.019,5.026985013023123
2025-03-30 17:23:27.019,-4.485763216426805
2025-03-30 17:23:27.028,-8.188595529425422
2025-03-30 17:23:27.028,-2.1703757981805776
2025-03-30 17:23:27.028,5.618617032690061
2025-03-30 17:23:27.028,6.111480954170993
2025-03-30 17:23:27.038,-0.3810037297407995
2025-03-30 17:23:27.038,-5.787840246409892
2025-03-30 17:23:27.038,-3.9962424912150927
2025-03-30 17:23:27.038,2.829625756985237
2025-03-30 17:23:27.039,6.947176534491908
2025-03-30 17:23:27.048,3.213863633289723
2025-03-30 17:23:27.048,-5.2180819850118425
2025-03-30 17:23:27.048,-9.515587820553645
2025-03-30 17:23:27.048,-4.178837127713357
2025-03-30 17:23:27.048,6.589944169485807
2025-03-30 17:23:27.056,12.294357339012716
2025-03-30 17:23:27.056,6.469406490652986
2025-03-30 17:23:27.056,-6.228392915176186
2025-03-30 17:23:27.056,-13.690816171033557
2025-03-30 17:23:27.066,-8.288721543702854
2025-03-30 17:23:27.066,4.626508148999984
2025-03-30 17:23:27.066,11.904100304760783
2025-03-30 17:23:27.066,7.149329010338542
2025-03-30 17:23:27.066,-2.43093641712134
2025-03-30 17:23:27.076,-5.93671038248885
2025-03-30 17:23:27.076,-2.4870685585574517
2025-03-30 17:23:27.076,-0.1530422251162118
2025-03-30 17:23:27.076,-2.5354351813215166
2025-03-30 17:23:27.076,-3.409726412689423
2025-03-30 17:23:27.086,2.5511711633583025
2025-03-30 17:23:27.086,9.656075206496297
2025-03-30 17:23:27.086,7.752154660368904
2025-03-30 17:23:27.086,-3.4323225198473377
2025-03-30 17:23:27.086,-12.552435440369045
2025-03-30 17:23:27.096,-9.86031619256985
2025-03-30 17:23:27.096,1.973909223574745
2025-03-30 17:23:27.096,11.565955395305071
2025-03-30 17:23:27.096,10.613386693423262
2025-03-30 17:23:27.096,0.8122223559097207
2025-03-30 17:23:27.104,-8.835444347732825
2025-03-30 17:23:27.104,-10.227178979837905
2025-03-30 17:23:27.104,-3.014173732766727
2025-03-30 17:23:27.105,5.565467517754451
2025-03-30 17:23:27.114,8.119039207950054
2025-03-30 17:23:27.114,4.140738053806383
2025-03-30 17:23:27.114,-1.3562238609263426
2025-03-30 17:23:27.114,-4.728699380066138
2025-03-30 17:23:27.114,-5.883128571176741
2025-03-30 17:23:27.124,-4.253856710355939
2025-03-30 17:23:27.124,1.8886331563324184
2025-03-30 17:23:27.124,9.695696785604413
2025-03-30 17:23:27.124,10.421915727279128
2025-03-30 17:23:27.124,-0.5866177584911427
2025-03-30 17:23:27.134,-14.448706738891687
2025-03-30 17:23:27.134,-15.530195650418905
2025-03-30 17:23:27.134,0.22337442514287842
2025-03-30 17:23:27.134,17.725732939915805
2025-03-30 17:23:27.134,17.863586550992
2025-03-30 17:23:27.142,-0.4978850285188874
2025-03-30 17:23:27.142,-18.014248915774253
2025-03-30 17:23:27.142,-16.282772324837072
2025-03-30 17:23:27.142,1.6167468790405561
2025-03-30 17:23:27.150,15.587130000667992
2025-03-30 17:23:27.150,11.690395539596228
2025-03-30 17:23:27.150,-3.5608814458020577
2025-03-30 17:23:27.151,-12.464703618059076
2025-03-30 17:23:27.151,-6.143181502122919
2025-03-30 17:23:27.160,6.762844517584329
2025-03-30 17:23:27.160,10.550360589000396
2025-03-30 17:23:27.160,0.3727564840843993
2025-03-30 17:23:27.160,-11.600566008151702
2025-03-30 17:23:27.170,-9.824162921885295
2025-03-30 17:23:27.170,5.356707762846126
2025-03-30 17:23:27.170,16.44827224945283
2025-03-30 17:23:27.170,9.346269096836805
2025-03-30 17:23:27.170,-8.937759794545693
2025-03-30 17:23:27.178,-18.19678216955277
2025-03-30 17:23:27.178,-8.828335038932323
2025-03-30 17:23:27.178,8.128039644592418
2025-03-30 17:23:27.178,15.283749713875098
2025-03-30 17:23:27.188,7.93853075743072
2025-03-30 17:23:27.188,-3.8664530442132374
2025-03-30 17:23:27.188,-8.809853394372707
2025-03-30 17:23:27.188,-5.563772169220778
2025-03-30 17:23:27.188,-0.7731685677232973
2025-03-30 17:23:27.198,0.8353570422913128
2025-03-30 17:23:27.198,1.3084708681154795
2025-03-30 17:23:27.198,4.096016035386567
2025-03-30 17:23:27.198,6.811770685568944
2025-03-30 17:23:27.198,3.3970457595994414
2025-03-30 17:23:27.208,-6.086998445947536
2025-03-30 17:23:27.208,-12.25537729185554
2025-03-30 17:23:27.208,-6.7094254222812255
2025-03-30 17:23:27.208,6.432504846571252
2025-03-30 17:23:27.208,13.791394178906542
2025-03-30 17:23:27.216,7.872540402083374
2025-03-30 17:23:27.216,-4.628986272775743
2025-03-30 17:23:27.216,-11.113747250429983
2025-03-30 17:23:27.216,-6.914076893661857
2025-03-30 17:23:27.226,1.5443466655924392
2025-03-30 17:23:27.226,5.808413049311088
2025-03-30 17:23:27.226,4.257377300505832
2025-03-30 17:23:27.226,1.1421159486961314
2025-03-30 17:23:27.226,-0.4093500792104862
2025-03-30 17:23:27.236,-1.2980373714460256
2025-03-30 17:23:27.236,-2.704810951907377
2025-03-30 17:23:27.236,-2.927006106629082
2025-03-30 17:23:27.236,-0.16795336124391663
2025-03-30 17:23:27.237,3.409114278336082
2025-03-30 17:23:27.237,3.535794580090001
2025-03-30 17:23:27.246,-0.3105256296832219
2025-03-30 17:23:27.246,-3.6034794988833365
2025-03-30 17:23:27.246,-2.3825803328089488
2025-03-30 17:23:27.246,1.6976901545030942
2025-03-30 17:23:27.256,3.5502264557086387
2025-03-30 17:23:27.256,0.956211139769149
2025-03-30 17:23:27.256,-2.9706431469544303
2025-03-30 17:23:27.256,-3.6134632638103423
2025-03-30 17:23:27.256,-0.08276452981283941
2025-03-30 17:23:27.266,3.8362497336985246
2025-03-30 17:23:27.266,3.788632904861258
2025-03-30 17:23:27.266,-0.340718080841561
2025-03-30 17:23:27.266,-4.131081049053813
2025-03-30 17:23:27.266,-3.456705952073772
2025-03-30 17:23:27.276,0.8287150691057252
2025-03-30 17:23:27.276,3.8333874705105058
2025-03-30 17:23:27.276,2.2530315423047615
2025-03-30 17:23:27.276,-1.83290472241027
2025-03-30 17:23:27.276,-3.4540529074074007
2025-03-30 17:23:27.286,-0.6321528817681183
2025-03-30 17:23:27.286,3.267338687958552
2025-03-30 17:23:27.286,3.4839298310591293
2025-03-30 17:23:27.286,-0.5544867141323604
2025-03-30 17:23:27.286,-4.482432626773871
2025-03-30 17:23:27.294,-3.839192762627798
2025-03-30 17:23:27.294,0.9531776692555507
2025-03-30 17:23:27.294,4.91140062942861
2025-03-30 17:23:27.295,3.846586017216751
2025-03-30 17:23:27.295,-0.992813615969302
2025-03-30 17:23:27.304,-4.308254157471962
2025-03-30 17:23:27.304,-2.8274301982978107
2025-03-30 17:23:27.304,1.085434377867493
2025-03-30 17:23:27.304,2.713995489372266
2025-03-30 17:23:27.314,0.8847137642772457
2025-03-30 17:23:27.314,-1.147436322881452
2025-03-30 17:23:27.314,-0.5792918363424684
2025-03-30 17:23:27.314,1.2373777582508807
2025-03-30 17:23:27.314,1.1151919928814011
2025-03-30 17:23:27.324,-1.2923467177814305
2025-03-30 17:23:27.324,-2.918861267817395
2025-03-30 17:23:27.324,-1.2635320819626141
2025-03-30 17:23:27.324,2.3477005619273905
2025-03-30 17:23:27.324,4.004285538093611
2025-03-30 17:23:27.334,1.4711702489165523
2025-03-30 17:23:27.334,-2.9918561716047445
2025-03-30 17:23:27.334,-4.51516095900926
2025-03-30 17:23:27.334,-0.971350465388927
2025-03-30 17:23:27.334,3.9696714312510792
2025-03-30 17:23:27.342,4.5259672852196715
2025-03-30 17:23:27.343,-0.29137818477947297
2025-03-30 17:23:27.343,-5.126243059142821
2025-03-30 17:23:27.343,-4.5021148985565835
2025-03-30 17:23:27.343,0.9194759403820361
2025-03-30 17:23:27.354,5.6296506435246885
2025-03-30 17:23:27.354,5.429303931736391
2025-03-30 17:23:27.354,0.6290545918877752
2025-03-30 17:23:27.354,-5.3368065925655745
2025-03-30 17:23:27.354,-8.00692427403547
2025-03-30 17:23:27.364,-4.063026626765564
2025-03-30 17:23:27.364,4.892320153234939
2025-03-30 17:23:27.364,11.058986429522742
2025-03-30 17:23:27.364,7.156473370680343
2025-03-30 17:23:27.364,-4.296926453026499
2025-03-30 17:23:27.372,-11.923922333120657
2025-03-30 17:23:27.373,-7.92428374873107
2025-03-30 17:23:27.373,2.9227004989416976
2025-03-30 17:23:27.373,9.237661444869948
2025-03-30 17:23:27.382,6.142979328042573
2025-03-30 17:23:27.382,-0.8575910775353215
2025-03-30 17:23:27.382,-4.28866502726371
2025-03-30 17:23:27.382,-3.030470739094493
2025-03-30 17:23:27.382,-0.9277343873287371
2025-03-30 17:23:27.392,-0.28874094394795236
2025-03-30 17:23:27.392,0.10233373899459658
2025-03-30 17:23:27.392,1.4677570065682528
2025-03-30 17:23:27.392,2.5972836128394183
2025-03-30 17:23:27.392,1.77348586924869
2025-03-30 17:23:27.402,-0.5894921240489057
2025-03-30 17:23:27.402,-2.4536786051693973
2025-03-30 17:23:27.402,-2.521300455713492
2025-03-30 17:23:27.402,-1.077491634768108
2025-03-30 17:23:27.402,0.9514716432444845
2025-03-30 17:23:27.412,2.5704110232176265
2025-03-30 17:23:27.412,2.596995432369544
2025-03-30 17:23:27.412,0.4599199134991347
2025-03-30 17:23:27.412,-2.4173489930227166
2025-03-30 17:23:27.412,-3.236436550115697
2025-03-30 17:23:27.422,-0.8243392566730211
2025-03-30 17:23:27.422,2.488245855912895
2025-03-30 17:23:27.422,3.007088353117123
2025-03-30 17:23:27.422,-0.09811469692092673
2025-03-30 17:23:27.422,-3.3587712310853033
2025-03-30 17:23:27.432,-2.5836884302923875
2025-03-30 17:23:27.432,2.0316718956937203
2025-03-30 17:23:27.432,5.298594372443341
2025-03-30 17:23:27.432,2.6056608605588165
2025-03-30 17:23:27.432,-4.13449599338461
2025-03-30 17:23:27.442,-7.619071913743791
2025-03-30 17:23:27.442,-3.1782166067028452
2025-03-30 17:23:27.442,5.276435017223003
2025-03-30 17:23:27.442,8.939784398040178
2025-03-30 17:23:27.442,3.8059155213170657
2025-03-30 17:23:27.450,-4.820127705868431
2025-03-30 17:23:27.450,-8.243346397139694
2025-03-30 17:23:27.450,-3.731591848595649
2025-03-30 17:23:27.450,3.2442979300852404
2025-03-30 17:23:27.460,5.673270357127082
2025-03-30 17:23:27.460,2.414855444755479
2025-03-30 17:23:27.460,-1.7292283090928735
2025-03-30 17:23:27.460,-2.352950422039611
2025-03-30 17:23:27.460,-0.1711502049305672
2025-03-30 17:23:27.470,1.038352452515461
2025-03-30 17:23:27.470,-0.2520627682787711
2025-03-30 17:23:27.470,-1.7607130377427507
2025-03-30 17:23:27.470,-1.0046006821005906
2025-03-30 17:23:27.470,1.2457368297487885
2025-03-30 17:23:27.478,2.1832806836956493
2025-03-30 17:23:27.479,0.8049711247475951
2025-03-30 17:23:27.479,-0.9486092677635407
2025-03-30 17:23:27.479,-1.0008125577120162
2025-03-30 17:23:27.479,0.21492452460907518
2025-03-30 17:23:27.488,0.6525675591307882
2025-03-30 17:23:27.488,-0.5500436337650234
2025-03-30 17:23:27.488,-1.9942804231299531
2025-03-30 17:23:27.488,-1.5802132973319392
2025-03-30 17:23:27.498,1.1194815308675394
2025-03-30 17:23:27.498,3.87545135013991
2025-03-30 17:23:27.498,3.5099452724747127
2025-03-30 17:23:27.498,-0.6028638320045945
2025-03-30 17:23:27.498,-4.924333257296864
2025-03-30 17:23:27.508,-4.894227634489945
2025-03-30 17:23:27.508,-0.12522235526494793
2025-03-30 17:23:27.508,4.626748904167558
2025-03-30 17:23:27.508,4.568059497497638
2025-03-30 17:23:27.509,0.2660895186482588
2025-03-30 17:23:27.518,-3.2263858279969244
2025-03-30 17:23:27.518,-2.491521402336858
2025-03-30 17:23:27.518,0.43889777386251716
2025-03-30 17:23:27.518,1.2303211540134902
2025-03-30 17:23:27.519,-0.8214361351713187
2025-03-30 17:23:27.528,-1.8994624659253132
2025-03-30 17:23:27.528,0.808706156736308
2025-03-30 17:23:27.528,4.49033300765066
2025-03-30 17:23:27.528,3.7305642441290034
2025-03-30 17:23:27.528,-2.1224996834830483
2025-03-30 17:23:27.538,-7.058212257459836
2025-03-30 17:23:27.538,-5.192638005835276
2025-03-30 17:23:27.538,2.0301881147593215
2025-03-30 17:23:27.538,7.287706358512263
2025-03-30 17:23:27.538,5.576103400452254
2025-03-30 17:23:27.548,-0.7362672812145321
2025-03-30 17:23:27.548,-5.271103691680381
2025-03-30 17:23:27.548,-4.5770902369715305
2025-03-30 17:23:27.548,-0.7029324561133166
2025-03-30 17:23:27.548,2.2743596832661512
2025-03-30 17:23:27.558,2.5825230841273323
2025-03-30 17:23:27.558,1.2976265213800189
2025-03-30 17:23:27.558,0.06808170270408884
2025-03-30 17:23:27.558,-0.4586104097390489
2025-03-30 17:23:27.558,-0.5246289186678118
2025-03-30 17:23:27.566,-0.689248402006717
2025-03-30 17:23:27.566,-1.2314262786666736
2025-03-30 17:23:27.567,-1.5005971509355944
2025-03-30 17:23:27.567,-0.29899894705803653
2025-03-30 17:23:27.567,2.2746536528590195
2025-03-30 17:23:27.576,3.8511277296312856
2025-03-30 17:23:27.576,2.004200776189264
2025-03-30 17:23:27.576,-2.3842851151187965
2025-03-30 17:23:27.577,-5.239441997432564
2025-03-30 17:23:27.577,-3.5212334974413784
2025-03-30 17:23:27.586,1.3648040530449932
2025-03-30 17:23:27.586,5.008777474481121
2025-03-30 17:23:27.586,4.3508225420573865
2025-03-30 17:23:27.586,0.23878410314968235
2025-03-30 17:23:27.596,-3.6880804223700836
2025-03-30 17:23:27.596,-4.211300696842635
2025-03-30 17:23:27.596,-1.2304700599025669
2025-03-30 17:23:27.597,2.227375558420636
2025-03-30 17:23:27.597,2.9891131629912544
2025-03-30 17:23:27.606,0.9218896317316343
2025-03-30 17:23:27.606,-1.2168934388207762
2025-03-30 17:23:27.606,-1.133355616732393
2025-03-30 17:23:27.606,0.45237590898933544
2025-03-30 17:23:27.606,1.0026451967384187
2025-03-30 17:23:27.616,-0.5366991986906062
2025-03-30 17:23:27.616,-2.3220180530152446
2025-03-30 17:23:27.616,-1.720583044391534
2025-03-30 17:23:27.616,1.4210209365725952
2025-03-30 17:23:27.617,4.068920882540938
2025-03-30 17:23:27.626,3.01043576024183
2025-03-30 17:23:27.626,-1.3683612062281678
2025-03-30 17:23:27.626,-4.91682649733297
2025-03-30 17:23:27.626,-3.962141940080172
2025-03-30 17:23:27.626,0.5772414346013717
2025-03-30 17:23:27.636,4.148580005650691
2025-03-30 17:23:27.636,3.6199997736156773
2025-03-30 17:23:27.636,0.4249060998496348
2025-03-30 17:23:27.636,-1.7662827993627228
2025-03-30 17:23:27.636,-1.5915905246608948
2025-03-30 17:23:27.646,-0.9532994486389513
2025-03-30 17:23:27.646,-1.4474539942289457
2025-03-30 17:23:27.646,-1.550328839721201
2025-03-30 17:23:27.646,0.9427526420976661
2025-03-30 17:23:27.646,4.429746792392497
2025-03-30 17:23:27.656,4.242720126463741
2025-03-30 17:23:27.656,-0.9983313061431798
2025-03-30 17:23:27.656,-6.1250956541369606
2025-03-30 17:23:27.656,-5.037741158003321
2025-03-30 17:23:27.656,1.397003836573755
2025-03-30 17:23:27.666,5.928373029739891
2025-03-30 17:23:27.666,3.7655099338512636
2025-03-30 17:23:27.666,-1.7772933688785568
2025-03-30 17:23:27.666,-4.031732026431778
2025-03-30 17:23:27.666,-1.3971553191832853
2025-03-30 17:23:27.676,1.6474271202782276
2025-03-30 17:23:27.676,1.3086551139690012
2025-03-30 17:23:27.676,-0.83196402845573
2025-03-30 17:23:27.676,-0.9951814045315713
2025-03-30 17:23:27.676,1.1854064631153831
2025-03-30 17:23:27.686,2.4264786820210875
2025-03-30 17:23:27.686,0.5024454023565857
2025-03-30 17:23:27.686,-2.7897676262897906
2025-03-30 17:23:27.686,-3.793029575659678
2025-03-30 17:23:27.686,-1.0371771690341882
2025-03-30 17:23:27.694,3.2988642260023235
2025-03-30 17:23:27.695,5.304903769012754
2025-03-30 17:23:27.695,2.667462423429585
2025-03-30 17:23:27.695,-2.9285714423332774
2025-03-30 17:23:27.695,-6.524796499499298
2025-03-30 17:23:27.704,-4.27482282588414
2025-03-30 17:23:27.705,2.1631634785114393
2025-03-30 17:23:27.705,6.607184776836454
2025-03-30 17:23:27.705,4.707331282993389
2025-03-30 17:23:27.705,-1.3045862254739182
2025-03-30 17:23:27.716,-5.246184071147673
2025-03-30 17:23:27.716,-3.8807410806878515
2025-03-30 17:23:27.716,0.24272271367236037
2025-03-30 17:23:27.716,2.8204680064846572
2025-03-30 17:23:27.716,2.651839607532261
2025-03-30 17:23:27.724,1.2763853743108364
2025-03-30 17:23:27.724,-0.3189586751498989
2025-03-30 17:23:27.724,-2.0644416127075496
2025-03-30 17:23:27.724,-2.766790103814264
2025-03-30 17:23:27.734,-0.8759107368346889
2025-03-30 17:23:27.734,2.299673156928898
2025-03-30 17:23:27.734,3.045203673991207
2025-03-30 17:23:27.734,0.18944497651458195
2025-03-30 17:23:27.735,-2.715023883175407
2025-03-30 17:23:27.744,-1.936226230107397
2025-03-30 17:23:27.744,1.4215591935688325
2025-03-30 17:23:27.744,3.040111559218731
2025-03-30 17:23:27.744,1.0086249362025415
2025-03-30 17:23:27.744,-2.3035417316034286
2025-03-30 17:23:27.754,-3.581566480440969
2025-03-30 17:23:27.754,-1.8418874773342409
2025-03-30 17:23:27.754,1.5504281402571998
2025-03-30 17:23:27.754,4.26737527095913
2025-03-30 17:23:27.754,4.065147766014336
2025-03-30 17:23:27.762,0.3077667293059022
2025-03-30 17:23:27.763,-4.425184962419221
2025-03-30 17:23:27.763,-5.677789659945623
2025-03-30 17:23:27.763,-1.8303114305813128
2025-03-30 17:23:27.763,3.3161433849556987
2025-03-30 17:23:27.774,4.694028158684986
2025-03-30 17:23:27.774,2.113063182667231
2025-03-30 17:23:27.774,-0.39004523291814985
2025-03-30 17:23:27.774,-0.9228761618119821
2025-03-30 17:23:27.774,-1.6024788741959113
2025-03-30 17:23:27.784,-3.311164331735983
2025-03-30 17:23:27.784,-3.0827196794281146
2025-03-30 17:23:27.784,0.7541771946254225
2025-03-30 17:23:27.784,4.568199040372727
2025-03-30 17:23:27.784,4.100573157095316
2025-03-30 17:23:27.794,0.5982091630052462
2025-03-30 17:23:27.794,-1.5189252091521894
2025-03-30 17:23:27.794,-1.415768285026831
2025-03-30 17:23:27.794,-1.9772082623082867
2025-03-30 17:23:27.794,-3.6111910163630623
2025-03-30 17:23:27.802,-2.622896304478322
2025-03-30 17:23:27.803,2.48061410708808
2025-03-30 17:23:27.803,6.82880627081733
2025-03-30 17:23:27.803,4.771885033551802
2025-03-30 17:23:27.803,-2.1193458925030835
2025-03-30 17:23:27.812,-6.307523669551039
2025-03-30 17:23:27.812,-3.5493811609199417
2025-03-30 17:23:27.812,2.1011508896736637
2025-03-30 17:23:27.813,3.710846715550981
2025-03-30 17:23:27.822,-0.06596552953143431
2025-03-30 17:23:27.822,-3.798712420608324
2025-03-30 17:23:27.822,-2.1298957946121564
2025-03-30 17:23:27.822,3.7122572789201507
2025-03-30 17:23:27.823,7.042872028523817
2025-03-30 17:23:27.832,3.158975345721539
2025-03-30 17:23:27.832,-5.035617095552828
2025-03-30 17:23:27.832,-9.594484273263392
2025-03-30 17:23:27.832,-5.822230357271856
2025-03-30 17:23:27.832,2.874466610782853
2025-03-30 17:23:27.840,8.884639730999488
2025-03-30 17:23:27.841,7.919491957671667
2025-03-30 17:23:27.841,1.7219341477580652
2025-03-30 17:23:27.841,-4.938619410349133
2025-03-30 17:23:27.841,-7.797896437171298
2025-03-30 17:23:27.851,-5.058171615819709
2025-03-30 17:23:27.851,1.038217631620527
2025-03-30 17:23:27.851,4.959181778066272
2025-03-30 17:23:27.851,3.2665655779576688
2025-03-30 17:23:27.851,-0.6788789676588793
2025-03-30 17:23:27.861,-0.6130570182880578
2025-03-30 17:23:27.861,3.5165252825684896
2025-03-30 17:23:27.861,4.3439478430449965
2025-03-30 17:23:27.861,-2.558391072203113
2025-03-30 17:23:27.870,-10.60194555519998
2025-03-30 17:23:27.870,-9.14455596387431
2025-03-30 17:23:27.870,2.453591941740118
2025-03-30 17:23:27.870,12.73965668761069
2025-03-30 17:23:27.870,11.462539110739932
2025-03-30 17:23:27.878,0.915809811557397
2025-03-30 17:23:27.879,-8.449453234077511
2025-03-30 17:23:27.879,-10.20295632561208
2025-03-30 17:23:27.879,-5.845467752143079
2025-03-30 17:23:27.888,0.7650800179735877
2025-03-30 17:23:27.888,7.055605653831532
2025-03-30 17:23:27.889,9.832743417674079
2025-03-30 17:23:27.889,5.769712351966945
2025-03-30 17:23:27.889,-3.3951906896874595
2025-03-30 17:23:27.898,-10.101619039940337
2025-03-30 17:23:27.899,-8.671128720162722
2025-03-30 17:23:27.899,-1.419678652168894
2025-03-30 17:23:27.899,5.211967970711852
2025-03-30 17:23:27.899,7.917458230039203
2025-03-30 17:23:27.899,7.152150781267091
2025-03-30 17:23:27.908,3.1955147610998167
2025-03-30 17:23:27.908,-3.970316553976196
2025-03-30 17:23:27.908,-10.967660195986142
2025-03-30 17:23:27.908,-11.248653078622027
2025-03-30 17:23:27.918,-1.848465846149971
2025-03-30 17:23:27.918,10.90335371262652
2025-03-30 17:23:27.918,15.375325156113162
2025-03-30 17:23:27.918,6.3603126328178075
2025-03-30 17:23:27.918,-8.145273511247831
2025-03-30 17:23:27.927,-14.384274728020564
2025-03-30 17:23:27.927,-7.339429804661507
2025-03-30 17:23:27.927,4.560145411978578
2025-03-30 17:23:27.927,9.856846060695025
2025-03-30 17:23:27.927,6.1085464432466265
2025-03-30 17:23:27.937,-0.5051327566445847
2025-03-30 17:23:27.937,-4.433318141291017
2025-03-30 17:23:27.937,-5.284626529128733
2025-03-30 17:23:27.937,-4.134979478101672
2025-03-30 17:23:27.937,-0.3934328645473681
2025-03-30 17:23:27.947,5.411831174785729
2025-03-30 17:23:27.947,8.661698677297721
2025-03-30 17:23:27.947,4.3230591244209196
2025-03-30 17:23:27.947,-5.7429821732243775
2025-03-30 17:23:27.956,-11.835027145017392
2025-03-30 17:23:27.956,-6.075953968729403
2025-03-30 17:23:27.956,6.840599431351759
2025-03-30 17:23:27.957,12.582821659168955
2025-03-30 17:23:27.957,3.8146598816004325
2025-03-30 17:23:27.964,-9.425099654805091
2025-03-30 17:23:27.965,-11.11048105513641
2025-03-30 17:23:27.965,0.7220083803427697
2025-03-30 17:23:27.965,11.703180777203384
2025-03-30 17:23:27.965,9.393569600186792
2025-03-30 17:23:27.974,-2.548167008421639
2025-03-30 17:23:27.974,-11.014380380490502
2025-03-30 17:23:27.974,-8.979241043614323
2025-03-30 17:23:27.975,-0.32998791663560223
2025-03-30 17:23:27.984,7.20740344338878
2025-03-30 17:23:27.984,9.013656842859755
2025-03-30 17:23:27.984,4.82750978108287
2025-03-30 17:23:27.985,-2.265553416717845
2025-03-30 17:23:27.985,-7.343827942011232
2025-03-30 17:23:27.994,-7.012142276737559
2025-03-30 17:23:27.994,-2.374582114171066
2025-03-30 17:23:27.994,2.574734511127746
2025-03-30 17:23:27.994,5.373038581021791
2025-03-30 17:23:27.994,6.160467780674332
2025-03-30 17:23:28.002,4.681944088888715
2025-03-30 17:23:28.002,-0.608526062731124
2025-03-30 17:23:28.002,-8.446715678043894
2025-03-30 17:23:28.002,-12.056705036472529
2025-03-30 17:23:28.012,-4.948010254542211
2025-03-30 17:23:28.012,9.32666315177775
2025-03-30 17:23:28.012,17.023069891165115
2025-03-30 17:23:28.012,8.187864533555182
2025-03-30 17:23:28.013,-9.990972996493104
2025-03-30 17:23:28.022,-18.614851487379923
2025-03-30 17:23:28.022,-7.825612855801488
2025-03-30 17:23:28.022,11.213478588079896
2025-03-30 17:23:28.022,18.18732103496036
2025-03-30 17:23:28.022,5.833961351145351
2025-03-30 17:23:28.030,-12.673204988619913
2025-03-30 17:23:28.030,-18.102933863197958
2025-03-30 17:23:28.030,-4.883998579400819
2025-03-30 17:23:28.031,13.553237785022173
2025-03-30 17:23:28.038,18.37759412273813
2025-03-30 17:23:28.039,4.767064900907391
2025-03-30 17:23:28.039,-12.656870767909146
2025-03-30 17:23:28.039,-15.686658122129089
2025-03-30 17:23:28.039,-3.0190705446055777
2025-03-30 17:23:28.048,9.215807158736807
2025-03-30 17:23:28.049,7.968331976513767
2025-03-30 17:23:28.049,-1.5030819031711329
2025-03-30 17:23:28.049,-4.845809560075981
2025-03-30 17:23:28.049,1.670377360714639
2025-03-30 17:23:28.058,7.507892605634745
2025-03-30 17:23:28.058,3.0573463004140407
2025-03-30 17:23:28.058,-7.903101938675116
2025-03-30 17:23:28.058,-13.105976994020685
2025-03-30 17:23:28.068,-5.667025970799243
2025-03-30 17:23:28.068,8.83639723373909
2025-03-30 17:23:28.068,17.232394564800156
2025-03-30 17:23:28.068,10.394038976734695
2025-03-30 17:23:28.068,-7.21283320887879
2025-03-30 17:23:28.077,-19.350983803254373
2025-03-30 17:23:28.077,-13.105934596523985
2025-03-30 17:23:28.077,6.304283858381309
2025-03-30 17:23:28.077,19.192514255848618
2025-03-30 17:23:28.077,12.343151955968656
2025-03-30 17:23:28.086,-6.315584847181912
2025-03-30 17:23:28.086,-16.998104371758153
2025-03-30 17:23:28.086,-10.049484640157326
2025-03-30 17:23:28.086,5.26172391959095
2025-03-30 17:23:28.095,13.215327455904399
2025-03-30 17:23:28.095,8.273105524679899
2025-03-30 17:23:28.095,-2.252617633516437
2025-03-30 17:23:28.095,-8.331102708106776
2025-03-30 17:23:28.095,-6.618194067497132
2025-03-30 17:23:28.105,-1.0424229030099903
2025-03-30 17:23:28.105,2.878044063110665
2025-03-30 17:23:28.105,3.301650077125616
2025-03-30 17:23:28.105,2.3962160720458847
2025-03-30 17:23:28.114,2.304455656182661
2025-03-30 17:23:28.115,1.9485123933678026
2025-03-30 17:23:28.115,-1.04250300059379
2025-03-30 17:23:28.115,-5.751585427886374
2025-03-30 17:23:28.115,-7.3584389329634075
2025-03-30 17:23:28.125,-2.368330003579352
2025-03-30 17:23:28.125,6.308827559024239
2025-03-30 17:23:28.125,10.998704403641238
2025-03-30 17:23:28.125,6.540765562123985
2025-03-30 17:23:28.125,-4.231442928510362
2025-03-30 17:23:28.134,-12.301874436278837
2025-03-30 17:23:28.135,-10.179394457303486
2025-03-30 17:23:28.135,0.975024733499009
2025-03-30 17:23:28.135,11.533355953910547
2025-03-30 17:23:28.135,12.013564208070159
2025-03-30 17:23:28.143,2.29653506365716
2025-03-30 17:23:28.143,-8.55631916722254
2025-03-30 17:23:28.143,-11.581546853922347
2025-03-30 17:23:28.143,-5.527429510378822
2025-03-30 17:23:28.152,4.0474612285740195
2025-03-30 17:23:28.153,10.102499039541714
2025-03-30 17:23:28.153,8.275777363616156
2025-03-30 17:23:28.153,-0.3533904197218569
2025-03-30 17:23:28.153,-8.731829058446165
2025-03-30 17:23:28.162,-9.1064483148334
2025-03-30 17:23:28.163,-1.2207562285902542
2025-03-30 17:23:28.163,6.849330169816971
2025-03-30 17:23:28.163,7.749650096967894
2025-03-30 17:23:28.163,2.285580192737232
2025-03-30 17:23:28.172,-3.6746280448614366
2025-03-30 17:23:28.173,-6.208715500211168
2025-03-30 17:23:28.173,-4.666739599076092
2025-03-30 17:23:28.173,0.28206987635798897
2025-03-30 17:23:28.173,5.877214776566497
2025-03-30 17:23:28.181,7.115325616571698
2025-03-30 17:23:28.181,1.8190049130612158
2025-03-30 17:23:28.181,-5.264288948594734
2025-03-30 17:23:28.181,-7.055227676524316
2025-03-30 17:23:28.191,-2.3454058518372225
2025-03-30 17:23:28.191,3.2623106542036258
2025-03-30 17:23:28.191,4.231589566972497
2025-03-30 17:23:28.191,0.8303342346781506
2025-03-30 17:23:28.191,-1.9955054007596142
2025-03-30 17:23:28.192,-0.41893918297070093
2025-03-30 17:23:28.201,3.607478226291887
2025-03-30 17:23:28.201,3.8641645793335515
2025-03-30 17:23:28.201,-2.590050455122681
2025-03-30 17:23:28.201,-9.88764945710253
2025-03-30 17:23:28.210,-8.386981681598925
2025-03-30 17:23:28.211,3.4320840587688743
2025-03-30 17:23:28.211,14.772433692630957
2025-03-30 17:23:28.211,13.12772900783995
2025-03-30 17:23:28.211,-1.55755121062915
2025-03-30 17:23:28.219,-15.732619080557638
2025-03-30 17:23:28.219,-15.8112140974766
2025-03-30 17:23:28.219,-1.8182828488029157
2025-03-30 17:23:28.219,12.94333252839938
2025-03-30 17:23:28.227,15.235634336660032
2025-03-30 17:23:28.227,4.375034335744496
2025-03-30 17:23:28.227,-8.372753547346653
2025-03-30 17:23:28.227,-11.796782863416409
2025-03-30 17:23:28.228,-4.952390064018051
2025-03-30 17:23:28.237,4.132249562783473
2025-03-30 17:23:28.237,7.566146547815783
2025-03-30 17:23:28.237,4.081201850019099
2025-03-30 17:23:28.237,-1.800483569183071
2025-03-30 17:23:28.246,-4.674859675509243
2025-03-30 17:23:28.247,-2.5816620950563283
2025-03-30 17:23:28.247,1.741487316233018
2025-03-30 17:23:28.247,3.579440753553209
2025-03-30 17:23:28.247,1.115737891440175
2025-03-30 17:23:28.257,-2.585725709024685
2025-03-30 17:23:28.257,-3.2938362196572677
2025-03-30 17:23:28.257,-0.5855562458676763
2025-03-30 17:23:28.257,2.272501946146888
2025-03-30 17:23:28.257,2.7486414363995904
2025-03-30 17:23:28.266,1.4103483364603235
2025-03-30 17:23:28.267,-0.10236496511354325
2025-03-30 17:23:28.267,-1.4077376389410876
2025-03-30 17:23:28.267,-2.674613420352211
2025-03-30 17:23:28.267,-2.8758745479464767
2025-03-30 17:23:28.276,-0.5746691539656431
2025-03-30 17:23:28.277,3.260695871711636
2025-03-30 17:23:28.277,4.8935939931173795
2025-03-30 17:23:28.277,1.9919102975213319
2025-03-30 17:23:28.277,-2.6547096991528027
2025-03-30 17:23:28.285,-4.086656459046649
2025-03-30 17:23:28.285,-1.730026962794336
2025-03-30 17:23:28.285,0.2542494167625676
2025-03-30 17:23:28.285,-0.09357482847093002
2025-03-30 17:23:28.286,0.4900235548959836
2025-03-30 17:23:28.295,3.9130543155565274
2025-03-30 17:23:28.295,5.411795748829152
2025-03-30 17:23:28.295,0.027724797969193693
2025-03-30 17:23:28.295,-7.927349310485605
2025-03-30 17:23:28.304,-8.442439941054573
2025-03-30 17:23:28.305,0.5696271128580737
2025-03-30 17:23:28.305,9.193953399544938
2025-03-30 17:23:28.305,7.832102243738042
2025-03-30 17:23:28.305,-0.917098084520743
2025-03-30 17:23:28.315,-6.728949672084456
2025-03-30 17:23:28.315,-4.902723414405911
2025-03-30 17:23:28.315,-0.175952397260911
2025-03-30 17:23:28.315,1.8705970137244738
2025-03-30 17:23:28.315,1.6796587228734046
2025-03-30 17:23:28.324,2.108716191135385
2025-03-30 17:23:28.325,2.4195385222426586
2025-03-30 17:23:28.325,0.14200962488710972
2025-03-30 17:23:28.325,-3.1379060816622
2025-03-30 17:23:28.325,-3.0203963199986275
2025-03-30 17:23:28.335,0.4671617550991961
2025-03-30 17:23:28.335,1.9875135901126004
2025-03-30 17:23:28.335,-0.7525944658515096
2025-03-30 17:23:28.335,-2.622333152979511
2025-03-30 17:23:28.335,1.0206729932633696
2025-03-30 17:23:28.344,5.862949620117802
2025-03-30 17:23:28.345,3.929634919104988
2025-03-30 17:23:28.345,-4.089484352025264
2025-03-30 17:23:28.345,-8.33820860460267
2025-03-30 17:23:28.345,-3.0809237338643247
2025-03-30 17:23:28.355,5.174326378292021
2025-03-30 17:23:28.355,6.6160920544685835
2025-03-30 17:23:28.355,1.1784636983622336
2025-03-30 17:23:28.355,-2.8781038109378536
2025-03-30 17:23:28.355,-1.6862335745950765
2025-03-30 17:23:28.365,-0.2628806181665456
2025-03-30 17:23:28.365,-2.6670757562004113
2025-03-30 17:23:28.365,-4.233165365999061
2025-03-30 17:23:28.365,0.9393015703374791
2025-03-30 17:23:28.365,8.63951312985521
2025-03-30 17:23:28.375,8.320526330819169
2025-03-30 17:23:28.375,-1.793453154529622
2025-03-30 17:23:28.375,-10.667427835267764
2025-03-30 17:23:28.375,-8.4818175988722
2025-03-30 17:23:28.375,1.0355963570103603
2025-03-30 17:23:28.384,6.939074070962083
2025-03-30 17:23:28.385,5.443508239667619
2025-03-30 17:23:28.385,1.7571042184258145
2025-03-30 17:23:28.385,-0.2054292616613387
2025-03-30 17:23:28.385,-2.336405766825552
2025-03-30 17:23:28.394,-5.451422542437187
2025-03-30 17:23:28.395,-5.080928235490433
2025-03-30 17:23:28.395,1.385921685951116
2025-03-30 17:23:28.395,8.01114587630458
2025-03-30 17:23:28.395,6.659213296033858
2025-03-30 17:23:28.403,-1.7619374941383918
2025-03-30 17:23:28.403,-7.859249037716166
2025-03-30 17:23:28.403,-5.518396830529312
2025-03-30 17:23:28.403,1.4346752677762424
2025-03-30 17:23:28.414,5.338656592868317
2025-03-30 17:23:28.415,3.716974182894674
2025-03-30 17:23:28.415,0.0665277473434498
2025-03-30 17:23:28.415,-1.9519462013266942
2025-03-30 17:23:28.415,-2.1050671002369907
2025-03-30 17:23:28.415,-1.7324820372946572
2025-03-30 17:23:28.423,-1.0339222916607698
2025-03-30 17:23:28.423,0.4317147548134983
2025-03-30 17:23:28.423,2.02122082197641
2025-03-30 17:23:28.423,2.5058280944546665
2025-03-30 17:23:28.433,1.663670743493678
2025-03-30 17:23:28.433,0.06056750905450529
2025-03-30 17:23:28.433,-1.9685173638714937
2025-03-30 17:23:28.433,-3.6701147508844
2025-03-30 17:23:28.433,-3.170833780517303
2025-03-30 17:23:28.442,0.39954625707807906
2025-03-30 17:23:28.443,4.327731106362352
2025-03-30 17:23:28.443,4.365807180933587
2025-03-30 17:23:28.443,0.2672429667037874
2025-03-30 17:23:28.443,-3.029832524027326
2025-03-30 17:23:28.453,-1.7893143612009
2025-03-30 17:23:28.453,0.9587980972595914
2025-03-30 17:23:28.453,-0.16753786144031418
2025-03-30 17:23:28.453,-3.9074546949676314
2025-03-30 17:23:28.453,-3.024953501938709
2025-03-30 17:23:28.462,4.461254971712958
2025-03-30 17:23:28.463,9.964008722953537
2025-03-30 17:23:28.463,4.692295437730283
2025-03-30 17:23:28.463,-7.558831697665936
2025-03-30 17:23:28.463,-13.43565518544893
2025-03-30 17:23:28.471,-5.887191773282305
2025-03-30 17:23:28.471,7.361571735951066
2025-03-30 17:23:28.471,12.915553352000186
2025-03-30 17:23:28.471,6.455415996183341
2025-03-30 17:23:28.472,-4.121181552416519
2025-03-30 17:23:28.481,-8.847521530505883
2025-03-30 17:23:28.481,-5.775937660272804
2025-03-30 17:23:28.481,-0.25996657893074876
2025-03-30 17:23:28.481,2.9699828479402535
2025-03-30 17:23:28.491,3.879364487269496
2025-03-30 17:23:28.491,3.85091393623467
2025-03-30 17:23:28.491,2.269629892985695
2025-03-30 17:23:28.491,-1.4028351581776681
2025-03-30 17:23:28.491,-4.714868938581281
2025-03-30 17:23:28.501,-4.617181249371671
2025-03-30 17:23:28.501,-1.5752638336652367
2025-03-30 17:23:28.501,1.6003510252836497
2025-03-30 17:23:28.501,3.802223070282904
2025-03-30 17:23:28.501,5.169608481569909
2025-03-30 17:23:28.502,3.8642607777691107
2025-03-30 17:23:28.511,-1.9294950379461389
2025-03-30 17:23:28.511,-8.444695721011673
2025-03-30 17:23:28.511,-7.978658015169139
2025-03-30 17:23:28.511,1.1575164575323593
2025-03-30 17:23:28.519,10.088676968736365
2025-03-30 17:23:28.519,8.803132640299966
2025-03-30 17:23:28.519,-1.5616582746918812
2025-03-30 17:23:28.519,-9.768833224033209
2025-03-30 17:23:28.520,-7.537952054940668
2025-03-30 17:23:28.529,1.790001918258993
2025-03-30 17:23:28.529,8.239259134706446
2025-03-30 17:23:28.529,6.124083360423451
2025-03-30 17:23:28.529,-1.359632444594154
2025-03-30 17:23:28.530,-6.676518355102538
2025-03-30 17:23:28.540,-5.304329802695071
2025-03-30 17:23:28.541,0.8948593845788211
2025-03-30 17:23:28.541,6.045015855983219
2025-03-30 17:23:28.541,5.4611904630703725
2025-03-30 17:23:28.541,-0.5297457442344453
2025-03-30 17:23:28.549,-6.688054828182436
2025-03-30 17:23:28.549,-6.927719610824835
2025-03-30 17:23:28.549,0.004117681505698911
2025-03-30 17:23:28.549,8.04305478585713
2025-03-30 17:23:28.558,8.690853400527315
2025-03-30 17:23:28.559,0.27292911056021196
2025-03-30 17:23:28.559,-8.828363768109822
2025-03-30 17:23:28.559,-8.78385920456268
2025-03-30 17:23:28.559,0.1589662625126328
2025-03-30 17:23:28.567,7.7576725952264765
2025-03-30 17:23:28.567,6.15039863466993
2025-03-30 17:23:28.567,-0.9962751174228985
2025-03-30 17:23:28.567,-4.235348956750035
2025-03-30 17:23:28.568,-1.0186213333954346
2025-03-30 17:23:28.577,1.8122908485814295
2025-03-30 17:23:28.577,-1.176325091743686
2025-03-30 17:23:28.577,-5.376209118924106
2025-03-30 17:23:28.577,-2.487757025913104
2025-03-30 17:23:28.578,6.519244109254558
2025-03-30 17:23:28.587,10.622148430241438
2025-03-30 17:23:28.587,2.770763919152015
2025-03-30 17:23:28.587,-9.641912319211821
2025-03-30 17:23:28.587,-12.521595561029116
2025-03-30 17:23:28.595,-1.9993366243259432
2025-03-30 17:23:28.595,10.441496723470873
2025-03-30 17:23:28.595,11.052979954336513
2025-03-30 17:23:28.596,-0.35621606341513323
2025-03-30 17:23:28.596,-10.396976139415319
2025-03-30 17:23:28.605,-7.836439473463249
2025-03-30 17:23:28.605,3.4888295923096004
2025-03-30 17:23:28.605,9.88472194354414
2025-03-30 17:23:28.605,4.478864034913754
2025-03-30 17:23:28.614,-5.2839564111804425
2025-03-30 17:23:28.615,-7.947009169278619
2025-03-30 17:23:28.615,-2.0361431331615534
2025-03-30 17:23:28.615,4.000543465144901
2025-03-30 17:23:28.615,4.030806901500634
2025-03-30 17:23:28.623,1.085091964963846
2025-03-30 17:23:28.623,0.5051403647200355
2025-03-30 17:23:28.623,1.1664185757705394
2025-03-30 17:23:28.623,-1.6236613722541746
2025-03-30 17:23:28.632,-6.55688136820631
2025-03-30 17:23:28.633,-6.012193874873191
2025-03-30 17:23:28.633,2.8035652831106384
2025-03-30 17:23:28.633,11.357914096285967
2025-03-30 17:23:28.633,9.00334360934603
2025-03-30 17:23:28.641,-3.224779130690747
2025-03-30 17:23:28.641,-12.745275910903045
2025-03-30 17:23:28.641,-9.7306050337321
2025-03-30 17:23:28.642,2.296440762461975
2025-03-30 17:23:28.650,11.212827154829391
2025-03-30 17:23:28.651,8.94679827644846
2025-03-30 17:23:28.651,-1.585782247239603
2025-03-30 17:23:28.651,-9.856778645173291
2025-03-30 17:23:28.651,-7.41828762853973
2025-03-30 17:23:28.659,3.4167649626614893
2025-03-30 17:23:28.659,10.549818483215665
2025-03-30 17:23:28.659,4.936372063514106
2025-03-30 17:23:28.659,-7.5314104274076925
2025-03-30 17:23:28.669,-11.544457555651029
2025-03-30 17:23:28.669,-1.2903788917551082
2025-03-30 17:23:28.669,11.21075065026003
2025-03-30 17:23:28.669,10.655345352820556
2025-03-30 17:23:28.669,-2.353260264093283
2025-03-30 17:23:28.679,-12.430962719342444
2025-03-30 17:23:28.679,-8.557464139722528
2025-03-30 17:23:28.679,3.9348580983761314
2025-03-30 17:23:28.679,11.60567746607385
2025-03-30 17:23:28.679,7.859368377337864
2025-03-30 17:23:28.687,-2.8070688487400064
2025-03-30 17:23:28.687,-11.069492029630055
2025-03-30 17:23:28.687,-9.926896030887553
2025-03-30 17:23:28.687,0.7237434184261855
2025-03-30 17:23:28.688,12.366929976709839
2025-03-30 17:23:28.697,13.264045036915158
2025-03-30 17:23:28.697,0.5366967013038929
2025-03-30 17:23:28.697,-14.052495828137117
2025-03-30 17:23:28.697,-15.195592562389791
2025-03-30 17:23:28.705,-1.3301620623326365
2025-03-30 17:23:28.705,13.269626552002684
2025-03-30 17:23:28.705,14.603149094556523
2025-03-30 17:23:28.706,3.2215380957901347
2025-03-30 17:23:28.715,-9.033622053062775
2025-03-30 17:23:28.715,-12.395974449211877
2025-03-30 17:23:28.715,-6.362901116881835
2025-03-30 17:23:28.715,3.1448050881985576
2025-03-30 17:23:28.715,9.41816262857355
2025-03-30 17:23:28.724,8.624245874379884
2025-03-30 17:23:28.725,1.7695287713581684
2025-03-30 17:23:28.725,-5.678788209032726
2025-03-30 17:23:28.725,-7.888415276136656
2025-03-30 17:23:28.725,-3.799559210348445
2025-03-30 17:23:28.734,2.0430772199718414
2025-03-30 17:23:28.735,4.238621841871563
2025-03-30 17:23:28.735,1.9402610474286353
2025-03-30 17:23:28.735,-0.75143332701482
2025-03-30 17:23:28.735,0.15943811295979177
2025-03-30 17:23:28.743,3.3887512769668913
2025-03-30 17:23:28.743,3.303072257752365
2025-03-30 17:23:28.743,-2.8063407951644326
2025-03-30 17:23:28.743,-9.43677617798552
2025-03-30 17:23:28.752,-7.947584687598213
2025-03-30 17:23:28.753,2.3811054375127676
2025-03-30 17:23:28.753,11.780104054162875
2025-03-30 17:23:28.753,10.797917586094542
2025-03-30 17:23:28.753,1.02670398022512
2025-03-30 17:23:28.762,-7.87571820818494
2025-03-30 17:23:28.763,-9.605362883619735
2025-03-30 17:23:28.763,-5.773225773318476
2025-03-30 17:23:28.763,-0.3876637781084227
2025-03-30 17:23:28.763,5.000641147164599
2025-03-30 17:23:28.772,9.089986938345113
2025-03-30 17:23:28.773,8.26061390546012
2025-03-30 17:23:28.773,0.6526929504377834
2025-03-30 17:23:28.773,-8.614434491564475
2025-03-30 17:23:28.773,-11.048655408391117
2025-03-30 17:23:28.782,-4.614885156178018
2025-03-30 17:23:28.783,3.7247835015660185
2025-03-30 17:23:28.783,6.90558805830861
2025-03-30 17:23:28.783,5.4201364661384535
2025-03-30 17:23:28.783,3.38802536164908
2025-03-30 17:23:28.791,1.0474560566447133
2025-03-30 17:23:28.791,-3.6349207411322446
2025-03-30 17:23:28.791,-8.098202798868147
2025-03-30 17:23:28.791,-6.548344483728659
2025-03-30 17:23:28.791,1.0325650319200024
2025-03-30 17:23:28.801,6.964205134408094
2025-03-30 17:23:28.801,5.570984741364824
2025-03-30 17:23:28.801,0.4956163834044403
2025-03-30 17:23:28.801,-1.257821262716381
2025-03-30 17:23:28.811,0.5693848948629108
2025-03-30 17:23:28.811,0.20062589581691515
2025-03-30 17:23:28.811,-4.3008154430125565
2025-03-30 17:23:28.811,-7.153455492802577
