timestamp,bandpass_and_notch
2025-03-22 16:11:19.853,0.09714268947359522
2025-03-22 16:11:19.853,-3.0456159655692057
2025-03-22 16:11:19.853,-3.9490980635741684
2025-03-22 16:11:19.853,-7.833930917205921
2025-03-22 16:11:19.862,-15.826601172776085
2025-03-22 16:11:19.862,-14.360878838327945
2025-03-22 16:11:19.863,8.131210327910116
2025-03-22 16:11:19.863,36.04891605651404
2025-03-22 16:11:19.863,35.69046653815433
2025-03-22 16:11:19.871,-3.259944092399775
2025-03-22 16:11:19.871,-47.222241585576576
2025-03-22 16:11:19.871,-51.47144409666301
2025-03-22 16:11:19.871,-9.591195046276782
2025-03-22 16:11:19.879,39.30264774628678
2025-03-22 16:11:19.879,52.186889059130024
2025-03-22 16:11:19.879,23.275673478944455
2025-03-22 16:11:19.879,-17.176153989896584
2025-03-22 16:11:19.888,-36.66998808348622
2025-03-22 16:11:19.889,-27.189026516046646
2025-03-22 16:11:19.889,-3.217396321248395
2025-03-22 16:11:19.889,16.790441511929462
2025-03-22 16:11:19.889,23.22935228530613
2025-03-22 16:11:19.897,15.820401653289371
2025-03-22 16:11:19.897,-0.004219851717366274
2025-03-22 16:11:19.897,-14.951571695596128
2025-03-22 16:11:19.897,-19.216777305196842
2025-03-22 16:11:19.907,-9.59275055325765
2025-03-22 16:11:19.907,6.192448544825743
2025-03-22 16:11:19.907,15.17077269689737
2025-03-22 16:11:19.907,10.9341941129346
2025-03-22 16:11:19.907,-0.8069584052413026
2025-03-22 16:11:19.916,-8.82210284530764
2025-03-22 16:11:19.917,-7.457024905279101
2025-03-22 16:11:19.917,-0.610904324947849
2025-03-22 16:11:19.917,3.8963867235274843
2025-03-22 16:11:19.917,2.300642129548388
2025-03-22 16:11:19.927,-2.295427513720646
2025-03-22 16:11:19.927,-3.666294677885969
2025-03-22 16:11:19.927,0.9671772680864578
2025-03-22 16:11:19.927,7.341418354265747
2025-03-22 16:11:19.927,7.780139417603164
2025-03-22 16:11:19.937,-0.32194435614879513
2025-03-22 16:11:19.937,-10.273848729266778
2025-03-22 16:11:19.937,-12.142171210733752
2025-03-22 16:11:19.937,-3.185130876061096
2025-03-22 16:11:19.937,9.005447699331437
2025-03-22 16:11:19.946,13.863613056093515
2025-03-22 16:11:19.947,7.459422363533139
2025-03-22 16:11:19.947,-4.657503059104244
2025-03-22 16:11:19.947,-12.539475798657673
2025-03-22 16:11:19.947,-9.906348614371247
2025-03-22 16:11:19.955,0.7126619811298268
2025-03-22 16:11:19.955,9.83420013861889
2025-03-22 16:11:19.955,9.372285643767338
2025-03-22 16:11:19.955,0.5155403641450096
2025-03-22 16:11:19.956,-7.347224209191763
2025-03-22 16:11:19.965,-6.609489757436933
2025-03-22 16:11:19.965,0.4559759771175149
2025-03-22 16:11:19.965,5.098432208967721
2025-03-22 16:11:19.965,2.8125166028396977
2025-03-22 16:11:19.965,-2.0244636759486943
2025-03-22 16:11:19.975,-2.8597592507976324
2025-03-22 16:11:19.975,0.5676401461315456
2025-03-22 16:11:19.975,2.92931915839154
2025-03-22 16:11:19.975,1.0091751566466827
2025-03-22 16:11:19.985,-2.427634931819656
2025-03-22 16:11:19.985,-2.8799868819965817
2025-03-22 16:11:19.985,0.07095355187820473
2025-03-22 16:11:19.985,2.6651429681239542
2025-03-22 16:11:19.985,1.8772602396850064
2025-03-22 16:11:19.994,-0.9679028493555795
2025-03-22 16:11:19.995,-1.9763626407209216
2025-03-22 16:11:19.995,0.3199891188530004
2025-03-22 16:11:19.995,2.7416332075479346
2025-03-22 16:11:19.995,1.2590581249153494
2025-03-22 16:11:20.004,-3.274062387234472
2025-03-22 16:11:20.005,-5.1169079945180815
2025-03-22 16:11:20.005,-0.7141536778853819
2025-03-22 16:11:20.005,5.693755695766487
2025-03-22 16:11:20.005,6.2794466190876985
2025-03-22 16:11:20.014,-0.39353093990330795
2025-03-22 16:11:20.015,-6.619169840987894
2025-03-22 16:11:20.015,-4.781949626654827
2025-03-22 16:11:20.015,2.76487047205694
2025-03-22 16:11:20.015,6.39061647927645
2025-03-22 16:11:20.024,1.437973122625221
2025-03-22 16:11:20.024,-5.8122127876711644
2025-03-22 16:11:20.025,-6.148760930926736
2025-03-22 16:11:20.025,1.109862692905812
2025-03-22 16:11:20.025,7.6439628738077445
2025-03-22 16:11:20.033,6.349014593664696
2025-03-22 16:11:20.033,-0.9913712521609492
2025-03-22 16:11:20.033,-6.822309093265546
2025-03-22 16:11:20.033,-6.200887884744405
2025-03-22 16:11:20.033,-0.7684063238735506
2025-03-22 16:11:20.043,4.062475234122649
2025-03-22 16:11:20.043,4.415250264796434
2025-03-22 16:11:20.043,1.1243243010535244
2025-03-22 16:11:20.043,-1.5632056766657296
2025-03-22 16:11:20.053,-0.834205706515285
2025-03-22 16:11:20.053,1.3335133232983296
2025-03-22 16:11:20.053,0.8890733411642537
2025-03-22 16:11:20.053,-2.483805454731721
2025-03-22 16:11:20.053,-4.483558454292846
2025-03-22 16:11:20.063,-1.880288053570814
2025-03-22 16:11:20.063,3.017269361592973
2025-03-22 16:11:20.063,5.230284699561952
2025-03-22 16:11:20.063,3.0791003882197745
2025-03-22 16:11:20.063,-0.6577511178329443
2025-03-22 16:11:20.073,-2.8435349019565557
2025-03-22 16:11:20.073,-3.0498333804482893
2025-03-22 16:11:20.073,-2.2878028191351762
2025-03-22 16:11:20.073,-0.7574846161645497
2025-03-22 16:11:20.073,1.6760825559724415
2025-03-22 16:11:20.082,3.737558673036044
2025-03-22 16:11:20.083,3.3190120138375807
2025-03-22 16:11:20.083,0.13080876737777403
2025-03-22 16:11:20.083,-3.3626895769043315
2025-03-22 16:11:20.083,-4.28378149391947
2025-03-22 16:11:20.093,-2.0331426538926913
2025-03-22 16:11:20.093,1.6344226855063284
2025-03-22 16:11:20.093,4.320861595757889
2025-03-22 16:11:20.093,4.263962705444936
2025-03-22 16:11:20.093,1.090589214158293
2025-03-22 16:11:20.102,-3.412848489214667
2025-03-22 16:11:20.103,-5.850136910009517
2025-03-22 16:11:20.103,-3.991378442749702
2025-03-22 16:11:20.103,0.8120269718080103
2025-03-22 16:11:20.103,4.792886706784573
2025-03-22 16:11:20.112,5.358858129035596
2025-03-22 16:11:20.112,2.870539080895698
2025-03-22 16:11:20.113,-0.7590800760960558
2025-03-22 16:11:20.113,-3.8565300601334167
2025-03-22 16:11:20.113,-5.143488781394574
2025-03-22 16:11:20.122,-3.661996861834208
2025-03-22 16:11:20.123,0.17913328084938687
2025-03-22 16:11:20.123,4.046299739309096
2025-03-22 16:11:20.123,5.316524559781964
2025-03-22 16:11:20.123,3.3368668203458256
2025-03-22 16:11:20.131,-0.3436065649442506
2025-03-22 16:11:20.131,-3.555322895508538
2025-03-22 16:11:20.131,-4.7322590756950005
2025-03-22 16:11:20.131,-3.2309191399945103
2025-03-22 16:11:20.141,0.29078997168201987
2025-03-22 16:11:20.141,3.693296198004478
2025-03-22 16:11:20.141,4.5564986660698095
2025-03-22 16:11:20.141,2.223045456750087
2025-03-22 16:11:20.141,-1.4391356494516707
2025-03-22 16:11:20.142,-3.5480619868367573
2025-03-22 16:11:20.151,-2.737072299307672
2025-03-22 16:11:20.151,-0.36365652063903187
2025-03-22 16:11:20.151,1.0862813920273058
2025-03-22 16:11:20.151,0.980441743300394
2025-03-22 16:11:20.151,1.0783706711004641
2025-03-22 16:11:20.161,2.34156271507078
2025-03-22 16:11:20.161,2.50129535677243
2025-03-22 16:11:20.161,-1.0260330485072224
2025-03-22 16:11:20.161,-6.097513270267039
2025-03-22 16:11:20.171,-6.583396425589233
2025-03-22 16:11:20.171,0.22701724129282774
2025-03-22 16:11:20.171,8.687827380608677
2025-03-22 16:11:20.171,9.821434587125825
2025-03-22 16:11:20.171,1.4243734490248225
2025-03-22 16:11:20.172,-8.72918759697584
2025-03-22 16:11:20.181,-10.840614425392479
2025-03-22 16:11:20.181,-3.290091251983938
2025-03-22 16:11:20.181,6.260408978255558
2025-03-22 16:11:20.181,9.31665312896062
2025-03-22 16:11:20.191,4.5151394464265575
2025-03-22 16:11:20.191,-2.7560398157835264
2025-03-22 16:11:20.191,-6.559086378494216
2025-03-22 16:11:20.191,-4.982689811960493
2025-03-22 16:11:20.191,-0.10280456800469145
2025-03-22 16:11:20.200,4.336461587154566
2025-03-22 16:11:20.201,5.214746495608555
2025-03-22 16:11:20.201,1.8886184889090503
2025-03-22 16:11:20.201,-3.123373954823586
2025-03-22 16:11:20.201,-5.741082193637866
2025-03-22 16:11:20.210,-3.485315087481825
2025-03-22 16:11:20.211,2.2304445868163842
2025-03-22 16:11:20.211,6.6300500807715395
2025-03-22 16:11:20.211,5.247921106296608
2025-03-22 16:11:20.211,-1.419301948854297
2025-03-22 16:11:20.221,-7.146059520571363
2025-03-22 16:11:20.221,-5.888896164378983
2025-03-22 16:11:20.221,1.1139366277972125
2025-03-22 16:11:20.221,6.29864950732043
2025-03-22 16:11:20.221,4.575511522014532
2025-03-22 16:11:20.230,-1.1827198547135036
2025-03-22 16:11:20.230,-4.581158953279665
2025-03-22 16:11:20.231,-3.0804366275855757
2025-03-22 16:11:20.231,0.8715092486222489
2025-03-22 16:11:20.231,3.777633961887939
2025-03-22 16:11:20.240,3.6909125533410596
2025-03-22 16:11:20.241,0.4347304277273755
2025-03-22 16:11:20.241,-3.9974118509777234
2025-03-22 16:11:20.241,-5.8031996555442396
2025-03-22 16:11:20.241,-2.6584409684801757
2025-03-22 16:11:20.250,3.0633584496074833
2025-03-22 16:11:20.250,6.2079545660223685
2025-03-22 16:11:20.251,4.4247474112477985
2025-03-22 16:11:20.251,0.267498839851905
2025-03-22 16:11:20.251,-2.6926148194712844
2025-03-22 16:11:20.259,-3.8246819083038566
2025-03-22 16:11:20.259,-4.177548328023933
2025-03-22 16:11:20.259,-3.1851929903455227
2025-03-22 16:11:20.259,0.5824661504344537
2025-03-22 16:11:20.259,5.636525796000561
2025-03-22 16:11:20.269,7.393615646337302
2025-03-22 16:11:20.269,3.251331373104316
2025-03-22 16:11:20.269,-3.6300572256286743
2025-03-22 16:11:20.269,-7.290315285955344
2025-03-22 16:11:20.279,-5.161730998925181
2025-03-22 16:11:20.279,0.006648067192224882
2025-03-22 16:11:20.279,3.8778561357740053
2025-03-22 16:11:20.279,4.46624429177432
2025-03-22 16:11:20.279,2.393066560962108
2025-03-22 16:11:20.280,-0.6582605696932138
2025-03-22 16:11:20.289,-2.649495597799975
2025-03-22 16:11:20.289,-2.0240657987006707
2025-03-22 16:11:20.289,0.4020404131404444
2025-03-22 16:11:20.289,1.4398443945307964
2025-03-22 16:11:20.299,-0.5578320491655311
2025-03-22 16:11:20.299,-2.6105916669968465
2025-03-22 16:11:20.299,-0.7182757090816718
2025-03-22 16:11:20.299,3.6055024452850657
2025-03-22 16:11:20.299,4.159573116764323
2025-03-22 16:11:20.308,-1.0344862684339469
2025-03-22 16:11:20.309,-5.503104451134773
2025-03-22 16:11:20.309,-2.688982859459695
2025-03-22 16:11:20.309,4.09088075428423
2025-03-22 16:11:20.309,5.381440584037689
2025-03-22 16:11:20.319,-1.075434235598886
2025-03-22 16:11:20.319,-6.541977520805017
2025-03-22 16:11:20.319,-3.2218008062996017
2025-03-22 16:11:20.319,4.6900518132361615
2025-03-22 16:11:20.319,6.574865843766728
2025-03-22 16:11:20.328,-0.15525302939619134
2025-03-22 16:11:20.329,-6.664759433948764
2025-03-22 16:11:20.329,-4.57534449289688
2025-03-22 16:11:20.329,3.2814328158316934
2025-03-22 16:11:20.329,7.045613475249671
2025-03-22 16:11:20.338,2.426416614770824
2025-03-22 16:11:20.339,-4.693079128974047
2025-03-22 16:11:20.339,-6.2458442457787084
2025-03-22 16:11:20.339,-1.3674591732655443
2025-03-22 16:11:20.339,3.8905373423353207
2025-03-22 16:11:20.347,4.408453699442064
2025-03-22 16:11:20.347,1.0893767846463231
2025-03-22 16:11:20.347,-1.76044721313291
2025-03-22 16:11:20.347,-1.9067774822002752
2025-03-22 16:11:20.347,-0.7123283783605576
2025-03-22 16:11:20.357,-0.18961473823566372
2025-03-22 16:11:20.357,-0.34195986226639347
2025-03-22 16:11:20.357,0.05543649028169281
2025-03-22 16:11:20.357,1.1078476986022736
2025-03-22 16:11:20.358,1.4551100175699077
2025-03-22 16:11:20.367,0.3024350702814276
2025-03-22 16:11:20.367,-1.2048430810714876
2025-03-22 16:11:20.367,-1.3361048931348716
2025-03-22 16:11:20.367,-0.029726327734361083
2025-03-22 16:11:20.377,1.0838693342097998
2025-03-22 16:11:20.377,0.8351225216706263
2025-03-22 16:11:20.377,-0.21589143136840988
2025-03-22 16:11:20.377,-0.9205662518687125
2025-03-22 16:11:20.377,-1.0258745255890653
2025-03-22 16:11:20.387,-0.764594594630778
2025-03-22 16:11:20.387,0.26781008964842307
2025-03-22 16:11:20.387,2.3124152251366494
2025-03-22 16:11:20.387,3.541807054442076
2025-03-22 16:11:20.387,1.1110353127574302
2025-03-22 16:11:20.397,-4.347826405579428
2025-03-22 16:11:20.397,-7.10095994909802
2025-03-22 16:11:20.397,-2.3614950428019372
2025-03-22 16:11:20.397,6.26828554546153
2025-03-22 16:11:20.397,9.175923005786522
2025-03-22 16:11:20.407,2.279079216403577
2025-03-22 16:11:20.407,-6.9559457263434945
2025-03-22 16:11:20.407,-8.163005840349316
2025-03-22 16:11:20.407,-0.7946969388190772
2025-03-22 16:11:20.407,5.804098413283878
2025-03-22 16:11:20.416,4.641984684250209
2025-03-22 16:11:20.417,-0.9590046735340857
2025-03-22 16:11:20.417,-3.310259135272585
2025-03-22 16:11:20.417,-0.6869068429277962
2025-03-22 16:11:20.417,1.859810902221717
2025-03-22 16:11:20.425,0.6214127987924393
2025-03-22 16:11:20.425,-1.9296912686174363
2025-03-22 16:11:20.425,-1.561195632476917
2025-03-22 16:11:20.425,1.3564821323061822
2025-03-22 16:11:20.425,2.597224505400572
2025-03-22 16:11:20.435,0.31247472574515034
2025-03-22 16:11:20.435,-2.3187836087048312
2025-03-22 16:11:20.435,-1.6230543581093517
2025-03-22 16:11:20.435,1.3675006229106135
2025-03-22 16:11:20.435,2.3696774572350234
2025-03-22 16:11:20.445,-0.10935921010718125
2025-03-22 16:11:20.445,-2.6750715053662244
2025-03-22 16:11:20.445,-1.8155406246916683
2025-03-22 16:11:20.445,1.308254033479915
2025-03-22 16:11:20.454,2.721796790912779
2025-03-22 16:11:20.455,1.0911987247234174
2025-03-22 16:11:20.455,-1.04337743773706
2025-03-22 16:11:20.455,-1.30446961119355
2025-03-22 16:11:20.455,-0.42544292757037777
2025-03-22 16:11:20.464,-0.32360985761944644
2025-03-22 16:11:20.465,-0.8932535524858477
2025-03-22 16:11:20.465,-0.3167165619564922
2025-03-22 16:11:20.465,1.797130780952698
2025-03-22 16:11:20.465,3.082875900430341
2025-03-22 16:11:20.474,1.1353125709082283
2025-03-22 16:11:20.475,-2.904219931281731
2025-03-22 16:11:20.475,-4.7867197876282175
2025-03-22 16:11:20.475,-1.878245152495914
2025-03-22 16:11:20.475,3.3261511592155273
2025-03-22 16:11:20.485,5.563381435324693
2025-03-22 16:11:20.485,2.5800223640728452
2025-03-22 16:11:20.485,-2.508099393040454
2025-03-22 16:11:20.485,-4.885980348682593
2025-03-22 16:11:20.485,-3.057917467102547
2025-03-22 16:11:20.494,0.473365801389058
2025-03-22 16:11:20.495,2.6594760624797766
2025-03-22 16:11:20.495,2.7182281457852615
2025-03-22 16:11:20.495,1.6320954901313522
2025-03-22 16:11:20.495,0.2814990670999666
2025-03-22 16:11:20.503,-1.1120234994715403
2025-03-22 16:11:20.503,-2.3131588129922607
2025-03-22 16:11:20.503,-2.677696248914899
2025-03-22 16:11:20.503,-1.5184104678931305
2025-03-22 16:11:20.503,1.124437984528813
2025-03-22 16:11:20.513,3.7731722541705808
2025-03-22 16:11:20.513,3.9675228789144756
2025-03-22 16:11:20.513,0.6584733602592221
2025-03-22 16:11:20.513,-3.627408998536829
2025-03-22 16:11:20.513,-4.566291338970267
2025-03-22 16:11:20.523,-1.038274877398777
2025-03-22 16:11:20.523,2.910125618434136
2025-03-22 16:11:20.523,2.7261504089179076
2025-03-22 16:11:20.523,-0.8089866451646219
2025-03-22 16:11:20.523,-2.52667413723834
2025-03-22 16:11:20.533,0.21176937448592614
2025-03-22 16:11:20.533,3.785062114345471
2025-03-22 16:11:20.533,2.9475880909010885
2025-03-22 16:11:20.533,-2.1467110392045217
2025-03-22 16:11:20.543,-5.777610230034671
2025-03-22 16:11:20.543,-3.6404701710741225
2025-03-22 16:11:20.543,1.9678456282705123
2025-03-22 16:11:20.543,5.166997160685387
2025-03-22 16:11:20.543,3.457733954310256
2025-03-22 16:11:20.543,-0.22740711341410844
2025-03-22 16:11:20.553,-2.1055283832037666
2025-03-22 16:11:20.553,-1.8609381474922273
2025-03-22 16:11:20.553,-1.399422502126693
2025-03-22 16:11:20.553,-1.2348673738139349
2025-03-22 16:11:20.563,-0.28379276167981543
2025-03-22 16:11:20.563,1.4434323552217412
2025-03-22 16:11:20.563,2.2840001881344145
2025-03-22 16:11:20.563,1.4251371296927915
2025-03-22 16:11:20.563,0.1022531027342801
2025-03-22 16:11:20.572,-0.5116973922868664
2025-03-22 16:11:20.573,-0.9936796440459805
2025-03-22 16:11:20.573,-1.9705944133768691
2025-03-22 16:11:20.573,-2.1238001597759957
2025-03-22 16:11:20.573,0.06904451799089431
2025-03-22 16:11:20.583,3.124513920526812
2025-03-22 16:11:20.583,3.4322209381870157
2025-03-22 16:11:20.583,-0.016717911991992795
2025-03-22 16:11:20.583,-3.6111524019664407
2025-03-22 16:11:20.583,-3.182047127325332
2025-03-22 16:11:20.592,0.8701090149596327
2025-03-22 16:11:20.593,3.947247617421373
2025-03-22 16:11:20.593,2.5818876399628397
2025-03-22 16:11:20.593,-1.6974373362583752
2025-03-22 16:11:20.593,-4.176403566192092
2025-03-22 16:11:20.602,-2.160630808618441
2025-03-22 16:11:20.603,2.097142131503332
2025-03-22 16:11:20.603,3.8798439037996486
2025-03-22 16:11:20.603,1.2942840617649483
2025-03-22 16:11:20.603,-2.528595731992785
2025-03-22 16:11:20.612,-3.070767303152903
2025-03-22 16:11:20.613,0.19565576978779162
2025-03-22 16:11:20.613,3.233326512908475
2025-03-22 16:11:20.613,2.4493317768363934
2025-03-22 16:11:20.613,-1.0691006146355453
2025-03-22 16:11:20.621,-3.364008369078479
2025-03-22 16:11:20.621,-2.5566024781559302
2025-03-22 16:11:20.621,-0.20192987220237843
2025-03-22 16:11:20.621,1.788058446350601
2025-03-22 16:11:20.621,3.124991568004655
2025-03-22 16:11:20.631,3.460897514855838
2025-03-22 16:11:20.631,1.3056794144174502
2025-03-22 16:11:20.631,-3.3031850241015284
2025-03-22 16:11:20.631,-6.586025442392949
2025-03-22 16:11:20.641,-4.313501736847751
2025-03-22 16:11:20.641,2.5404618617210053
2025-03-22 16:11:20.641,7.647250935390693
2025-03-22 16:11:20.641,5.87034767958358
2025-03-22 16:11:20.641,-1.1548434021504166
2025-03-22 16:11:20.651,-6.82419722827573
2025-03-22 16:11:20.651,-6.1890385590403945
2025-03-22 16:11:20.651,-0.21963603374029678
2025-03-22 16:11:20.651,5.622572220048266
2025-03-22 16:11:20.651,6.269651184862049
2025-03-22 16:11:20.660,1.2902810209661506
2025-03-22 16:11:20.661,-4.708000603217882
2025-03-22 16:11:20.661,-6.198108477009415
2025-03-22 16:11:20.661,-2.0030783405792896
2025-03-22 16:11:20.661,3.6131629191655175
2025-03-22 16:11:20.671,5.382048123568966
2025-03-22 16:11:20.671,2.1929199604924663
2025-03-22 16:11:20.671,-2.382949946172665
2025-03-22 16:11:20.671,-4.056865834725643
2025-03-22 16:11:20.671,-1.7405485087672938
2025-03-22 16:11:20.681,1.971391346847887
2025-03-22 16:11:20.681,3.416911500012566
2025-03-22 16:11:20.681,1.124259638630533
2025-03-22 16:11:20.681,-2.765745936618285
2025-03-22 16:11:20.681,-4.237688419410232
2025-03-22 16:11:20.690,-1.2576987860711277
2025-03-22 16:11:20.691,3.757585335453826
2025-03-22 16:11:20.691,5.839160757266142
2025-03-22 16:11:20.691,2.426562918026296
2025-03-22 16:11:20.691,-3.6495250049925443
2025-03-22 16:11:20.701,-6.652357630907092
2025-03-22 16:11:20.701,-3.6689566436529732
2025-03-22 16:11:20.701,2.357695800249135
2025-03-22 16:11:20.701,5.659839573051424
2025-03-22 16:11:20.701,3.609422622195617
2025-03-22 16:11:20.710,-0.9016531322109187
2025-03-22 16:11:20.711,-3.1854959590167073
2025-03-22 16:11:20.711,-1.965543931951129
2025-03-22 16:11:20.711,0.0863340502422755
2025-03-22 16:11:20.711,0.478143701829991
2025-03-22 16:11:20.720,-0.12076630564065871
2025-03-22 16:11:20.721,0.26630383492242166
2025-03-22 16:11:20.721,1.427911750013671
2025-03-22 16:11:20.721,1.1798526383355903
2025-03-22 16:11:20.721,-0.9218078758299826
2025-03-22 16:11:20.730,-2.1572460766120494
2025-03-22 16:11:20.731,-0.4185044292565573
2025-03-22 16:11:20.731,2.0565693128908795
2025-03-22 16:11:20.731,1.379210343985564
2025-03-22 16:11:20.731,-1.885211075903577
2025-03-22 16:11:20.740,-2.703669595639851
2025-03-22 16:11:20.741,1.0265515877948341
2025-03-22 16:11:20.741,4.424297791338892
2025-03-22 16:11:20.741,2.043460987129732
2025-03-22 16:11:20.741,-3.892995752728622
2025-03-22 16:11:20.750,-5.826555678715415
2025-03-22 16:11:20.751,-0.9266419985242591
2025-03-22 16:11:20.751,5.221996582011729
2025-03-22 16:11:20.751,5.889158290157527
2025-03-22 16:11:20.751,0.9516318482343107
2025-03-22 16:11:20.759,-4.192812621714527
2025-03-22 16:11:20.759,-5.146930554826975
2025-03-22 16:11:20.759,-2.0815534424062982
2025-03-22 16:11:20.759,1.8120587049330308
2025-03-22 16:11:20.760,3.566207638234018
2025-03-22 16:11:20.769,2.5155974908927137
2025-03-22 16:11:20.769,0.3262595383909911
2025-03-22 16:11:20.769,-0.9565575342383383
2025-03-22 16:11:20.769,-1.0651373233228711
2025-03-22 16:11:20.779,-1.232270088784111
2025-03-22 16:11:20.779,-1.8011092407789087
2025-03-22 16:11:20.779,-1.383741701583161
2025-03-22 16:11:20.779,0.8457202329879004
2025-03-22 16:11:20.779,3.15605447819437
2025-03-22 16:11:20.788,2.9642771852102636
2025-03-22 16:11:20.789,0.1729201165323457
2025-03-22 16:11:20.789,-2.5033695429961207
2025-03-22 16:11:20.789,-2.6850529735687436
2025-03-22 16:11:20.789,-0.8219497978880748
2025-03-22 16:11:20.798,0.8213956935946473
2025-03-22 16:11:20.799,0.9584742524616482
2025-03-22 16:11:20.799,0.4045970819201871
2025-03-22 16:11:20.799,0.5374759271082485
2025-03-22 16:11:20.799,1.226788245496575
2025-03-22 16:11:20.808,0.8840301921789218
2025-03-22 16:11:20.809,-1.2250041692089593
2025-03-22 16:11:20.809,-3.264042258247487
2025-03-22 16:11:20.809,-2.4012464208584
2025-03-22 16:11:20.809,1.5627511839736452
2025-03-22 16:11:20.819,4.978958289378202
2025-03-22 16:11:20.819,3.8417658600550855
2025-03-22 16:11:20.819,-1.4756439816235705
2025-03-22 16:11:20.819,-5.944035560540849
2025-03-22 16:11:20.819,-4.985377186881301
2025-03-22 16:11:20.828,0.5781829947174197
2025-03-22 16:11:20.829,5.3991024918547685
2025-03-22 16:11:20.829,5.247957449455367
2025-03-22 16:11:20.829,0.971452655837185
2025-03-22 16:11:20.829,-3.2023352578255295
2025-03-22 16:11:20.839,-4.194302532126162
2025-03-22 16:11:20.839,-2.237330808106812
2025-03-22 16:11:20.839,0.5380728645572873
2025-03-22 16:11:20.839,2.2980232383128856
2025-03-22 16:11:20.839,2.3260336302130824
2025-03-22 16:11:20.849,0.9096646460505368
2025-03-22 16:11:20.849,-0.8431040281638668
2025-03-22 16:11:20.849,-1.5410500301951051
2025-03-22 16:11:20.849,-0.6481452313901968
2025-03-22 16:11:20.849,0.7929819812140197
2025-03-22 16:11:20.858,1.074920076693175
2025-03-22 16:11:20.859,-0.22311460761665686
2025-03-22 16:11:20.859,-1.5762879028523626
2025-03-22 16:11:20.859,-1.2853530318336515
2025-03-22 16:11:20.859,0.40163022562731254
2025-03-22 16:11:20.867,1.6304359072607708
2025-03-22 16:11:20.867,1.2742138064569577
2025-03-22 16:11:20.867,0.10233934443490712
2025-03-22 16:11:20.867,-0.5277630878997759
2025-03-22 16:11:20.868,-0.3510281523742752
2025-03-22 16:11:20.877,-0.10999541435345692
2025-03-22 16:11:20.877,-0.31889080584793267
2025-03-22 16:11:20.877,-0.7321431493858306
2025-03-22 16:11:20.877,-0.8869238738291856
2025-03-22 16:11:20.887,-0.5868443566969024
2025-03-22 16:11:20.887,0.26480586972085557
2025-03-22 16:11:20.887,1.6926335055258075
2025-03-22 16:11:20.887,2.969849891902091
2025-03-22 16:11:20.887,2.428354275827195
2025-03-22 16:11:20.896,-0.8513415394804575
2025-03-22 16:11:20.897,-4.906534264878485
2025-03-22 16:11:20.897,-5.73341301607019
2025-03-22 16:11:20.897,-1.4668234391580206
2025-03-22 16:11:20.897,4.722108348569349
2025-03-22 16:11:20.907,7.1867170899297905
2025-03-22 16:11:20.907,3.578946040782966
2025-03-22 16:11:20.907,-2.6531867418548094
2025-03-22 16:11:20.907,-5.8923343906326675
2025-03-22 16:11:20.907,-3.9482211543907315
2025-03-22 16:11:20.917,0.40811365060867855
2025-03-22 16:11:20.917,3.009069961187
2025-03-22 16:11:20.917,2.4584916430770423
2025-03-22 16:11:20.917,0.5672394789616155
2025-03-22 16:11:20.917,-0.4447089074196912
2025-03-22 16:11:20.925,-0.21778434452237316
2025-03-22 16:11:20.925,0.1143992598635178
2025-03-22 16:11:20.925,-0.37831772600843616
2025-03-22 16:11:20.926,-1.4825827626513333
2025-03-22 16:11:20.926,-2.093481178315844
2025-03-22 16:11:20.936,-1.0599381909862555
2025-03-22 16:11:20.937,1.7231595263476691
2025-03-22 16:11:20.937,4.511297553256403
2025-03-22 16:11:20.937,4.421468367949336
2025-03-22 16:11:20.937,0.056338786718470424
2025-03-22 16:11:20.945,-6.0711313804554985
2025-03-22 16:11:20.945,-8.5165703549232
2025-03-22 16:11:20.945,-3.705700561629306
2025-03-22 16:11:20.945,5.590550389407223
2025-03-22 16:11:20.954,11.40041671686148
2025-03-22 16:11:20.955,7.689580262200708
2025-03-22 16:11:20.955,-3.0527142289995197
2025-03-22 16:11:20.955,-11.284339007155525
2025-03-22 16:11:20.955,-9.5591754950185
2025-03-22 16:11:20.964,-0.027673464772836387
2025-03-22 16:11:20.965,8.029822227680018
2025-03-22 16:11:20.965,7.935269724310203
2025-03-22 16:11:20.965,1.7260054312275919
2025-03-22 16:11:20.965,-3.5301085017156115
2025-03-22 16:11:20.974,-3.833512231766289
2025-03-22 16:11:20.975,-1.260897588401825
2025-03-22 16:11:20.975,0.23080540480279557
2025-03-22 16:11:20.975,-0.23230246804578128
2025-03-22 16:11:20.975,-0.5520868221044724
2025-03-22 16:11:20.984,0.6510967469440887
2025-03-22 16:11:20.985,2.184284046653194
2025-03-22 16:11:20.985,2.1442915368757447
2025-03-22 16:11:20.985,0.369791122545182
2025-03-22 16:11:20.985,-1.6011770360428776
2025-03-22 16:11:20.993,-2.3740455872836344
2025-03-22 16:11:20.993,-1.7838225863027568
2025-03-22 16:11:20.993,-0.42485750627559293
2025-03-22 16:11:20.993,1.1046606226027822
2025-03-22 16:11:20.993,2.2575849922690763
2025-03-22 16:11:21.003,2.373426625697391
2025-03-22 16:11:21.003,1.0388524321550026
2025-03-22 16:11:21.003,-1.30469883091105
2025-03-22 16:11:21.003,-3.301803810430125
2025-03-22 16:11:21.013,-3.3721180025052213
2025-03-22 16:11:21.013,-0.8135414965400931
2025-03-22 16:11:21.013,3.1361139064955132
2025-03-22 16:11:21.013,5.349059147716746
2025-03-22 16:11:21.014,3.1829397953439758
2025-03-22 16:11:21.014,-2.1802326610048315
2025-03-22 16:11:21.023,-5.793804719512246
2025-03-22 16:11:21.023,-4.079743151562676
2025-03-22 16:11:21.023,0.6365103851676197
2025-03-22 16:11:21.024,2.955325784489671
2025-03-22 16:11:21.024,1.6468719768844786
2025-03-22 16:11:21.033,0.9096497350586523
2025-03-22 16:11:21.033,3.145571669432335
2025-03-22 16:11:21.033,4.086522296709951
2025-03-22 16:11:21.033,-1.1565426474427867
2025-03-22 16:11:21.034,-9.106747925161871
2025-03-22 16:11:21.043,-10.100667826336577
2025-03-22 16:11:21.043,-0.5722734497546964
2025-03-22 16:11:21.043,10.841784861253448
2025-03-22 16:11:21.043,12.46120401019668
2025-03-22 16:11:21.053,2.94941077024406
2025-03-22 16:11:21.053,-7.615874723423722
2025-03-22 16:11:21.053,-9.615400446310375
2025-03-22 16:11:21.053,-3.6968097149703207
2025-03-22 16:11:21.053,2.2973804872774832
2025-03-22 16:11:21.062,3.4438937334092676
2025-03-22 16:11:21.063,1.8921443261046407
2025-03-22 16:11:21.063,1.6558832702049027
2025-03-22 16:11:21.063,2.574879558880414
2025-03-22 16:11:21.063,1.3206215507837975
2025-03-22 16:11:21.073,-2.902121745291712
2025-03-22 16:11:21.073,-6.102402946881606
2025-03-22 16:11:21.073,-3.933327627225429
2025-03-22 16:11:21.073,2.5273474561856286
2025-03-22 16:11:21.073,6.979438226826794
2025-03-22 16:11:21.082,4.6211208944637825
2025-03-22 16:11:21.083,-2.1238379579251685
2025-03-22 16:11:21.083,-6.038964353329346
2025-03-22 16:11:21.083,-3.371670002758378
2025-03-22 16:11:21.083,2.0267820362597204
2025-03-22 16:11:21.093,3.856680252172187
2025-03-22 16:11:21.093,1.0828904005071411
2025-03-22 16:11:21.093,-1.6994471239667084
2025-03-22 16:11:21.093,-1.0105385139049965
2025-03-22 16:11:21.093,1.2083225459378357
2025-03-22 16:11:21.103,1.0832885017014044
2025-03-22 16:11:21.103,-1.4884780576973846
2025-03-22 16:11:21.103,-2.8026533281755435
2025-03-22 16:11:21.103,-0.5514086624124014
2025-03-22 16:11:21.103,2.9078212483736796
2025-03-22 16:11:21.112,3.3443179656323183
2025-03-22 16:11:21.113,-0.09284720390999854
2025-03-22 16:11:21.113,-3.5614827447127038
2025-03-22 16:11:21.113,-2.864233230990292
2025-03-22 16:11:21.113,1.4380223658849272
2025-03-22 16:11:21.121,4.285008192822716
2025-03-22 16:11:21.121,1.9655801993738695
2025-03-22 16:11:21.121,-3.180874791247702
2025-03-22 16:11:21.122,-5.214185862358052
2025-03-22 16:11:21.122,-1.5758280230380306
2025-03-22 16:11:21.131,3.901999281663982
2025-03-22 16:11:21.131,5.544673919640212
2025-03-22 16:11:21.131,2.109448088752969
2025-03-22 16:11:21.131,-2.5802821140009455
2025-03-22 16:11:21.132,-4.4095597311994545
2025-03-22 16:11:21.142,-2.8446608521294907
2025-03-22 16:11:21.143,-0.12247742872406372
2025-03-22 16:11:21.143,1.7994364010215664
2025-03-22 16:11:21.143,2.5059312618398275
2025-03-22 16:11:21.143,2.218278410448818
2025-03-22 16:11:21.151,1.066480312921447
2025-03-22 16:11:21.151,-0.5727546691208459
2025-03-22 16:11:21.151,-1.9508071727637457
2025-03-22 16:11:21.151,-2.530513197620211
2025-03-22 16:11:21.161,-2.151658481280961
2025-03-22 16:11:21.161,-0.5961084807705447
2025-03-22 16:11:21.161,2.04580178698293
2025-03-22 16:11:21.161,4.245081072224335
2025-03-22 16:11:21.161,3.5350431461117844
2025-03-22 16:11:21.171,-0.604475886421366
2025-03-22 16:11:21.171,-4.929845376387726
2025-03-22 16:11:21.171,-5.082036558467092
2025-03-22 16:11:21.171,-0.47303103533191815
2025-03-22 16:11:21.171,4.5346646011192835
2025-03-22 16:11:21.181,5.092955028822878
2025-03-22 16:11:21.181,0.9520961641679406
2025-03-22 16:11:21.181,-3.6284858543787104
2025-03-22 16:11:21.181,-4.584746428751451
2025-03-22 16:11:21.181,-1.7144509177466805
2025-03-22 16:11:21.191,2.1286350341073477
2025-03-22 16:11:21.191,4.138334879033979
2025-03-22 16:11:21.191,3.281188545271941
2025-03-22 16:11:21.191,0.16304317462029339
2025-03-22 16:11:21.191,-3.347320917492462
2025-03-22 16:11:21.201,-4.68073550798843
2025-03-22 16:11:21.201,-2.3983747963150783
2025-03-22 16:11:21.201,1.8740054066825607
2025-03-22 16:11:21.201,4.3788325171802995
2025-03-22 16:11:21.201,3.023351526854476
2025-03-22 16:11:21.210,-0.3189514741925731
2025-03-22 16:11:21.211,-2.158019683577225
2025-03-22 16:11:21.211,-1.504679926689268
2025-03-22 16:11:21.211,-0.43167525194566936
2025-03-22 16:11:21.211,-0.6447547016230605
2025-03-22 16:11:21.220,-1.0468156648960847
2025-03-22 16:11:21.221,0.3108321167618459
2025-03-22 16:11:21.221,2.7561182107241677
2025-03-22 16:11:21.221,3.1574336054451275
2025-03-22 16:11:21.221,0.0036986115061557467
2025-03-22 16:11:21.229,-3.917710104778823
2025-03-22 16:11:21.229,-4.2379581354625415
2025-03-22 16:11:21.229,-0.1823083876287413
2025-03-22 16:11:21.230,4.2100779628128935
2025-03-22 16:11:21.230,4.479956484030204
2025-03-22 16:11:21.239,0.5471340590682683
2025-03-22 16:11:21.239,-3.525233686187295
2025-03-22 16:11:21.239,-4.049224206641743
2025-03-22 16:11:21.239,-1.189629458152081
2025-03-22 16:11:21.249,1.9521827179377993
2025-03-22 16:11:21.249,2.861047469092544
2025-03-22 16:11:21.249,1.6695199316526563
2025-03-22 16:11:21.249,0.03067126106162474
2025-03-22 16:11:21.249,-1.1118211681740542
2025-03-22 16:11:21.259,-1.860927213926344
2025-03-22 16:11:21.259,-1.930304038566407
2025-03-22 16:11:21.259,-0.43350678292887423
2025-03-22 16:11:21.259,2.1724643949915294
2025-03-22 16:11:21.259,3.3198354499098097
2025-03-22 16:11:21.269,1.1293704315851136
2025-03-22 16:11:21.269,-2.581708966646153
2025-03-22 16:11:21.269,-3.833660173724041
2025-03-22 16:11:21.269,-1.1869216621927359
2025-03-22 16:11:21.269,2.484360715026463
2025-03-22 16:11:21.279,3.4218878811551234
2025-03-22 16:11:21.279,1.131117779236676
2025-03-22 16:11:21.279,-1.6321608069527511
2025-03-22 16:11:21.279,-2.304270406706184
2025-03-22 16:11:21.279,-0.9454777744347693
2025-03-22 16:11:21.289,0.6085234817281417
2025-03-22 16:11:21.289,0.99834886256268
2025-03-22 16:11:21.289,0.3004351389148535
2025-03-22 16:11:21.289,-0.5393566195258623
2025-03-22 16:11:21.289,-0.5048226964199005
2025-03-22 16:11:21.298,0.7627523191821217
2025-03-22 16:11:21.299,2.1683532479793954
2025-03-22 16:11:21.299,1.5778412404324742
2025-03-22 16:11:21.299,-1.6676478021388819
2025-03-22 16:11:21.299,-4.780727677611156
2025-03-22 16:11:21.309,-3.758373729915017
2025-03-22 16:11:21.309,1.660660679075639
2025-03-22 16:11:21.309,6.562350773104292
2025-03-22 16:11:21.309,5.730601603008514
2025-03-22 16:11:21.309,-0.46848279119535996
2025-03-22 16:11:21.319,-6.2415393908659285
2025-03-22 16:11:21.319,-6.418150232969309
2025-03-22 16:11:21.319,-1.4236759413633833
2025-03-22 16:11:21.319,3.9417587825400546
2025-03-22 16:11:21.319,5.617320173516644
2025-03-22 16:11:21.327,3.3494282112834814
2025-03-22 16:11:21.327,-0.5662961667049257
2025-03-22 16:11:21.327,-3.865443015502942
2025-03-22 16:11:21.327,-5.0424072016168004
2025-03-22 16:11:21.328,-3.045533735800682
2025-03-22 16:11:21.338,1.7443478692413807
2025-03-22 16:11:21.339,6.2087575080139565
2025-03-22 16:11:21.339,6.122772642642142
2025-03-22 16:11:21.339,0.5459189070652533
2025-03-22 16:11:21.339,-6.062090594937084
2025-03-22 16:11:21.349,-7.623632455732811
2025-03-22 16:11:21.349,-2.6755983378967136
2025-03-22 16:11:21.349,4.042573931085547
2025-03-22 16:11:21.349,6.624621177577483
2025-03-22 16:11:21.349,3.84434833826939
2025-03-22 16:11:21.357,-0.6600365005008163
2025-03-22 16:11:21.357,-3.1927615220745715
2025-03-22 16:11:21.357,-3.4247677140779107
2025-03-22 16:11:21.357,-2.81646559166397
2025-03-22 16:11:21.367,-1.4542028781287415
2025-03-22 16:11:21.367,1.5931430244534082
2025-03-22 16:11:21.367,5.120824727318828
2025-03-22 16:11:21.367,5.436974793537982
2025-03-22 16:11:21.367,0.7347792637493468
2025-03-22 16:11:21.377,-5.399999393476071
2025-03-22 16:11:21.377,-7.0000732630975815
2025-03-22 16:11:21.377,-2.364235689297826
2025-03-22 16:11:21.377,3.874559672747505
2025-03-22 16:11:21.377,5.847227993482677
2025-03-22 16:11:21.387,2.483532866969334
2025-03-22 16:11:21.387,-2.1644834866770917
2025-03-22 16:11:21.387,-3.700865452178268
2025-03-22 16:11:21.387,-1.524020666393992
2025-03-22 16:11:21.387,1.5193615993483618
2025-03-22 16:11:21.396,2.600544811812039
2025-03-22 16:11:21.397,1.3600602110866065
2025-03-22 16:11:21.397,-0.8079568429733895
2025-03-22 16:11:21.397,-2.6844565899291943
2025-03-22 16:11:21.397,-3.4757809715454124
2025-03-22 16:11:21.407,-2.0126701436396393
2025-03-22 16:11:21.407,2.209640198483181
2025-03-22 16:11:21.407,6.675544714238852
2025-03-22 16:11:21.407,6.6202443811637
2025-03-22 16:11:21.407,0.17267157339910233
2025-03-22 16:11:21.415,-7.956354154361127
2025-03-22 16:11:21.415,-10.10322864039624
2025-03-22 16:11:21.416,-3.6500848380289774
2025-03-22 16:11:21.416,5.790104176569145
2025-03-22 16:11:21.416,9.98783480550784
2025-03-22 16:11:21.425,6.154083994453876
2025-03-22 16:11:21.425,-1.3614064789325626
2025-03-22 16:11:21.425,-6.4555332871831785
2025-03-22 16:11:21.425,-6.631085330462814
2025-03-22 16:11:21.435,-3.1438867411503546
2025-03-22 16:11:21.435,1.7104332747086117
2025-03-22 16:11:21.435,5.651991591987905
2025-03-22 16:11:21.435,6.162342642732728
2025-03-22 16:11:21.435,2.0443879887629333
2025-03-22 16:11:21.445,-4.109451511320962
2025-03-22 16:11:21.445,-7.01333649003571
2025-03-22 16:11:21.445,-3.836351613794011
2025-03-22 16:11:21.445,2.413234624580973
2025-03-22 16:11:21.445,5.850627509538254
2025-03-22 16:11:21.455,3.8006467418967427
2025-03-22 16:11:21.455,-0.9531228100768908
2025-03-22 16:11:21.455,-3.7057824737686396
2025-03-22 16:11:21.455,-2.568172597359651
2025-03-22 16:11:21.455,0.4179865515846325
2025-03-22 16:11:21.464,1.9653001915447676
2025-03-22 16:11:21.465,0.8379821137707315
2025-03-22 16:11:21.465,-1.172574291290806
2025-03-22 16:11:21.465,-1.315848895150265
2025-03-22 16:11:21.465,0.8780954057035658
2025-03-22 16:11:21.475,2.6593384124970885
2025-03-22 16:11:21.475,1.1754205241792
2025-03-22 16:11:21.475,-2.4679468125998527
2025-03-22 16:11:21.475,-3.7259731521253823
2025-03-22 16:11:21.475,-0.27070357099962244
2025-03-22 16:11:21.485,4.123658331642686
2025-03-22 16:11:21.485,3.5712149752329996
2025-03-22 16:11:21.485,-2.089883614443931
2025-03-22 16:11:21.485,-6.017485395845321
2025-03-22 16:11:21.485,-2.515297866703226
2025-03-22 16:11:21.494,5.201528199768817
2025-03-22 16:11:21.495,8.014019471229728
2025-03-22 16:11:21.495,1.7300306983616398
2025-03-22 16:11:21.495,-7.40258623229813
2025-03-22 16:11:21.495,-9.435408541550569
2025-03-22 16:11:21.503,-1.9000774697297855
2025-03-22 16:11:21.503,7.483947364740097
2025-03-22 16:11:21.503,9.347049845401157
2025-03-22 16:11:21.503,2.4982494951904766
2025-03-22 16:11:21.504,-5.61686679605072
2025-03-22 16:11:21.513,-7.413545951177943
2025-03-22 16:11:21.513,-2.650331048925269
2025-03-22 16:11:21.513,2.7973162572348604
2025-03-22 16:11:21.514,4.16835631444082
2025-03-22 16:11:21.514,2.1697575265120443
2025-03-22 16:11:21.523,0.21924531039443923
2025-03-22 16:11:21.523,-0.5461957958640176
2025-03-22 16:11:21.523,-1.5876582070652705
2025-03-22 16:11:21.523,-3.050484691943699
2025-03-22 16:11:21.533,-2.4149837948276187
2025-03-22 16:11:21.533,1.4910831844300931
2025-03-22 16:11:21.533,5.151391285245282
2025-03-22 16:11:21.533,3.8426767619380144
2025-03-22 16:11:21.533,-1.8465431068554303
2025-03-22 16:11:21.543,-5.7772158593413545
2025-03-22 16:11:21.543,-3.556446479324898
2025-03-22 16:11:21.543,2.050630185311149
2025-03-22 16:11:21.543,4.716127601024012
2025-03-22 16:11:21.543,2.173543182560538
2025-03-22 16:11:21.552,-1.8622398708738697
2025-03-22 16:11:21.553,-2.8722500654092267
2025-03-22 16:11:21.553,-0.4930219163810057
2025-03-22 16:11:21.553,2.0497345949359103
2025-03-22 16:11:21.553,1.8609141643336082
2025-03-22 16:11:21.563,-0.9669204491381646
2025-03-22 16:11:21.563,-3.596468045462558
2025-03-22 16:11:21.563,-2.846327593728053
2025-03-22 16:11:21.563,1.6519693348524473
2025-03-22 16:11:21.563,6.122251947837814
2025-03-22 16:11:21.572,5.560037494111945
2025-03-22 16:11:21.573,-0.867164068060794
2025-03-22 16:11:21.573,-7.8111635752384805
2025-03-22 16:11:21.573,-8.409694145730183
2025-03-22 16:11:21.573,-1.340037668509633
2025-03-22 16:11:21.583,7.335895869409594
2025-03-22 16:11:21.583,9.778929573555192
2025-03-22 16:11:21.583,3.823145488886376
2025-03-22 16:11:21.583,-5.098555929989902
2025-03-22 16:11:21.583,-9.212207252614592
2025-03-22 16:11:21.593,-5.477976949941903
2025-03-22 16:11:21.593,2.253700980457094
2025-03-22 16:11:21.593,7.379009105319616
2025-03-22 16:11:21.593,6.260087526733595
2025-03-22 16:11:21.593,0.4405147215481372
2025-03-22 16:11:21.603,-5.307261008893201
2025-03-22 16:11:21.603,-6.605677938004186
2025-03-22 16:11:21.603,-2.5154890009022335
2025-03-22 16:11:21.603,3.5678423006086972
2025-03-22 16:11:21.603,6.3993057909963005
2025-03-22 16:11:21.611,3.561467573606404
2025-03-22 16:11:21.611,-2.072766267661538
2025-03-22 16:11:21.611,-5.207788939818572
2025-03-22 16:11:21.612,-3.480103392809691
2025-03-22 16:11:21.612,0.6783519826903572
2025-03-22 16:11:21.621,3.294631337581552
2025-03-22 16:11:21.621,2.776896777209547
2025-03-22 16:11:21.621,0.35879557583699656
2025-03-22 16:11:21.622,-1.8715333010004649
2025-03-22 16:11:21.631,-2.317725379082681
2025-03-22 16:11:21.631,-0.4641283194497149
2025-03-22 16:11:21.631,2.1959612230219254
2025-03-22 16:11:21.631,2.5257970534917886
2025-03-22 16:11:21.632,-0.8340638846189808
2025-03-22 16:11:21.641,-4.467571127283984
2025-03-22 16:11:21.641,-3.135333576513054
2025-03-22 16:11:21.641,3.185874613094227
2025-03-22 16:11:21.641,7.5426767591709085
2025-03-22 16:11:21.641,3.7268837923018543
2025-03-22 16:11:21.651,-5.286687784730405
2025-03-22 16:11:21.651,-9.623674668557689
2025-03-22 16:11:21.651,-3.923393473754982
2025-03-22 16:11:21.651,5.926091976195683
2025-03-22 16:11:21.651,9.388570635633682
2025-03-22 16:11:21.661,3.3632076194074485
2025-03-22 16:11:21.661,-4.8730937345734935
2025-03-22 16:11:21.661,-6.835642174079567
2025-03-22 16:11:21.661,-2.186814399376516
2025-03-22 16:11:21.661,2.6854696027153673
2025-03-22 16:11:21.670,3.2918506681832493
2025-03-22 16:11:21.671,1.158661857093917
2025-03-22 16:11:21.671,-0.2701050394751442
2025-03-22 16:11:21.671,-0.45414785758598053
2025-03-22 16:11:21.671,-0.86650242749904
2025-03-22 16:11:21.680,-1.4811839499966588
2025-03-22 16:11:21.681,-0.7764691131351427
2025-03-22 16:11:21.681,1.2089901005980208
2025-03-22 16:11:21.681,2.164952915901195
2025-03-22 16:11:21.681,0.6079564815182332
2025-03-22 16:11:21.691,-1.758909495035257
2025-03-22 16:11:21.691,-2.0042059468396975
2025-03-22 16:11:21.691,0.26219841315685133
2025-03-22 16:11:21.691,2.270566368412513
2025-03-22 16:11:21.691,1.4521269564492696
2025-03-22 16:11:21.699,-1.3645197142499164
2025-03-22 16:11:21.699,-2.796295407568971
2025-03-22 16:11:21.699,-0.8572018519038694
2025-03-22 16:11:21.700,2.538264468169912
2025-03-22 16:11:21.700,3.512804014568622
2025-03-22 16:11:21.709,0.5946735487267657
2025-03-22 16:11:21.709,-3.4134545596062136
2025-03-22 16:11:21.709,-4.349168905847514
2025-03-22 16:11:21.709,-1.176818742272315
2025-03-22 16:11:21.719,3.0476816489942657
2025-03-22 16:11:21.719,4.603006167639824
2025-03-22 16:11:21.719,2.6791160205341886
2025-03-22 16:11:21.719,-0.6946604306252288
2025-03-22 16:11:21.719,-3.2541709919442776
2025-03-22 16:11:21.729,-4.0177362844036315
2025-03-22 16:11:21.729,-2.785416101196071
2025-03-22 16:11:21.729,0.22997031516858393
2025-03-22 16:11:21.729,3.646314046509723
2025-03-22 16:11:21.730,4.963315658337886
2025-03-22 16:11:21.739,2.747152072405701
2025-03-22 16:11:21.739,-1.3637431493468226
2025-03-22 16:11:21.739,-3.9394543458030493
2025-03-22 16:11:21.739,-3.3324328215760803
2025-03-22 16:11:21.739,-1.1487074437781262
2025-03-22 16:11:21.749,0.24312235980666805
2025-03-22 16:11:21.749,0.7294152758779795
2025-03-22 16:11:21.749,1.8799919833591445
2025-03-22 16:11:21.749,3.706034716620776
2025-03-22 16:11:21.749,3.6032908665128125
2025-03-22 16:11:21.759,-0.35214782509032927
2025-03-22 16:11:21.759,-5.732107765651793
2025-03-22 16:11:21.759,-7.141882214967782
2025-03-22 16:11:21.759,-2.1239744823083164
2025-03-22 16:11:21.759,5.268629221469941
2025-03-22 16:11:21.769,8.112713358622353
2025-03-22 16:11:21.769,3.795454983834357
2025-03-22 16:11:21.769,-3.3456507986175157
2025-03-22 16:11:21.769,-6.673667425290041
2025-03-22 16:11:21.769,-3.7966493981572236
2025-03-22 16:11:21.779,1.7250455612233655
2025-03-22 16:11:21.779,4.470230620713013
2025-03-22 16:11:21.779,2.424249201518829
2025-03-22 16:11:21.779,-1.5459672859453129
2025-03-22 16:11:21.779,-3.019866508440222
2025-03-22 16:11:21.789,-0.6802323495514548
2025-03-22 16:11:21.789,2.4813765879541014
2025-03-22 16:11:21.789,2.687551672019326
2025-03-22 16:11:21.789,-0.34650030856372355
2025-03-22 16:11:21.789,-3.2603139219107447
2025-03-22 16:11:21.799,-2.954563606552592
2025-03-22 16:11:21.799,0.17282273819630856
2025-03-22 16:11:21.799,3.028132170337286
2025-03-22 16:11:21.799,3.113138239210623
2025-03-22 16:11:21.799,0.6424136580516856
2025-03-22 16:11:21.809,-2.0739988706073524
2025-03-22 16:11:21.809,-2.812253123957313
2025-03-22 16:11:21.809,-1.2044228910573165
2025-03-22 16:11:21.809,1.164208825309426
2025-03-22 16:11:21.809,2.2728290052515523
2025-03-22 16:11:21.817,1.4166559939019727
2025-03-22 16:11:21.817,-0.4212201284919347
2025-03-22 16:11:21.817,-1.743399917940161
2025-03-22 16:11:21.818,-1.8002046309553685
2025-03-22 16:11:21.818,-0.741631854780441
2025-03-22 16:11:21.828,0.8909667459626851
2025-03-22 16:11:21.829,2.324786193551507
2025-03-22 16:11:21.829,2.515548711040552
2025-03-22 16:11:21.829,0.7782198433696383
2025-03-22 16:11:21.829,-2.129991586421471
2025-03-22 16:11:21.837,-3.979939419298356
2025-03-22 16:11:21.837,-2.880401141245663
2025-03-22 16:11:21.837,0.6146371813197101
2025-03-22 16:11:21.837,3.6832331573980226
2025-03-22 16:11:21.838,3.9805449405356237
2025-03-22 16:11:21.847,1.836447457882234
2025-03-22 16:11:21.847,-0.8104966273548194
2025-03-22 16:11:21.847,-2.9187634795245034
2025-03-22 16:11:21.847,-4.380917256000079
2025-03-22 16:11:21.857,-4.015216383940257
2025-03-22 16:11:21.857,-0.05915073645683372
2025-03-22 16:11:21.857,6.098588308570077
2025-03-22 16:11:21.857,8.854389834917384
2025-03-22 16:11:21.858,3.8373286785009104
2025-03-22 16:11:21.858,-5.871924802572517
2025-03-22 16:11:21.867,-11.451669848527471
2025-03-22 16:11:21.867,-7.279253913170391
2025-03-22 16:11:21.867,3.0491466597899266
2025-03-22 16:11:21.867,10.45207643181617
2025-03-22 16:11:21.877,9.236131525920943
2025-03-22 16:11:21.877,1.524199547945163
2025-03-22 16:11:21.877,-6.0944564149088905
2025-03-22 16:11:21.877,-8.687163846626467
2025-03-22 16:11:21.877,-5.77318289956214
2025-03-22 16:11:21.887,0.09481155410680212
2025-03-22 16:11:21.887,5.659941753690578
2025-03-22 16:11:21.887,7.943622858990734
2025-03-22 16:11:21.887,5.0473494556075895
2025-03-22 16:11:21.887,-1.8870649560368673
2025-03-22 16:11:21.897,-7.813683580738726
2025-03-22 16:11:21.897,-7.298899316155142
2025-03-22 16:11:21.897,-0.3461970486692747
2025-03-22 16:11:21.897,6.509689296487395
2025-03-22 16:11:21.897,6.626114724800312
2025-03-22 16:11:21.907,0.4123248050169376
2025-03-22 16:11:21.907,-5.314682006737078
2025-03-22 16:11:21.907,-4.981931710006887
2025-03-22 16:11:21.907,0.18096414635944463
2025-03-22 16:11:21.907,4.482016865925943
2025-03-22 16:11:21.916,4.141328145525686
2025-03-22 16:11:21.917,0.31426768442215147
2025-03-22 16:11:21.917,-3.2419976132273867
2025-03-22 16:11:21.917,-3.966353035494791
2025-03-22 16:11:21.917,-1.9407104091237062
2025-03-22 16:11:21.927,1.1183683943410188
2025-03-22 16:11:21.927,3.3183660738455747
2025-03-22 16:11:21.927,3.3562667883509536
2025-03-22 16:11:21.927,1.024407200800007
2025-03-22 16:11:21.927,-2.2090072506074105
2025-03-22 16:11:21.937,-3.6554713865662056
2025-03-22 16:11:21.937,-1.7557884904883356
2025-03-22 16:11:21.937,1.7518167967426508
2025-03-22 16:11:21.937,3.1575557183714724
2025-03-22 16:11:21.937,0.9522344497742801
2025-03-22 16:11:21.947,-2.2172165510292654
2025-03-22 16:11:21.947,-2.6547136933628916
2025-03-22 16:11:21.947,-0.010170072868904784
2025-03-22 16:11:21.947,2.5666371238624563
2025-03-22 16:11:21.947,2.39552197069137
2025-03-22 16:11:21.955,0.1164223310872751
2025-03-22 16:11:21.955,-1.735794378070595
2025-03-22 16:11:21.955,-1.8842216717465976
2025-03-22 16:11:21.955,-1.1104560993415171
2025-03-22 16:11:21.956,-0.413367621066302
2025-03-22 16:11:21.967,0.42286599546798614
2025-03-22 16:11:21.967,1.936807585822183
2025-03-22 16:11:21.967,3.2551715903560816
2025-03-22 16:11:21.967,2.270572044898815
2025-03-22 16:11:21.967,-1.7421786877901257
2025-03-22 16:11:21.975,-5.932317834597568
2025-03-22 16:11:21.975,-5.618142650841699
2025-03-22 16:11:21.975,0.531377812655404
2025-03-22 16:11:21.975,7.5300766276138305
2025-03-22 16:11:21.976,8.177883711627157
2025-03-22 16:11:21.985,0.9989936463675513
2025-03-22 16:11:21.985,-7.269330459093476
2025-03-22 16:11:21.985,-8.564567574245059
2025-03-22 16:11:21.985,-2.1490480958528684
2025-03-22 16:11:21.995,5.142708446679063
2025-03-22 16:11:21.995,6.78086803994018
2025-03-22 16:11:21.995,2.738296807798049
2025-03-22 16:11:21.995,-2.2255188376200064
2025-03-22 16:11:21.995,-4.223437257279359
2025-03-22 16:11:22.005,-2.9459860930107005
2025-03-22 16:11:22.005,-0.21965042819232927
2025-03-22 16:11:22.005,2.1520215982619457
2025-03-22 16:11:22.005,3.0577537404133106
2025-03-22 16:11:22.005,1.9595353305202126
2025-03-22 16:11:22.015,-0.8072591701613228
2025-03-22 16:11:22.015,-3.508932583450563
2025-03-22 16:11:22.015,-3.614201207208909
2025-03-22 16:11:22.015,-0.11572473094292618
2025-03-22 16:11:22.015,4.454763918709177
2025-03-22 16:11:22.025,5.505605031569289
2025-03-22 16:11:22.025,1.0870604772451773
2025-03-22 16:11:22.025,-5.2122172928335475
2025-03-22 16:11:22.025,-7.25387937123786
2025-03-22 16:11:22.025,-2.5979830807901276
2025-03-22 16:11:22.035,4.755211221488898
2025-03-22 16:11:22.035,8.143668997830192
2025-03-22 16:11:22.035,4.572973896905932
2025-03-22 16:11:22.035,-2.693908583959234
2025-03-22 16:11:22.035,-7.434083015273712
2025-03-22 16:11:22.045,-6.073089260663111
2025-03-22 16:11:22.045,-0.3394266421325334
2025-03-22 16:11:22.045,4.90007852084614
2025-03-22 16:11:22.045,5.95225182824863
2025-03-22 16:11:22.045,2.837244135785572
2025-03-22 16:11:22.054,-1.4950815141100386
2025-03-22 16:11:22.055,-3.9030702401211674
2025-03-22 16:11:22.055,-3.315743921206208
2025-03-22 16:11:22.055,-0.9837074826566627
2025-03-22 16:11:22.055,1.0460989739253976
2025-03-22 16:11:22.065,1.6737440533855268
2025-03-22 16:11:22.065,1.2648337327745072
2025-03-22 16:11:22.065,0.7961260358825422
2025-03-22 16:11:22.065,0.6660616293846672
2025-03-22 16:11:22.065,0.35675013245800485
2025-03-22 16:11:22.075,-0.7285420898931185
2025-03-22 16:11:22.075,-2.146102732960803
2025-03-22 16:11:22.075,-2.4187053214796177
2025-03-22 16:11:22.075,-0.5744553191428738
2025-03-22 16:11:22.075,2.2736717051234305
2025-03-22 16:11:22.083,3.4767912911744507
2025-03-22 16:11:22.083,1.6289733365751644
2025-03-22 16:11:22.083,-1.4581031631469459
2025-03-22 16:11:22.083,-2.5642357691119924
2025-03-22 16:11:22.084,-1.0410411668129824
2025-03-22 16:11:22.093,0.31714202583369233
2025-03-22 16:11:22.093,-0.6546939181898955
2025-03-22 16:11:22.093,-1.8742396866553892
2025-03-22 16:11:22.093,0.31625868501758936
2025-03-22 16:11:22.094,5.067100994794203
2025-03-22 16:11:22.103,6.437069575321508
2025-03-22 16:11:22.103,0.6039652325198066
2025-03-22 16:11:22.103,-8.041492444038752
2025-03-22 16:11:22.103,-10.581623842603925
2025-03-22 16:11:22.113,-3.3988432545399743
2025-03-22 16:11:22.113,7.442756313077319
2025-03-22 16:11:22.113,12.20129687667803
2025-03-22 16:11:22.113,6.86909491807583
2025-03-22 16:11:22.113,-3.6542252881456703
2025-03-22 16:11:22.123,-10.621789238883897
2025-03-22 16:11:22.123,-8.986299390554214
2025-03-22 16:11:22.123,-0.9091526684496293
2025-03-22 16:11:22.123,6.795979688090474
2025-03-22 16:11:22.123,8.472813942552984
2025-03-22 16:11:22.132,3.841993294303528
2025-03-22 16:11:22.133,-2.5523333154257313
2025-03-22 16:11:22.133,-5.7222480192559315
2025-03-22 16:11:22.133,-4.242966400844565
2025-03-22 16:11:22.133,-0.4571416019294291
2025-03-22 16:11:22.143,2.46601903391261
2025-03-22 16:11:22.143,3.0822243176243624
2025-03-22 16:11:22.143,1.7543261599432478
2025-03-22 16:11:22.143,-0.4635919261381758
2025-03-22 16:11:22.143,-2.2630650351987383
2025-03-22 16:11:22.153,-2.229039289944586
2025-03-22 16:11:22.153,0.0505506155563986
2025-03-22 16:11:22.153,2.813261824902123
2025-03-22 16:11:22.153,3.142328153436183
2025-03-22 16:11:22.153,0.009497443683764012
2025-03-22 16:11:22.163,-4.007453101211128
2025-03-22 16:11:22.163,-4.838795641754571
2025-03-22 16:11:22.163,-1.050648543121469
2025-03-22 16:11:22.163,4.3550519248702875
2025-03-22 16:11:22.163,6.484244022692233
2025-03-22 16:11:22.171,3.0635269217556234
2025-03-22 16:11:22.171,-3.250227340228171
2025-03-22 16:11:22.171,-6.929233407840817
2025-03-22 16:11:22.171,-4.528935073146378
2025-03-22 16:11:22.172,1.7164543510628896
2025-03-22 16:11:22.181,5.638888729107847
2025-03-22 16:11:22.181,3.509992668589307
2025-03-22 16:11:22.181,-1.5537617287769483
2025-03-22 16:11:22.182,-3.1150752861506223
2025-03-22 16:11:22.191,0.4187934309343209
2025-03-22 16:11:22.191,3.4407711862260357
2025-03-22 16:11:22.191,0.6480944358455205
2025-03-22 16:11:22.191,-5.125898749320731
2025-03-22 16:11:22.191,-5.956780402776207
2025-03-22 16:11:22.201,0.5704369311537557
2025-03-22 16:11:22.201,7.529078040205371
2025-03-22 16:11:22.201,7.0699215311515875
2025-03-22 16:11:22.201,-0.0958068114356384
2025-03-22 16:11:22.202,-6.287105829586953
2025-03-22 16:11:22.211,-6.258331797586395
2025-03-22 16:11:22.211,-1.8109162659583324
2025-03-22 16:11:22.211,2.46045221382377
2025-03-22 16:11:22.211,4.415475581724582
2025-03-22 16:11:22.212,4.194970378398929
2025-03-22 16:11:22.221,1.82033394236369
2025-03-22 16:11:22.221,-2.301780446651418
2025-03-22 16:11:22.221,-5.599484143003114
2025-03-22 16:11:22.221,-4.807386648421446
2025-03-22 16:11:22.222,0.1673141614001786
2025-03-22 16:11:22.231,5.230744068576703
2025-03-22 16:11:22.231,5.837814704873516
2025-03-22 16:11:22.231,1.4901468697455977
2025-03-22 16:11:22.231,-3.7541883526025153
2025-03-22 16:11:22.231,-5.172479400244964
2025-03-22 16:11:22.241,-1.8591169727365922
2025-03-22 16:11:22.241,2.5036772822278377
2025-03-22 16:11:22.241,3.485415955392577
2025-03-22 16:11:22.241,0.5969861633553053
2025-03-22 16:11:22.241,-2.3049407731257143
2025-03-22 16:11:22.250,-1.633782280518281
2025-03-22 16:11:22.251,1.5764867163499439
2025-03-22 16:11:22.251,2.9753714254246995
2025-03-22 16:11:22.251,0.42447378585856865
2025-03-22 16:11:22.251,-3.1538904740201295
2025-03-22 16:11:22.261,-3.3538921076216206
2025-03-22 16:11:22.261,0.11878886335255215
2025-03-22 16:11:22.261,3.0205164245514298
2025-03-22 16:11:22.261,2.019641932436792
2025-03-22 16:11:22.261,-0.9951942637518846
2025-03-22 16:11:22.271,-1.5488977462866007
2025-03-22 16:11:22.271,1.1660776041024763
2025-03-22 16:11:22.271,2.900434081429725
2025-03-22 16:11:22.271,0.1388775070640904
2025-03-22 16:11:22.271,-4.461080748947335
2025-03-22 16:11:22.281,-4.769586387705113
2025-03-22 16:11:22.281,0.7056013388087286
2025-03-22 16:11:22.281,5.939026399744107
2025-03-22 16:11:22.281,4.485822143830759
2025-03-22 16:11:22.281,-1.9841684436512654
2025-03-22 16:11:22.289,-5.3228420032168176
2025-03-22 16:11:22.289,-1.405400746571251
2025-03-22 16:11:22.289,4.270033378325516
2025-03-22 16:11:22.290,3.7833907686617203
2025-03-22 16:11:22.290,-2.583999404520955
2025-03-22 16:11:22.299,-6.543506686787443
2025-03-22 16:11:22.299,-2.538989373024551
2025-03-22 16:11:22.299,5.093413909602694
2025-03-22 16:11:22.300,7.493637876889455
2025-03-22 16:11:22.300,1.9356726045900565
2025-03-22 16:11:22.309,-5.328958162226905
2025-03-22 16:11:22.309,-6.694306998547698
2025-03-22 16:11:22.309,-1.5780564929023506
2025-03-22 16:11:22.310,3.8830204980296723
2025-03-22 16:11:22.319,4.367814846956615
2025-03-22 16:11:22.319,0.8396965501207643
2025-03-22 16:11:22.319,-1.7919496009218592
2025-03-22 16:11:22.319,-1.0322480533210348
2025-03-22 16:11:22.319,0.7181469147488859
2025-03-22 16:11:22.329,0.0805351999797952
2025-03-22 16:11:22.329,-2.4033271474702884
2025-03-22 16:11:22.329,-2.8366297690059827
2025-03-22 16:11:22.329,0.6207310834605804
2025-03-22 16:11:22.329,4.619497283140955
2025-03-22 16:11:22.339,4.34824903367811
2025-03-22 16:11:22.339,-0.29173835319724184
2025-03-22 16:11:22.339,-4.264833471704974
2025-03-22 16:11:22.339,-3.673112045272904
2025-03-22 16:11:22.339,-0.45618496976171885
2025-03-22 16:11:22.349,0.9139236681484098
2025-03-22 16:11:22.349,-0.015591323108205463
2025-03-22 16:11:22.349,0.4976977591211683
2025-03-22 16:11:22.349,3.7805414006193083
2025-03-22 16:11:22.349,5.398223633211373
2025-03-22 16:11:22.357,0.9659796582454989
2025-03-22 16:11:22.357,-6.601512416087353
2025-03-22 16:11:22.358,-9.218641107804912
2025-03-22 16:11:22.358,-3.2754914294536475
2025-03-22 16:11:22.358,5.6341476250006615
2025-03-22 16:11:22.367,8.97088929916447
2025-03-22 16:11:22.367,4.514714367108047
2025-03-22 16:11:22.367,-2.269772190129056
2025-03-22 16:11:22.367,-5.165389111751216
2025-03-22 16:11:22.377,-3.4191704057729817
2025-03-22 16:11:22.377,-0.6514150816217205
2025-03-22 16:11:22.377,0.5871621329762289
2025-03-22 16:11:22.378,1.0936826722682556
2025-03-22 16:11:22.378,2.016228207111352
2025-03-22 16:11:22.378,2.1167775346964914
2025-03-22 16:11:22.387,-0.06694605487446427
2025-03-22 16:11:22.387,-2.7122359877723654
2025-03-22 16:11:22.387,-2.238749074290361
2025-03-22 16:11:22.387,1.4159927392297829
2025-03-22 16:11:22.397,3.6937768180582062
2025-03-22 16:11:22.397,1.0857697215382864
2025-03-22 16:11:22.397,-3.7920002739553187
2025-03-22 16:11:22.397,-4.923116726012806
2025-03-22 16:11:22.397,-0.3103179904405805
2025-03-22 16:11:22.407,5.257924843439723
2025-03-22 16:11:22.407,5.62022292336839
2025-03-22 16:11:22.407,0.3528199482768995
2025-03-22 16:11:22.407,-4.853338627732093
2025-03-22 16:11:22.407,-4.87901677047218
2025-03-22 16:11:22.417,-0.7695469977303184
2025-03-22 16:11:22.417,2.469608385846732
2025-03-22 16:11:22.417,2.485688771458042
2025-03-22 16:11:22.418,1.473411823982076
2025-03-22 16:11:22.418,1.3462697083364317
2025-03-22 16:11:22.427,0.4088816406632852
2025-03-22 16:11:22.427,-2.8014004423142325
2025-03-22 16:11:22.427,-5.059466643520612
2025-03-22 16:11:22.427,-2.031892862699912
2025-03-22 16:11:22.428,4.384040951786769
2025-03-22 16:11:22.437,6.823948083566773
2025-03-22 16:11:22.437,1.8569292305576377
2025-03-22 16:11:22.437,-5.003914502879444
2025-03-22 16:11:22.437,-6.109833492189545
2025-03-22 16:11:22.437,-1.003461922737234
2025-03-22 16:11:22.447,4.012830009096698
2025-03-22 16:11:22.447,4.175240118862977
2025-03-22 16:11:22.447,0.8113894898714787
2025-03-22 16:11:22.447,-2.1371280351128226
2025-03-22 16:11:22.447,-2.821647693168043
2025-03-22 16:11:22.457,-1.6528235937914604
2025-03-22 16:11:22.457,0.5872521157494667
2025-03-22 16:11:22.457,2.7564452359002374
2025-03-22 16:11:22.457,2.920210557522758
2025-03-22 16:11:22.457,0.17320695373799125
2025-03-22 16:11:22.467,-3.3230241594711183
2025-03-22 16:11:22.467,-3.8905969540169676
2025-03-22 16:11:22.467,-0.48137233257015655
2025-03-22 16:11:22.467,3.6687158557332693
2025-03-22 16:11:22.467,4.269031768645884
2025-03-22 16:11:22.477,0.6188603917937459
2025-03-22 16:11:22.477,-3.522326575484699
2025-03-22 16:11:22.477,-3.8897923558729115
2025-03-22 16:11:22.477,-0.29920305906578654
2025-03-22 16:11:22.477,3.1594168249611827
2025-03-22 16:11:22.487,2.7142210239383244
2025-03-22 16:11:22.487,-0.7928506316099909
2025-03-22 16:11:22.487,-3.0022005240617218
2025-03-22 16:11:22.487,-1.3339346323909547
2025-03-22 16:11:22.487,2.0022321406276538
2025-03-22 16:11:22.497,2.9603112320719016
2025-03-22 16:11:22.497,0.6184723532339735
2025-03-22 16:11:22.497,-2.1098998046013815
2025-03-22 16:11:22.497,-2.379829424794437
2025-03-22 16:11:22.497,-0.5658652269473127
2025-03-22 16:11:22.507,0.932781135816558
2025-03-22 16:11:22.507,0.9192837121392453
2025-03-22 16:11:22.507,0.36144136454123205
2025-03-22 16:11:22.507,0.4340427141583521
2025-03-22 16:11:22.507,0.7663194302640767
2025-03-22 16:11:22.515,0.25575374035907816
2025-03-22 16:11:22.515,-0.965203363899065
2025-03-22 16:11:22.515,-1.444835051350653
2025-03-22 16:11:22.516,-0.4977373260499561
2025-03-22 16:11:22.516,0.6168336398636701
2025-03-22 16:11:22.525,0.43769355830014767
2025-03-22 16:11:22.525,-0.4380923449864695
2025-03-22 16:11:22.525,-0.14638080591582214
2025-03-22 16:11:22.526,1.489853189574472
2025-03-22 16:11:22.526,2.2829434778914126
2025-03-22 16:11:22.535,0.5509120163365537
2025-03-22 16:11:22.535,-2.462022764164638
2025-03-22 16:11:22.535,-3.888441667839751
2025-03-22 16:11:22.536,-2.26962105401042
2025-03-22 16:11:22.545,1.3223897810793408
2025-03-22 16:11:22.545,4.37528190238502
2025-03-22 16:11:22.545,4.494889853500309
2025-03-22 16:11:22.545,0.9818783742127752
2025-03-22 16:11:22.546,-3.859973806828461
2025-03-22 16:11:22.555,-5.741742495233695
2025-03-22 16:11:22.555,-2.45016857550479
2025-03-22 16:11:22.555,3.0764546927367347
2025-03-22 16:11:22.555,5.286398363540154
2025-03-22 16:11:22.556,2.1469975957733722
2025-03-22 16:11:22.565,-2.517820652544684
2025-03-22 16:11:22.565,-3.620877903895528
2025-03-22 16:11:22.565,-0.6716982292448306
2025-03-22 16:11:22.565,2.2222367053727994
2025-03-22 16:11:22.566,1.694554613460098
2025-03-22 16:11:22.575,-1.0723400192785189
2025-03-22 16:11:22.575,-2.2901530447451064
2025-03-22 16:11:22.575,-0.28719876985972104
2025-03-22 16:11:22.575,2.633772799494777
2025-03-22 16:11:22.575,2.9367899960239665
2025-03-22 16:11:22.585,-0.13798153231150667
2025-03-22 16:11:22.585,-3.6130382277604722
2025-03-22 16:11:22.585,-3.8248957996817734
2025-03-22 16:11:22.585,-0.3193904827374115
2025-03-22 16:11:22.585,3.534218023120618
2025-03-22 16:11:22.595,4.000171187828944
2025-03-22 16:11:22.595,0.8713782345865381
2025-03-22 16:11:22.595,-2.4700699739084784
2025-03-22 16:11:22.595,-2.863968044505566
2025-03-22 16:11:22.595,-0.6498659217604805
2025-03-22 16:11:22.603,1.2590134198812626
2025-03-22 16:11:22.603,1.0198390510928261
2025-03-22 16:11:22.604,-0.3566555380029711
2025-03-22 16:11:22.604,-0.8332618095960088
2025-03-22 16:11:22.604,0.09703229885517399
2025-03-22 16:11:22.613,1.2345448509972825
2025-03-22 16:11:22.613,1.3512482095904734
2025-03-22 16:11:22.614,0.30995400596327494
2025-03-22 16:11:22.614,-1.1307441027695264
2025-03-22 16:11:22.614,-1.9463095866386273
2025-03-22 16:11:22.625,-1.456139776857186
2025-03-22 16:11:22.625,0.09348053484949105
2025-03-22 16:11:22.625,1.562889481481651
2025-03-22 16:11:22.625,1.9122561698403242
2025-03-22 16:11:22.625,1.1153660364462443
2025-03-22 16:11:22.633,-0.10970998902341149
2025-03-22 16:11:22.633,-1.1664607201755102
2025-03-22 16:11:22.633,-1.781008845962167
2025-03-22 16:11:22.633,-1.6262373575381714
2025-03-22 16:11:22.643,-0.3960711215934677
2025-03-22 16:11:22.643,1.5521060574094934
2025-03-22 16:11:22.643,2.9536738329296526
2025-03-22 16:11:22.643,2.426211872193857
2025-03-22 16:11:22.644,-0.21927432985559386
2025-03-22 16:11:22.653,-3.346807161847059
2025-03-22 16:11:22.653,-4.421780553895364
2025-03-22 16:11:22.653,-2.1067022448854815
2025-03-22 16:11:22.653,2.221232169613816
2025-03-22 16:11:22.653,5.226747254408267
2025-03-22 16:11:22.663,4.368638327555689
2025-03-22 16:11:22.663,0.22165569106152516
2025-03-22 16:11:22.663,-3.934639044582913
2025-03-22 16:11:22.663,-4.981121378473888
2025-03-22 16:11:22.664,-2.5465467787988962
2025-03-22 16:11:22.673,1.0915327875314937
2025-03-22 16:11:22.673,3.3556851427027734
2025-03-22 16:11:22.673,3.322502399960099
2025-03-22 16:11:22.673,1.6268622011666576
2025-03-22 16:11:22.673,-0.6421139807876743
2025-03-22 16:11:22.683,-2.3973694183563694
2025-03-22 16:11:22.683,-2.628719645507539
2025-03-22 16:11:22.683,-1.1570997812287491
2025-03-22 16:11:22.683,0.7187784203479519
2025-03-22 16:11:22.683,1.346507212033709
2025-03-22 16:11:22.693,0.7327478633000839
2025-03-22 16:11:22.693,0.47054882518963576
2025-03-22 16:11:22.693,1.239917532631775
2025-03-22 16:11:22.693,1.51703100674229
2025-03-22 16:11:22.694,-0.22804139013285918
2025-03-22 16:11:22.703,-2.905196439627486
2025-03-22 16:11:22.703,-3.754991907335874
2025-03-22 16:11:22.703,-1.625532447029929
2025-03-22 16:11:22.703,1.8684190783669952
2025-03-22 16:11:22.704,4.234254641164968
2025-03-22 16:11:22.713,4.053680838937994
2025-03-22 16:11:22.713,1.3498748459373635
2025-03-22 16:11:22.713,-2.5636469968097155
2025-03-22 16:11:22.713,-5.277397673954805
2025-03-22 16:11:22.714,-4.472418544423579
2025-03-22 16:11:22.723,0.00399515169231765
2025-03-22 16:11:22.723,5.050914908452825
2025-03-22 16:11:22.723,6.0315014477689495
2025-03-22 16:11:22.723,1.0647037426187003
2025-03-22 16:11:22.723,-5.672797154407883
2025-03-22 16:11:22.733,-6.658245418513536
2025-03-22 16:11:22.733,0.6003922416281575
2025-03-22 16:11:22.733,8.755403368090377
2025-03-22 16:11:22.733,7.63626513223376
2025-03-22 16:11:22.734,-3.156541189249988
2025-03-22 16:11:22.743,-12.135624574928585
2025-03-22 16:11:22.743,-8.82444222711849
2025-03-22 16:11:22.743,3.639423096922391
2025-03-22 16:11:22.743,12.137226322310893
2025-03-22 16:11:22.743,8.750204774235725
2025-03-22 16:11:22.751,-1.3922001905356174
2025-03-22 16:11:22.751,-7.832208383840717
2025-03-22 16:11:22.752,-6.584789704253424
2025-03-22 16:11:22.752,-1.826912672967691
2025-03-22 16:11:22.752,1.6027630935857224
2025-03-22 16:11:22.761,3.2262111832703053
2025-03-22 16:11:22.761,4.2232043463261695
2025-03-22 16:11:22.762,3.536895500586451
2025-03-22 16:11:22.762,-0.3997899432876291
2025-03-22 16:11:22.762,-5.3640865707185705
2025-03-22 16:11:22.771,-6.154297123692242
2025-03-22 16:11:22.771,-0.8562685358748707
2025-03-22 16:11:22.772,5.662588993693834
2025-03-22 16:11:22.772,6.540423977208296
2025-03-22 16:11:22.772,0.7728619577539595
2025-03-22 16:11:22.781,-5.439190177082418
2025-03-22 16:11:22.781,-5.613781414440464
2025-03-22 16:11:22.781,-0.0654799894462117
2025-03-22 16:11:22.782,4.857379193920819
2025-03-22 16:11:22.782,4.063599464988621
2025-03-22 16:11:22.791,-0.9224091816851197
2025-03-22 16:11:22.791,-4.229969204344771
2025-03-22 16:11:22.791,-2.4333654691777977
2025-03-22 16:11:22.792,1.958041382687059
2025-03-22 16:11:22.801,3.842347465108189
2025-03-22 16:11:22.801,1.354773856859394
2025-03-22 16:11:22.801,-2.4764408711644568
2025-03-22 16:11:22.801,-3.554253243038753
2025-03-22 16:11:22.801,-1.1461562397401845
2025-03-22 16:11:22.811,1.9310518844208189
2025-03-22 16:11:22.811,2.850738854772005
2025-03-22 16:11:22.811,1.5193613974568014
2025-03-22 16:11:22.811,-0.25389889924985765
2025-03-22 16:11:22.811,-1.2875740154397466
2025-03-22 16:11:22.821,-1.8161708791322044
2025-03-22 16:11:22.821,-2.0677510664987193
2025-03-22 16:11:22.821,-1.2496835219690932
2025-03-22 16:11:22.821,1.2538602906994212
2025-03-22 16:11:22.822,4.040109120828214
2025-03-22 16:11:22.831,4.197478164715655
2025-03-22 16:11:22.831,0.47862773728356445
2025-03-22 16:11:22.831,-4.4421627218710835
2025-03-22 16:11:22.831,-6.043061918260918
2025-03-22 16:11:22.831,-2.657820189201268
2025-03-22 16:11:22.841,2.690380668422752
2025-03-22 16:11:22.841,5.547771205523378
2025-03-22 16:11:22.841,4.252310585763436
2025-03-22 16:11:22.841,0.44584307371468235
2025-03-22 16:11:22.841,-3.2930953832733194
2025-03-22 16:11:22.851,-4.994302196612484
2025-03-22 16:11:22.851,-3.47739560877797
2025-03-22 16:11:22.851,0.8501763221150737
2025-03-22 16:11:22.851,5.07892126822837
2025-03-22 16:11:22.852,5.4406210666212464
2025-03-22 16:11:22.861,1.0839956387610161
2025-03-22 16:11:22.861,-4.374422693075857
2025-03-22 16:11:22.861,-6.053403865553272
2025-03-22 16:11:22.861,-2.596764057961111
2025-03-22 16:11:22.861,2.656017802137203
2025-03-22 16:11:22.870,5.181317639392475
2025-03-22 16:11:22.871,3.462325393400613
2025-03-22 16:11:22.871,-0.32596312702600916
2025-03-22 16:11:22.871,-3.043574215852895
2025-03-22 16:11:22.871,-3.2685321518378494
2025-03-22 16:11:22.881,-1.5794155363109206
2025-03-22 16:11:22.881,0.6647689529172496
2025-03-22 16:11:22.881,2.197665614532345
2025-03-22 16:11:22.881,2.193128397855757
2025-03-22 16:11:22.881,0.7451970380469657
2025-03-22 16:11:22.891,-0.9664343270597725
2025-03-22 16:11:22.891,-1.6097484131774267
2025-03-22 16:11:22.891,-0.9592167856665237
2025-03-22 16:11:22.891,0.07920403015291168
2025-03-22 16:11:22.891,0.6501777488404841
2025-03-22 16:11:22.899,0.725141353164318
2025-03-22 16:11:22.899,0.6253612304693742
2025-03-22 16:11:22.900,0.2733371988664044
2025-03-22 16:11:22.900,-0.5933138558491857
2025-03-22 16:11:22.900,-1.5599121645038319
2025-03-22 16:11:22.911,-1.4947652869345052
2025-03-22 16:11:22.911,0.1636024591237865
2025-03-22 16:11:22.911,2.3176974535387815
2025-03-22 16:11:22.911,3.0260367201777267
2025-03-22 16:11:22.911,1.487738958299788
2025-03-22 16:11:22.919,-1.2755339377744614
2025-03-22 16:11:22.919,-3.6622908060742723
2025-03-22 16:11:22.919,-4.532075642899179
2025-03-22 16:11:22.920,-2.8947428826386945
2025-03-22 16:11:22.929,1.7702397615917618
2025-03-22 16:11:22.929,7.414024480263152
2025-03-22 16:11:22.929,8.932043800548199
2025-03-22 16:11:22.930,2.693039020138116
2025-03-22 16:11:22.930,-7.7627268549377675
2025-03-22 16:11:22.939,-13.070284750749932
2025-03-22 16:11:22.939,-7.317838298581823
2025-03-22 16:11:22.939,4.830835919537039
2025-03-22 16:11:22.939,12.316837522212442
2025-03-22 16:11:22.940,9.04619613187253
2025-03-22 16:11:22.949,-0.4996176311867713
2025-03-22 16:11:22.949,-7.206520723114027
2025-03-22 16:11:22.949,-6.892350218189252
2025-03-22 16:11:22.949,-2.593077764448008
2025-03-22 16:11:22.950,1.0214141708760223
2025-03-22 16:11:22.959,2.6172226797466585
2025-03-22 16:11:22.959,3.241793802995998
2025-03-22 16:11:22.959,3.0490292935689474
2025-03-22 16:11:22.959,1.1478340242460814
2025-03-22 16:11:22.959,-1.9907235753350996
2025-03-22 16:11:22.969,-3.9584885567796375
2025-03-22 16:11:22.969,-2.8695473396803433
2025-03-22 16:11:22.969,0.36387436258442135
2025-03-22 16:11:22.969,2.787149023334336
2025-03-22 16:11:22.970,2.37058397435976
2025-03-22 16:11:22.979,0.07204620609024745
2025-03-22 16:11:22.979,-1.2415539710730457
2025-03-22 16:11:22.979,-0.16307854705970168
2025-03-22 16:11:22.979,1.3322663830776693
2025-03-22 16:11:22.979,0.2959467439261928
2025-03-22 16:11:22.989,-2.8273731837295277
2025-03-22 16:11:22.989,-3.853201672198094
2025-03-22 16:11:22.989,-0.11414028457778397
2025-03-22 16:11:22.989,5.154993607590807
2025-03-22 16:11:22.990,5.8966291124681804
2025-03-22 16:11:22.999,0.6668619576610424
2025-03-22 16:11:22.999,-5.230375941765896
2025-03-22 16:11:22.999,-5.978843808297101
2025-03-22 16:11:22.999,-1.7774827019616897
2025-03-22 16:11:22.999,2.4681157718267155
2025-03-22 16:11:23.009,3.5495105676957968
2025-03-22 16:11:23.009,2.6038334438076514
2025-03-22 16:11:23.009,1.6998841130265103
2025-03-22 16:11:23.009,0.5736943782889006
2025-03-22 16:11:23.009,-1.875031205544851
2025-03-22 16:11:23.019,-4.506286699243896
2025-03-22 16:11:23.019,-4.442249087597575
2025-03-22 16:11:23.019,-0.6445535717674811
2025-03-22 16:11:23.019,4.24888703390078
2025-03-22 16:11:23.019,6.1704806600981845
2025-03-22 16:11:23.027,3.403381681677476
2025-03-22 16:11:23.027,-1.8745377637147673
2025-03-22 16:11:23.028,-5.434919487163472
2025-03-22 16:11:23.028,-4.514791776878327
2025-03-22 16:11:23.028,-0.18182328510846024
2025-03-22 16:11:23.037,3.566766236143072
2025-03-22 16:11:23.037,3.55309736816892
2025-03-22 16:11:23.038,0.5176025382206076
2025-03-22 16:11:23.038,-1.9281097375362821
2025-03-22 16:11:23.038,-1.5151105486757717
2025-03-22 16:11:23.047,0.3123531948391826
2025-03-22 16:11:23.047,0.7432545026739669
2025-03-22 16:11:23.048,-0.5424325125532037
2025-03-22 16:11:23.048,-1.1560634046630534
2025-03-22 16:11:23.048,0.38815721320027613
2025-03-22 16:11:23.057,2.273847515781979
2025-03-22 16:11:23.057,1.6350998454840295
2025-03-22 16:11:23.058,-1.4346878896896598
2025-03-22 16:11:23.058,-3.5397514617812553
2025-03-22 16:11:23.067,-1.9905329254029374
2025-03-22 16:11:23.067,1.8291020102888216
2025-03-22 16:11:23.067,3.9244157919747797
2025-03-22 16:11:23.068,2.1852784320923044
2025-03-22 16:11:23.068,-1.3821767379042396
2025-03-22 16:11:23.077,-3.088744585445675
2025-03-22 16:11:23.077,-1.6551370324870336
2025-03-22 16:11:23.077,0.7201488050289786
2025-03-22 16:11:23.078,1.3106369093497299
2025-03-22 16:11:23.078,0.10287510816179296
2025-03-22 16:11:23.087,-0.6045401149791849
2025-03-22 16:11:23.087,0.4604142813304115
2025-03-22 16:11:23.087,1.7417072273038872
2025-03-22 16:11:23.088,1.0475992803394962
2025-03-22 16:11:23.088,-1.210696052195067
2025-03-22 16:11:23.097,-2.340613494573463
2025-03-22 16:11:23.097,-1.0828391047745392
2025-03-22 16:11:23.097,0.5531812450468978
2025-03-22 16:11:23.098,0.3812833325114022
2025-03-22 16:11:23.098,-0.3484972434303987
2025-03-22 16:11:23.107,1.1278075399755327
2025-03-22 16:11:23.107,3.829115078137143
2025-03-22 16:11:23.107,3.0401324467465645
2025-03-22 16:11:23.107,-2.7408246528453386
2025-03-22 16:11:23.107,-7.7696852657945845
2025-03-22 16:11:23.117,-5.383939011677339
2025-03-22 16:11:23.117,2.880897846624104
2025-03-22 16:11:23.117,8.350530595708435
2025-03-22 16:11:23.117,5.712613206940302
2025-03-22 16:11:23.118,-1.0517354426744976
2025-03-22 16:11:23.127,-4.683332726567414
2025-03-22 16:11:23.127,-3.5197298651725704
2025-03-22 16:11:23.127,-1.5298023611369471
2025-03-22 16:11:23.127,-1.2289886846750646
2025-03-22 16:11:23.127,-0.4467086863123084
2025-03-22 16:11:23.137,2.994420843731323
2025-03-22 16:11:23.137,6.362953751516937
2025-03-22 16:11:23.137,4.630658649575149
2025-03-22 16:11:23.137,-2.4695444640645725
2025-03-22 16:11:23.137,-8.59006650154723
2025-03-22 16:11:23.147,-7.314136974018586
2025-03-22 16:11:23.147,0.5179376698805898
2025-03-22 16:11:23.147,7.4945378733129315
2025-03-22 16:11:23.147,7.470664462059556
2025-03-22 16:11:23.147,1.5118456661493407
2025-03-22 16:11:23.157,-4.227338695233322
2025-03-22 16:11:23.157,-5.3087596694256245
2025-03-22 16:11:23.157,-2.5657100858854736
2025-03-22 16:11:23.157,0.5309918592993484
2025-03-22 16:11:23.157,2.149307286380553
2025-03-22 16:11:23.167,2.689249367444395
2025-03-22 16:11:23.167,2.3349798673977427
2025-03-22 16:11:23.167,0.30563909352283575
2025-03-22 16:11:23.167,-2.8385550507930195
2025-03-22 16:11:23.167,-4.07854142002992
2025-03-22 16:11:23.177,-1.1442633102705857
2025-03-22 16:11:23.177,3.717618862632264
2025-03-22 16:11:23.177,5.311740344789157
2025-03-22 16:11:23.177,1.339425919079875
2025-03-22 16:11:23.177,-4.724798758552349
2025-03-22 16:11:23.187,-7.119674510447518
2025-03-22 16:11:23.187,-3.2096884042804077
2025-03-22 16:11:23.187,4.421008511743955
2025-03-22 16:11:23.187,9.754487910860556
2025-03-22 16:11:23.187,7.50788104343139
2025-03-22 16:11:23.195,-1.9886503591233775
2025-03-22 16:11:23.195,-11.314081280292806
2025-03-22 16:11:23.195,-11.69606975994159
2025-03-22 16:11:23.195,-1.961869850133866
2025-03-22 16:11:23.203,9.396539872430298
2025-03-22 16:11:23.203,12.467549903708584
2025-03-22 16:11:23.204,5.5361258552038075
2025-03-22 16:11:23.204,-4.33433769244393
2025-03-22 16:11:23.204,-9.129076608255582
2025-03-22 16:11:23.215,-6.777288428373948
2025-03-22 16:11:23.215,-0.9557355520321051
2025-03-22 16:11:23.215,3.7287565075679323
2025-03-22 16:11:23.215,5.267684773986284
2025-03-22 16:11:23.215,4.057131238415827
2025-03-22 16:11:23.223,1.1274668797432907
2025-03-22 16:11:23.223,-2.3770957836102458
2025-03-22 16:11:23.223,-4.617278392427154
2025-03-22 16:11:23.223,-3.7216344468574407
2025-03-22 16:11:23.233,-0.011468142968857925
2025-03-22 16:11:23.233,3.3630364780991955
2025-03-22 16:11:23.233,3.4135423955219513
2025-03-22 16:11:23.234,0.7423286990763679
2025-03-22 16:11:23.234,-1.2682444792130432
2025-03-22 16:11:23.234,-0.7478383729521048
2025-03-22 16:11:23.243,0.505239028296542
2025-03-22 16:11:23.243,-0.21444517007394934
2025-03-22 16:11:23.244,-2.5885568533485186
2025-03-22 16:11:23.244,-3.3223261228599528
2025-03-22 16:11:23.253,-0.236905417701083
2025-03-22 16:11:23.253,4.480909589955896
2025-03-22 16:11:23.253,6.007652453689063
2025-03-22 16:11:23.253,2.1816337061605933
2025-03-22 16:11:23.254,-3.583217442366249
2025-03-22 16:11:23.263,-5.762798115852895
2025-03-22 16:11:23.263,-3.027565485851206
2025-03-22 16:11:23.263,0.4940689266946694
2025-03-22 16:11:23.263,1.0138160987749154
2025-03-22 16:11:23.263,0.2167601219004887
2025-03-22 16:11:23.273,2.199256840714338
2025-03-22 16:11:23.273,6.160665059653995
2025-03-22 16:11:23.273,5.823502080052136
2025-03-22 16:11:23.273,-2.0706427275583055
2025-03-22 16:11:23.273,-11.23563168100417
2025-03-22 16:11:23.281,-11.404605315117838
2025-03-22 16:11:23.281,-0.5725364507771293
2025-03-22 16:11:23.282,11.321160605988391
2025-03-22 16:11:23.282,12.767660719425242
2025-03-22 16:11:23.291,3.166534603055494
2025-03-22 16:11:23.291,-7.254100007518332
2025-03-22 16:11:23.291,-9.272891347458096
2025-03-22 16:11:23.291,-3.735373970435784
2025-03-22 16:11:23.292,1.8761289480724472
2025-03-22 16:11:23.301,3.1874071866007863
2025-03-22 16:11:23.301,2.385559338096224
2025-03-22 16:11:23.301,2.639069753234549
2025-03-22 16:11:23.301,2.7326610553673794
2025-03-22 16:11:23.301,-0.3788165020895984
2025-03-22 16:11:23.311,-5.415157076520247
2025-03-22 16:11:23.311,-6.759620612977881
2025-03-22 16:11:23.311,-1.5179141114054837
2025-03-22 16:11:23.311,5.893114141736627
2025-03-22 16:11:23.312,8.22070050809573
2025-03-22 16:11:23.321,3.388851771963417
2025-03-22 16:11:23.321,-3.7367194457018194
2025-03-22 16:11:23.321,-7.05422284688877
2025-03-22 16:11:23.321,-4.9345917906457375
2025-03-22 16:11:23.321,-0.23319982785376345
2025-03-22 16:11:23.331,3.5614004163776247
2025-03-22 16:11:23.331,4.990288476506442
2025-03-22 16:11:23.331,4.157999989528964
2025-03-22 16:11:23.331,1.3060276100006338
2025-03-22 16:11:23.332,-2.964112124313733
2025-03-22 16:11:23.341,-6.383922299723239
2025-03-22 16:11:23.341,-5.7212113743736595
2025-03-22 16:11:23.341,-0.26272573556437706
2025-03-22 16:11:23.341,6.052902437511056
2025-03-22 16:11:23.342,7.7670618869019075
2025-03-22 16:11:23.351,3.4533760355374707
2025-03-22 16:11:23.351,-3.0117489723703526
2025-03-22 16:11:23.351,-6.707224130082768
2025-03-22 16:11:23.351,-5.821283842065968
2025-03-22 16:11:23.351,-1.678786931947418
2025-03-22 16:11:23.361,3.238595106208246
2025-03-22 16:11:23.361,6.329989289683192
2025-03-22 16:11:23.361,5.614238109419578
2025-03-22 16:11:23.361,1.2121926972370676
2025-03-22 16:11:23.361,-4.077514195115877
2025-03-22 16:11:23.371,-6.630322453146493
2025-03-22 16:11:23.371,-4.77608004971968
2025-03-22 16:11:23.371,0.0366929467206846
2025-03-22 16:11:23.371,4.417563254994441
2025-03-22 16:11:23.371,5.514209871320691
2025-03-22 16:11:23.379,3.0825255864367302
2025-03-22 16:11:23.379,-0.5510207534360645
2025-03-22 16:11:23.380,-2.812505045587015
2025-03-22 16:11:23.380,-3.1301213483129073
2025-03-22 16:11:23.389,-2.571535949354888
2025-03-22 16:11:23.389,-1.675829282305234
2025-03-22 16:11:23.390,0.21942760763766087
2025-03-22 16:11:23.390,3.132292568705589
2025-03-22 16:11:23.390,5.02444430602982
2025-03-22 16:11:23.390,3.512672508780535
2025-03-22 16:11:23.399,-1.0248485070024442
2025-03-22 16:11:23.399,-5.086635449295214
2025-03-22 16:11:23.400,-5.390475610829599
2025-03-22 16:11:23.400,-2.1050592595560027
2025-03-22 16:11:23.409,1.816679285496758
2025-03-22 16:11:23.409,3.974789361678701
2025-03-22 16:11:23.409,4.115134596391232
2025-03-22 16:11:23.409,2.702849584966005
2025-03-22 16:11:23.409,-0.2184211307534167
2025-03-22 16:11:23.419,-3.7947377341542206
2025-03-22 16:11:23.419,-5.497685712729207
2025-03-22 16:11:23.419,-3.3363714218195586
2025-03-22 16:11:23.419,1.392958037417507
2025-03-22 16:11:23.420,4.9632350908003735
2025-03-22 16:11:23.429,4.8287649591609165
2025-03-22 16:11:23.429,1.585300468351254
2025-03-22 16:11:23.429,-2.1936858478211474
2025-03-22 16:11:23.429,-4.0288670420745385
2025-03-22 16:11:23.430,-2.9790896440691452
2025-03-22 16:11:23.439,-0.3346398181298049
2025-03-22 16:11:23.439,1.395362482278243
2025-03-22 16:11:23.439,1.2685379028404982
2025-03-22 16:11:23.440,1.0598462945635858
2025-03-22 16:11:23.440,2.253141194472649
2025-03-22 16:11:23.449,2.8901188521059815
2025-03-22 16:11:23.449,-0.027470810229568852
2025-03-22 16:11:23.449,-5.108268352415015
2025-03-22 16:11:23.449,-6.678133266426746
2025-03-22 16:11:23.450,-1.8014424134769493
2025-03-22 16:11:23.459,5.149361316064611
2025-03-22 16:11:23.459,7.266174165608959
2025-03-22 16:11:23.459,3.180770584088781
2025-03-22 16:11:23.459,-2.122141728645668
2025-03-22 16:11:23.459,-4.047239665108298
2025-03-22 16:11:23.469,-3.0952420542673726
2025-03-22 16:11:23.469,-2.0600990979673024
2025-03-22 16:11:23.469,-1.1894482039156156
2025-03-22 16:11:23.469,1.3355585022157923
2025-03-22 16:11:23.469,4.9801955959006285
2025-03-22 16:11:23.479,5.844414373176136
2025-03-22 16:11:23.479,1.3554450341713447
2025-03-22 16:11:23.479,-5.436697459118749
2025-03-22 16:11:23.479,-8.113339245032874
2025-03-22 16:11:23.479,-3.676036535266488
2025-03-22 16:11:23.489,3.9119354576160004
2025-03-22 16:11:23.489,7.618055450217325
2025-03-22 16:11:23.489,4.44978484581661
2025-03-22 16:11:23.489,-1.8782666276257591
2025-03-22 16:11:23.489,-5.242329497476682
2025-03-22 16:11:23.499,-3.340087609743446
2025-03-22 16:11:23.499,0.7308173251111589
2025-03-22 16:11:23.499,2.5547097880793386
2025-03-22 16:11:23.499,1.1224258937915657
2025-03-22 16:11:23.499,-0.881243686317675
2025-03-22 16:11:23.509,-0.8790695985122915
2025-03-22 16:11:23.509,0.6410836778553408
2025-03-22 16:11:23.509,1.3831809012092073
2025-03-22 16:11:23.509,0.47503847706846647
2025-03-22 16:11:23.509,-0.7586324172642507
2025-03-22 16:11:23.517,-0.9611499585819417
2025-03-22 16:11:23.517,-0.3753770582546849
2025-03-22 16:11:23.518,-0.04617874319880004
2025-03-22 16:11:23.518,-0.3633891047552803
2025-03-22 16:11:23.527,-0.7842198949047215
2025-03-22 16:11:23.527,-0.40516397281886735
2025-03-22 16:11:23.527,1.2172456143143653
2025-03-22 16:11:23.528,3.0868472836048917
2025-03-22 16:11:23.528,2.89260405965997
2025-03-22 16:11:23.537,-0.5102328333382407
2025-03-22 16:11:23.537,-4.646843716804535
2025-03-22 16:11:23.537,-5.211084788842995
2025-03-22 16:11:23.537,-1.1662769325003914
2025-03-22 16:11:23.538,3.4807543944420547
2025-03-22 16:11:23.547,4.35554545708245
2025-03-22 16:11:23.547,1.9032653677481968
2025-03-22 16:11:23.547,-0.00613645557890781
2025-03-22 16:11:23.547,0.10436370715748736
2025-03-22 16:11:23.548,-0.38577934004526265
2025-03-22 16:11:23.557,-3.2831957429256886
2025-03-22 16:11:23.557,-5.480247709746161
2025-03-22 16:11:23.557,-2.4826997713845733
2025-03-22 16:11:23.557,4.532980319698754
2025-03-22 16:11:23.558,8.36593812168896
2025-03-22 16:11:23.567,4.17791277568982
2025-03-22 16:11:23.567,-3.8382677931427196
2025-03-22 16:11:23.567,-7.073179202863
2025-03-22 16:11:23.567,-3.0640239572606864
2025-03-22 16:11:23.567,2.0783780115781334
2025-03-22 16:11:23.577,2.519951027389792
2025-03-22 16:11:23.577,0.10068936823703506
2025-03-22 16:11:23.577,0.08622569668065026
2025-03-22 16:11:23.577,2.4959078960329983
2025-03-22 16:11:23.577,2.342085661233472
2025-03-22 16:11:23.587,-1.992451873783497
2025-03-22 16:11:23.587,-5.402820610433611
2025-03-22 16:11:23.587,-2.993938264712649
2025-03-22 16:11:23.587,2.8928385985965077
2025-03-22 16:11:23.587,5.557269857861157
2025-03-22 16:11:23.595,2.3593283010755264
2025-03-22 16:11:23.596,-2.6153256448634083
2025-03-22 16:11:23.596,-4.039885000204829
2025-03-22 16:11:23.596,-1.1573055254458187
2025-03-22 16:11:23.596,2.3257740345724267
2025-03-22 16:11:23.605,2.5507599855774097
2025-03-22 16:11:23.605,-0.7976067722997522
2025-03-22 16:11:23.605,-4.016637665164221
2025-03-22 16:11:23.606,-2.5892066183551954
2025-03-22 16:11:23.615,3.610562974061551
2025-03-22 16:11:23.615,8.301058826447008
2025-03-22 16:11:23.615,4.525127041744527
2025-03-22 16:11:23.615,-6.190413855358709
2025-03-22 16:11:23.616,-12.923635107907828
2025-03-22 16:11:23.625,-6.8566557414909575
2025-03-22 16:11:23.625,7.167977921163171
2025-03-22 16:11:23.625,14.479443301783249
2025-03-22 16:11:23.625,7.16185215218404
2025-03-22 16:11:23.626,-6.4603250942326005
2025-03-22 16:11:23.635,-11.629497479245071
2025-03-22 16:11:23.635,-4.348714706514189
2025-03-22 16:11:23.635,5.143500139889604
2025-03-22 16:11:23.635,5.993448466633973
2025-03-22 16:11:23.636,-0.4239768059451683
2025-03-22 16:11:23.645,-4.04486324235987
2025-03-22 16:11:23.645,-0.12529319051461296
2025-03-22 16:11:23.645,4.902582378215912
2025-03-22 16:11:23.645,2.8672736362224276
2025-03-22 16:11:23.645,-4.437752191497546
2025-03-22 16:11:23.655,-7.172666752341095
2025-03-22 16:11:23.655,-0.7470610243779274
2025-03-22 16:11:23.655,7.282427814839225
2025-03-22 16:11:23.655,6.527137165830694
2025-03-22 16:11:23.655,-2.499742015746553
2025-03-22 16:11:23.663,-8.514348217101348
2025-03-22 16:11:23.663,-3.775233906392554
2025-03-22 16:11:23.664,5.908534469007275
2025-03-22 16:11:23.664,8.442183266541948
2025-03-22 16:11:23.664,0.5654273149699569
2025-03-22 16:11:23.673,-8.256364998592883
2025-03-22 16:11:23.673,-7.496853826222403
2025-03-22 16:11:23.673,1.961145892680271
2025-03-22 16:11:23.674,9.204454907794773
2025-03-22 16:11:23.683,6.080983550410306
2025-03-22 16:11:23.683,-3.696465605457344
2025-03-22 16:11:23.683,-9.075522425750568
2025-03-22 16:11:23.683,-4.2436877032760165
2025-03-22 16:11:23.683,4.954966714076226
2025-03-22 16:11:23.693,7.923021258020105
2025-03-22 16:11:23.693,1.6214340240252156
2025-03-22 16:11:23.693,-6.0390391889286965
2025-03-22 16:11:23.693,-5.808407266219222
2025-03-22 16:11:23.694,1.7861603162912612
2025-03-22 16:11:23.703,7.245255981177693
2025-03-22 16:11:23.703,3.688811322890413
2025-03-22 16:11:23.703,-4.9029360420755665
2025-03-22 16:11:23.703,-8.464432139044728
2025-03-22 16:11:23.703,-2.633320998863074
2025-03-22 16:11:23.711,6.268809027010282
2025-03-22 16:11:23.711,8.587714276717906
2025-03-22 16:11:23.711,2.3107148584535957
2025-03-22 16:11:23.712,-5.145857971608569
2025-03-22 16:11:23.712,-6.177724824818388
2025-03-22 16:11:23.721,-1.6097782497312045
2025-03-22 16:11:23.721,1.8951350574913608
2025-03-22 16:11:23.721,1.249819580942434
2025-03-22 16:11:23.722,0.04260152117128224
2025-03-22 16:11:23.731,1.8653124921206143
2025-03-22 16:11:23.731,4.323219330309504
2025-03-22 16:11:23.731,2.41005014565941
2025-03-22 16:11:23.731,-3.8615228979762697
2025-03-22 16:11:23.732,-8.294651758580708
2025-03-22 16:11:23.741,-5.410198185793385
2025-03-22 16:11:23.741,3.0696098143981567
2025-03-22 16:11:23.741,9.484152153450855
2025-03-22 16:11:23.742,7.718075331504096
2025-03-22 16:11:23.742,-0.7305520633998952
2025-03-22 16:11:23.751,-8.107674470645572
2025-03-22 16:11:23.751,-7.971606315182066
2025-03-22 16:11:23.751,-1.328202386107657
2025-03-22 16:11:23.752,5.096438873308309
2025-03-22 16:11:23.752,6.159155315960002
2025-03-22 16:11:23.761,2.6509227583555943
2025-03-22 16:11:23.761,-1.3907043357298416
2025-03-22 16:11:23.761,-3.4670787678171973
2025-03-22 16:11:23.761,-3.487361843684911
2025-03-22 16:11:23.762,-1.8127817352539923
2025-03-22 16:11:23.771,1.031789955747347
2025-03-22 16:11:23.771,3.2498160520883252
2025-03-22 16:11:23.771,2.8958070272894365
2025-03-22 16:11:23.771,0.5286896064401692
2025-03-22 16:11:23.772,-1.1841067342959062
2025-03-22 16:11:23.781,-1.0752087857554462
2025-03-22 16:11:23.781,-0.8161118322269858
2025-03-22 16:11:23.781,-1.7583578519332617
2025-03-22 16:11:23.781,-2.3504918896132447
2025-03-22 16:11:23.781,-0.42121098841635746
2025-03-22 16:11:23.791,3.1177672770372618
2025-03-22 16:11:23.791,4.825334361189276
2025-03-22 16:11:23.791,2.7624162760814515
2025-03-22 16:11:23.791,-1.47949833220471
2025-03-22 16:11:23.791,-4.700203588296923
2025-03-22 16:11:23.801,-4.7900671895522136
2025-03-22 16:11:23.801,-1.6948114687576916
2025-03-22 16:11:23.801,2.6347520087874434
2025-03-22 16:11:23.801,4.938324966292063
2025-03-22 16:11:23.801,3.1582621566256392
2025-03-22 16:11:23.809,-0.7958521910832423
2025-03-22 16:11:23.809,-2.5744734824209217
2025-03-22 16:11:23.810,-0.9453083592776954
2025-03-22 16:11:23.810,0.32799745165710226
2025-03-22 16:11:23.810,-1.6764675776928355
2025-03-22 16:11:23.819,-3.6728412449682497
2025-03-22 16:11:23.819,-0.545402189537988
2025-03-22 16:11:23.820,5.925935607883151
2025-03-22 16:11:23.820,7.6466067274077245
2025-03-22 16:11:23.820,0.8812328121476609
2025-03-22 16:11:23.829,-7.749979898747709
2025-03-22 16:11:23.829,-8.919791683026771
2025-03-22 16:11:23.830,-1.7869603051004481
2025-03-22 16:11:23.830,5.832373475003204
2025-03-22 16:11:23.839,7.25927902557159
2025-03-22 16:11:23.839,3.309381919518588
2025-03-22 16:11:23.839,-1.1950512219480312
2025-03-22 16:11:23.840,-3.60512210341147
2025-03-22 16:11:23.840,-4.2384684601641
2025-03-22 16:11:23.849,-3.3755001550471304
2025-03-22 16:11:23.849,-0.49759599465621657
2025-03-22 16:11:23.849,3.525370223499044
2025-03-22 16:11:23.850,5.650934866493096
2025-03-22 16:11:23.850,3.3764744160600273
2025-03-22 16:11:23.859,-2.037202378325152
2025-03-22 16:11:23.859,-5.844614108838513
2025-03-22 16:11:23.860,-4.085590589951096
2025-03-22 16:11:23.860,1.9177122384309622
2025-03-22 16:11:23.860,5.908474176910774
2025-03-22 16:11:23.869,3.0264388127778976
2025-03-22 16:11:23.869,-3.987539605353233
2025-03-22 16:11:23.869,-6.914790134725951
2025-03-22 16:11:23.870,-1.6642885459262375
2025-03-22 16:11:23.870,6.218558212790623
2025-03-22 16:11:23.879,7.919987728280292
2025-03-22 16:11:23.879,1.7620654038124863
2025-03-22 16:11:23.879,-5.6241883190977475
2025-03-22 16:11:23.879,-7.633575279352308
2025-03-22 16:11:23.880,-3.9031292386707435
2025-03-22 16:11:23.889,1.6877657285824155
2025-03-22 16:11:23.889,5.652775448293052
2025-03-22 16:11:23.889,6.254752098018298
2025-03-22 16:11:23.889,3.0778946398497578
2025-03-22 16:11:23.890,-2.2883940210891045
2025-03-22 16:11:23.899,-6.161375487595435
2025-03-22 16:11:23.899,-5.5198995178853485
2025-03-22 16:11:23.899,-1.1126781385317972
2025-03-22 16:11:23.900,3.1890294099772674
2025-03-22 16:11:23.900,4.2985796777876875
2025-03-22 16:11:23.909,2.5175672378732474
2025-03-22 16:11:23.909,0.2993425041792347
2025-03-22 16:11:23.909,-0.696254376436912
2025-03-22 16:11:23.909,-0.907431238902857
2025-03-22 16:11:23.909,-1.6343329533427104
2025-03-22 16:11:23.919,-2.8720588286285365
2025-03-22 16:11:23.919,-2.7009115136248316
2025-03-22 16:11:23.919,0.4471809836860647
2025-03-22 16:11:23.919,4.785282117789689
2025-03-22 16:11:23.920,5.852047303162491
2025-03-22 16:11:23.929,1.509173886712467
2025-03-22 16:11:23.929,-4.63386130352765
2025-03-22 16:11:23.929,-6.575874546094819
2025-03-22 16:11:23.929,-2.5802095626151775
2025-03-22 16:11:23.929,3.055076715787101
2025-03-22 16:11:23.937,5.022401453989747
2025-03-22 16:11:23.937,2.395394166366904
2025-03-22 16:11:23.938,-1.4266410831037206
2025-03-22 16:11:23.938,-2.8756033455411374
2025-03-22 16:11:23.938,-1.3749548016066249
2025-03-22 16:11:23.947,0.9638031131793993
2025-03-22 16:11:23.947,1.7087815506612336
2025-03-22 16:11:23.948,0.18629400815514058
2025-03-22 16:11:23.948,-1.9953267693079901
2025-03-22 16:11:23.957,-2.2539251233584006
2025-03-22 16:11:23.957,0.44459045751955967
2025-03-22 16:11:23.957,3.897542772261504
2025-03-22 16:11:23.958,4.200162681480276
2025-03-22 16:11:23.958,-0.029447978604686814
2025-03-22 16:11:23.967,-5.257506046893243
2025-03-22 16:11:23.967,-6.169874085664641
2025-03-22 16:11:23.968,-1.4985663456055227
2025-03-22 16:11:23.968,4.432256957165915
2025-03-22 16:11:23.968,6.464723422874875
2025-03-22 16:11:23.977,3.6898215281742175
2025-03-22 16:11:23.977,-0.9248742428520885
2025-03-22 16:11:23.977,-4.382096772149212
2025-03-22 16:11:23.977,-5.41766305770488
2025-03-22 16:11:23.978,-3.5480464510994976
2025-03-22 16:11:23.987,0.9358713138043756
2025-03-22 16:11:23.987,5.51186583123353
2025-03-22 16:11:23.987,6.232596971930746
2025-03-22 16:11:23.987,1.7698977384169365
2025-03-22 16:11:23.988,-4.158896616511833
2025-03-22 16:11:23.997,-6.047023037577455
2025-03-22 16:11:23.997,-2.3438265300893297
2025-03-22 16:11:23.997,3.0264501706498437
2025-03-22 16:11:23.997,4.902348342491671
2025-03-22 16:11:23.998,1.800404167841934
2025-03-22 16:11:24.007,-3.2770339523795977
2025-03-22 16:11:24.007,-5.748385050005812
2025-03-22 16:11:24.007,-2.9628236437478193
2025-03-22 16:11:24.007,3.662947696886332
2025-03-22 16:11:24.008,8.904407681194114
2025-03-22 16:11:24.015,7.284340838886962
2025-03-22 16:11:24.015,-1.6101698204483512
2025-03-22 16:11:24.016,-11.131651092537302
2025-03-22 16:11:24.016,-12.562419834139842
2025-03-22 16:11:24.025,-3.4586759158800717
2025-03-22 16:11:24.025,9.165757970526508
2025-03-22 16:11:24.025,14.773292669044432
2025-03-22 16:11:24.025,8.80551391531921
2025-03-22 16:11:24.026,-3.4619644816273465
2025-03-22 16:11:24.035,-12.01033756066809
2025-03-22 16:11:24.035,-10.815610078698883
2025-03-22 16:11:24.035,-2.2585638344659196
2025-03-22 16:11:24.035,6.030752083759569
2025-03-22 16:11:24.035,8.225656774722879
2025-03-22 16:11:24.043,4.606932086150762
2025-03-22 16:11:24.043,-0.3190915516320103
2025-03-22 16:11:24.044,-3.0028728819841777
2025-03-22 16:11:24.044,-3.3990971768744402
2025-03-22 16:11:24.053,-2.8158239137753203
2025-03-22 16:11:24.053,-1.2455666482862098
2025-03-22 16:11:24.053,1.577711838487713
2025-03-22 16:11:24.054,3.6711196577276017
2025-03-22 16:11:24.054,2.148901192194133
2025-03-22 16:11:24.063,-2.301046414179437
2025-03-22 16:11:24.063,-4.601231674041084
2025-03-22 16:11:24.063,-0.8785220175246157
2025-03-22 16:11:24.064,5.870576811101129
2025-03-22 16:11:24.064,7.736921973832494
2025-03-22 16:11:24.073,0.5997793725324151
2025-03-22 16:11:24.073,-9.759899200042662
2025-03-22 16:11:24.073,-12.167460906104582
2025-03-22 16:11:24.073,-2.1879771101617087
2025-03-22 16:11:24.074,11.272133873781716
2025-03-22 16:11:24.081,14.27263841408556
2025-03-22 16:11:24.081,3.393566157018591
2025-03-22 16:11:24.082,-9.768814205181405
2025-03-22 16:11:24.082,-11.652068835908068
2025-03-22 16:11:24.091,-2.081809380893673
2025-03-22 16:11:24.091,6.698658751898894
2025-03-22 16:11:24.091,5.501461827051639
2025-03-22 16:11:24.092,-1.5548553601756607
2025-03-22 16:11:24.092,-4.0566693340172355
2025-03-22 16:11:24.101,0.774984558323607
2025-03-22 16:11:24.101,5.374014269864123
2025-03-22 16:11:24.101,2.7568957625882944
2025-03-22 16:11:24.101,-4.1063610225111775
2025-03-22 16:11:24.102,-6.565087907207055
2025-03-22 16:11:24.111,-1.8176066260628871
2025-03-22 16:11:24.111,3.7669500917284413
2025-03-22 16:11:24.111,3.484045780072866
2025-03-22 16:11:24.112,-0.8777180110498771
2025-03-22 16:11:24.112,-1.967003451272092
2025-03-22 16:11:24.121,2.5460151100562216
2025-03-22 16:11:24.121,6.122463061611719
2025-03-22 16:11:24.121,1.8484750347825731
2025-03-22 16:11:24.121,-7.579425802854227
2025-03-22 16:11:24.121,-11.71546346668872
2025-03-22 16:11:24.131,-4.452148514173036
2025-03-22 16:11:24.131,8.266471841982536
2025-03-22 16:11:24.131,14.294535533207727
2025-03-22 16:11:24.131,7.834658485024841
2025-03-22 16:11:24.131,-4.992563670727869
2025-03-22 16:11:24.141,-12.609113195063893
2025-03-22 16:11:24.141,-9.088272873278708
2025-03-22 16:11:24.141,1.0250697274661569
2025-03-22 16:11:24.141,8.138313207186746
2025-03-22 16:11:24.141,7.139706509060954
2025-03-22 16:11:24.149,1.213374802984731
2025-03-22 16:11:24.149,-3.187058255861394
2025-03-22 16:11:24.150,-3.413105416954035
2025-03-22 16:11:24.150,-1.6832199271751238
2025-03-22 16:11:24.159,-0.6148897429962614
2025-03-22 16:11:24.159,-0.12151216336598887
2025-03-22 16:11:24.160,1.0366653123318428
2025-03-22 16:11:24.160,2.5441807813202875
2025-03-22 16:11:24.160,2.629360079079024
2025-03-22 16:11:24.160,0.39910302057225155
2025-03-22 16:11:24.169,-2.687777057066567
2025-03-22 16:11:24.169,-3.8826099885900938
2025-03-22 16:11:24.170,-1.8158398524976662
2025-03-22 16:11:24.170,1.794608840901413
2025-03-22 16:11:24.179,3.5362181312126855
2025-03-22 16:11:24.179,1.9070642816132803
2025-03-22 16:11:24.179,-0.8833053299044773
2025-03-22 16:11:24.180,-1.5851895656878425
2025-03-22 16:11:24.180,-0.08629379381521843
2025-03-22 16:11:24.189,0.5735622235628374
2025-03-22 16:11:24.189,-1.1868273496001633
2025-03-22 16:11:24.189,-2.702661682908829
2025-03-22 16:11:24.190,-0.7186828474873687
2025-03-22 16:11:24.190,3.2855508606309436
2025-03-22 16:11:24.199,4.29658293721355
2025-03-22 16:11:24.199,0.655736817649346
2025-03-22 16:11:24.199,-3.2148365715507827
2025-03-22 16:11:24.199,-2.7661868173524415
2025-03-22 16:11:24.200,0.3645109578207135
2025-03-22 16:11:24.209,0.982323812485345
2025-03-22 16:11:24.209,-1.7864304723626776
2025-03-22 16:11:24.210,-2.8683841390093456
2025-03-22 16:11:24.210,1.4532465956298455
2025-03-22 16:11:24.210,7.266123021952161
2025-03-22 16:11:24.217,6.722645008689945
2025-03-22 16:11:24.217,-2.159830695740624
2025-03-22 16:11:24.218,-11.454682342003538
2025-03-22 16:11:24.218,-10.765222050184976
2025-03-22 16:11:24.218,1.1161720319767114
2025-03-22 16:11:24.227,13.278002190731959
2025-03-22 16:11:24.227,13.148639243659073
2025-03-22 16:11:24.228,0.18804036680696257
2025-03-22 16:11:24.228,-12.631824962324993
2025-03-22 16:11:24.237,-12.48975614745156
2025-03-22 16:11:24.237,-0.575563898654117
2025-03-22 16:11:24.237,9.95493026509676
2025-03-22 16:11:24.237,9.18469594386881
2025-03-22 16:11:24.237,0.3801198659999169
2025-03-22 16:11:24.247,-6.071883586544759
2025-03-22 16:11:24.247,-5.183702919193231
2025-03-22 16:11:24.247,-0.7504120962807805
2025-03-22 16:11:24.247,1.874080816967491
2025-03-22 16:11:24.248,2.0145359127291718
2025-03-22 16:11:24.257,1.8521558270471747
2025-03-22 16:11:24.257,1.7928163762832372
2025-03-22 16:11:24.257,0.3330818913424729
2025-03-22 16:11:24.257,-2.5248537555586728
2025-03-22 16:11:24.258,-4.115919972911503
2025-03-22 16:11:24.267,-2.0626978922428654
2025-03-22 16:11:24.267,2.374249173386319
2025-03-22 16:11:24.267,4.793437683485224
2025-03-22 16:11:24.267,2.211430112372384
2025-03-22 16:11:24.268,-2.9008006716224073
2025-03-22 16:11:24.277,-4.498989546343637
2025-03-22 16:11:24.277,-0.07782878485304551
2025-03-22 16:11:24.277,5.286378502881572
2025-03-22 16:11:24.277,4.388196496815809
2025-03-22 16:11:24.278,-2.7732630993089207
2025-03-22 16:11:24.285,-8.057561516498131
2025-03-22 16:11:24.286,-4.8935500647586405
2025-03-22 16:11:24.286,3.5553657412733193
2025-03-22 16:11:24.286,8.305358128003864
2025-03-22 16:11:24.286,5.140757617384953
2025-03-22 16:11:24.295,-1.5244771388987213
2025-03-22 16:11:24.295,-4.979803686953773
2025-03-22 16:11:24.295,-3.5650958445715966
2025-03-22 16:11:24.296,-0.7370188314345271
2025-03-22 16:11:24.305,0.2139329166559845
2025-03-22 16:11:24.305,-0.37339331440224005
2025-03-22 16:11:24.306,-0.03028062672584214
2025-03-22 16:11:24.306,2.277535793317131
2025-03-22 16:11:24.306,4.708943496831503
2025-03-22 16:11:24.315,4.309838767708494
2025-03-22 16:11:24.315,-0.06036395479069094
2025-03-22 16:11:24.315,-6.151731860337941
2025-03-22 16:11:24.316,-9.341385542281534
2025-03-22 16:11:24.316,-5.9670144619257375
2025-03-22 16:11:24.325,3.0571799933027863
2025-03-22 16:11:24.325,11.614095419132878
2025-03-22 16:11:24.325,12.455987018974694
2025-03-22 16:11:24.325,3.4034164546452237
2025-03-22 16:11:24.325,-9.711026020127742
2025-03-22 16:11:24.333,-16.613311547703468
2025-03-22 16:11:24.333,-10.602492511080813
2025-03-22 16:11:24.334,5.01404892112013
2025-03-22 16:11:24.334,17.89204373211078
2025-03-22 16:11:24.341,16.150395522425804
2025-03-22 16:11:24.341,-0.1644810264844353
2025-03-22 16:11:24.341,-16.971202474345763
2025-03-22 16:11:24.342,-18.405776948076362
2025-03-22 16:11:24.342,-2.9957848679661794
2025-03-22 16:11:24.351,14.053346762115932
2025-03-22 16:11:24.351,16.608586169878414
2025-03-22 16:11:24.351,4.271742078321196
2025-03-22 16:11:24.352,-8.953094567331892
2025-03-22 16:11:24.361,-11.255085301628084
2025-03-22 16:11:24.361,-4.374978897916813
2025-03-22 16:11:24.361,2.218796826516325
2025-03-22 16:11:24.362,3.991623040918493
2025-03-22 16:11:24.362,4.020821963330268
2025-03-22 16:11:24.371,4.790340914337707
2025-03-22 16:11:24.371,3.1574992447333026
2025-03-22 16:11:24.371,-3.6687656362374743
2025-03-22 16:11:24.371,-10.657944258358793
2025-03-22 16:11:24.372,-8.728360650691597
2025-03-22 16:11:24.379,3.3148147305433926
2025-03-22 16:11:24.380,14.455462398427894
2025-03-22 16:11:24.380,12.248972710812339
2025-03-22 16:11:24.380,-2.7037039074150293
2025-03-22 16:11:24.389,-15.773222053973207
2025-03-22 16:11:24.389,-13.365065994153227
2025-03-22 16:11:24.389,2.041068028591993
2025-03-22 16:11:24.389,14.23283797671593
2025-03-22 16:11:24.390,11.172666742698677
2025-03-22 16:11:24.399,-1.9694365800399192
2025-03-22 16:11:24.399,-9.919196466779113
2025-03-22 16:11:24.399,-5.527189316327159
2025-03-22 16:11:24.399,3.1400023961609294
2025-03-22 16:11:24.400,4.493664851128668
2025-03-22 16:11:24.409,-1.834098325902092
2025-03-22 16:11:24.409,-5.635926950869592
2025-03-22 16:11:24.409,-0.38349939387385873
2025-03-22 16:11:24.409,7.8294876597946
2025-03-22 16:11:24.410,8.21468850409022
2025-03-22 16:11:24.417,-0.6576167664538712
2025-03-22 16:11:24.418,-9.258435098123755
2025-03-22 16:11:24.418,-9.18557499104731
2025-03-22 16:11:24.418,-2.0776322579264
2025-03-22 16:11:24.418,4.93788246071663
2025-03-22 16:11:24.427,7.961450961014202
2025-03-22 16:11:24.428,7.14311575334593
2025-03-22 16:11:24.428,2.639533830288173
2025-03-22 16:11:24.428,-4.866776492340284
2025-03-22 16:11:24.437,-10.725832621090767
2025-03-22 16:11:24.437,-8.840742733518622
2025-03-22 16:11:24.437,0.698476998146496
2025-03-22 16:11:24.437,9.81466339015953
2025-03-22 16:11:24.438,10.493873547552685
2025-03-22 16:11:24.447,3.033462081377516
2025-03-22 16:11:24.447,-5.2088301491286435
2025-03-22 16:11:24.447,-7.823851891793325
2025-03-22 16:11:24.447,-4.534382577730333
2025-03-22 16:11:24.448,0.4573723303058922
2025-03-22 16:11:24.457,3.233990232041887
2025-03-22 16:11:24.457,3.0518291532929713
2025-03-22 16:11:24.457,1.6338795656707936
2025-03-22 16:11:24.457,0.5599261373915911
2025-03-22 16:11:24.458,-0.1067331330472538
2025-03-22 16:11:24.465,-0.7848792680864989
2025-03-22 16:11:24.466,-1.2411577799294713
2025-03-22 16:11:24.466,-1.3165075106564184
2025-03-22 16:11:24.466,-1.5827394385882783
2025-03-22 16:11:24.466,-1.8884099775070768
2025-03-22 16:11:24.477,-0.4340164744698397
2025-03-22 16:11:24.477,3.5247372748858723
2025-03-22 16:11:24.477,6.68114687629882
2025-03-22 16:11:24.477,4.269212107228886
2025-03-22 16:11:24.477,-3.4688996407398114
2025-03-22 16:11:24.485,-9.655840185359876
2025-03-22 16:11:24.485,-7.59612246292548
2025-03-22 16:11:24.486,1.445374961594268
2025-03-22 16:11:24.486,8.992948643104459
2025-03-22 16:11:24.495,8.196377695889288
2025-03-22 16:11:24.495,0.7739810378253869
2025-03-22 16:11:24.495,-5.591221273896709
2025-03-22 16:11:24.496,-5.782960171800275
2025-03-22 16:11:24.496,-1.6192675042698312
2025-03-22 16:11:24.505,1.917254130832797
2025-03-22 16:11:24.505,2.457691534405507
2025-03-22 16:11:24.505,1.1903856232412897
2025-03-22 16:11:24.505,-0.07091734160339122
2025-03-22 16:11:24.506,-0.6996908781658704
2025-03-22 16:11:24.515,-0.6823503825043755
2025-03-22 16:11:24.515,0.03347931098394279
2025-03-22 16:11:24.515,1.1523708631662264
2025-03-22 16:11:24.515,1.6042875058222692
2025-03-22 16:11:24.516,0.15941721225063182
2025-03-22 16:11:24.525,-2.9042290647307833
2025-03-22 16:11:24.525,-4.7802636015886595
2025-03-22 16:11:24.525,-2.20080685137248
2025-03-22 16:11:24.525,4.237901375403383
2025-03-22 16:11:24.526,8.835939529466675
2025-03-22 16:11:24.533,5.958977537439477
2025-03-22 16:11:24.533,-3.261112131987538
2025-03-22 16:11:24.534,-10.885023594563283
2025-03-22 16:11:24.534,-9.68709832074006
2025-03-22 16:11:24.534,-0.28164205006989373
2025-03-22 16:11:24.543,9.45289469135822
2025-03-22 16:11:24.544,11.507941853082418
2025-03-22 16:11:24.544,4.412724464711062
2025-03-22 16:11:24.544,-5.901249226855422
2025-03-22 16:11:24.553,-11.038797107255617
2025-03-22 16:11:24.553,-6.932437678082757
2025-03-22 16:11:24.554,2.661281357745474
2025-03-22 16:11:24.554,9.236296700168865
2025-03-22 16:11:24.554,7.228111028854576
2025-03-22 16:11:24.563,-0.760077725388967
2025-03-22 16:11:24.563,-6.856910691478631
2025-03-22 16:11:24.564,-6.066973006873701
2025-03-22 16:11:24.564,-0.5992402109994115
2025-03-22 16:11:24.564,3.9317861789678554
2025-03-22 16:11:24.573,4.673008479927425
2025-03-22 16:11:24.573,2.594337197552951
2025-03-22 16:11:24.573,-0.6452893453247251
2025-03-22 16:11:24.573,-3.9499665557293855
2025-03-22 16:11:24.574,-5.357115267607049
2025-03-22 16:11:24.583,-2.6003270187516865
2025-03-22 16:11:24.583,3.531108200999684
2025-03-22 16:11:24.583,8.148275595959184
2025-03-22 16:11:24.583,6.2724767140471815
2025-03-22 16:11:24.584,-1.9850972716210267
2025-03-22 16:11:24.591,-10.342686621512783
2025-03-22 16:11:24.592,-10.843192001860217
2025-03-22 16:11:24.592,-1.1958722939772348
2025-03-22 16:11:24.592,11.195169278116389
2025-03-22 16:11:24.592,14.487512990980294
2025-03-22 16:11:24.601,4.419061387327038
2025-03-22 16:11:24.601,-9.694243331464028
2025-03-22 16:11:24.602,-13.996817318804554
2025-03-22 16:11:24.602,-5.260618958114983
2025-03-22 16:11:24.611,6.009729068503383
2025-03-22 16:11:24.611,8.49019010178798
2025-03-22 16:11:24.611,2.6833530627166144
2025-03-22 16:11:24.612,-2.035567281811506
2025-03-22 16:11:24.612,-0.6143223258572379
2025-03-22 16:11:24.621,2.075322330024278
2025-03-22 16:11:24.621,-0.4062671053670563
2025-03-22 16:11:24.622,-6.121493532968996
2025-03-22 16:11:24.622,-6.772639971435394
2025-03-22 16:11:24.622,1.1059848404107027
2025-03-22 16:11:24.629,10.286588218904036
2025-03-22 16:11:24.630,10.087891920596944
2025-03-22 16:11:24.630,-1.1410525692441573
2025-03-22 16:11:24.630,-12.618045876883505
2025-03-22 16:11:24.639,-11.808749728386475
2025-03-22 16:11:24.639,1.489963791751109
2025-03-22 16:11:24.639,13.716745748776145
2025-03-22 16:11:24.640,11.868495103710993
2025-03-22 16:11:24.640,-1.957206081163473
2025-03-22 16:11:24.649,-12.926872941302449
2025-03-22 16:11:24.649,-10.220352826733915
2025-03-22 16:11:24.649,1.6549939170985641
2025-03-22 16:11:24.649,9.601840627034807
2025-03-22 16:11:24.649,7.116138632773282
2025-03-22 16:11:24.657,-0.398719171966575
2025-03-22 16:11:24.658,-4.3435574631582785
2025-03-22 16:11:24.658,-2.9227768506259233
2025-03-22 16:11:24.658,-0.7442492068431412
2025-03-22 16:11:24.658,-1.009924739204574
2025-03-22 16:11:24.667,-1.6261075991757437
2025-03-22 16:11:24.668,0.49444431652802945
2025-03-22 16:11:24.668,4.0655667160482665
2025-03-22 16:11:24.668,4.760916567828731
2025-03-22 16:11:24.668,1.1054022848790825
2025-03-22 16:11:24.677,-3.429980227744977
2025-03-22 16:11:24.677,-4.711544344398937
2025-03-22 16:11:24.678,-2.439895622051056
2025-03-22 16:11:24.678,0.5632367218877088
2025-03-22 16:11:24.687,1.9858836752490352
2025-03-22 16:11:24.687,1.6521955296486772
2025-03-22 16:11:24.688,0.7304438951759232
2025-03-22 16:11:24.688,0.6769666856329362
2025-03-22 16:11:24.688,1.8996228715935473
2025-03-22 16:11:24.688,2.275207863203163
2025-03-22 16:11:24.697,-1.2035293025757485
2025-03-22 16:11:24.697,-7.166165479115912
2025-03-22 16:11:24.698,-8.422016145975718
2025-03-22 16:11:24.698,-0.004929663814812635
2025-03-22 16:11:24.705,11.819187960770611
2025-03-22 16:11:24.705,13.814697608801165
2025-03-22 16:11:24.706,1.4269003167476937
2025-03-22 16:11:24.706,-13.644391772062756
2025-03-22 16:11:24.706,-15.502997966803525
2025-03-22 16:11:24.715,-2.197498183139284
2025-03-22 16:11:24.715,12.088722218879463
2025-03-22 16:11:24.716,13.213869754598786
2025-03-22 16:11:24.716,2.1172597127839126
2025-03-22 16:11:24.725,-8.099288476145691
2025-03-22 16:11:24.725,-7.9426650246790045
2025-03-22 16:11:24.725,-1.003111492556126
2025-03-22 16:11:24.725,2.895733018726886
2025-03-22 16:11:24.726,0.7703350671745133
2025-03-22 16:11:24.735,-1.1446741269114618
2025-03-22 16:11:24.735,2.1238558833481234
2025-03-22 16:11:24.735,6.203606378233825
2025-03-22 16:11:24.736,3.4674956200310962
2025-03-22 16:11:24.736,-5.166479942971724
2025-03-22 16:11:24.745,-9.873512330417388
2025-03-22 16:11:24.745,-4.388259169595921
2025-03-22 16:11:24.745,5.454559580785059
2025-03-22 16:11:24.745,8.76425560272421
2025-03-22 16:11:24.746,2.894055816880575
2025-03-22 16:11:24.755,-4.208790994034951
2025-03-22 16:11:24.755,-4.696287403059931
2025-03-22 16:11:24.755,0.08164139501976031
2025-03-22 16:11:24.755,3.0603256546568884
2025-03-22 16:11:24.756,1.1502126191364552
2025-03-22 16:11:24.765,-2.0495106075353333
2025-03-22 16:11:24.765,-2.355751789615119
2025-03-22 16:11:24.765,-0.15091289005294198
2025-03-22 16:11:24.765,1.5358006209622264
2025-03-22 16:11:24.766,1.4135726627691092
2025-03-22 16:11:24.773,0.5824580334440861
2025-03-22 16:11:24.774,0.21598491107671022
2025-03-22 16:11:24.774,0.2929955554941167
2025-03-22 16:11:24.774,0.12368280252948541
2025-03-22 16:11:24.774,-0.8402663070478849
2025-03-22 16:11:24.783,-2.256585919731343
2025-03-22 16:11:24.784,-2.535717878528938
2025-03-22 16:11:24.784,-0.29149448495098723
2025-03-22 16:11:24.784,3.199044147375708
2025-03-22 16:11:24.793,4.380911505978485
2025-03-22 16:11:24.793,1.5613693620756337
2025-03-22 16:11:24.793,-2.456071935103379
2025-03-22 16:11:24.793,-3.5431111933938757
2025-03-22 16:11:24.794,-1.323755742007445
2025-03-22 16:11:24.803,0.8387379289017736
2025-03-22 16:11:24.803,0.69180594407957
2025-03-22 16:11:24.803,-0.25790690406441996
2025-03-22 16:11:24.803,0.32546384419335084
2025-03-22 16:11:24.804,1.855858967262328
2025-03-22 16:11:24.813,1.707082486904446
2025-03-22 16:11:24.813,-0.7547621311881849
2025-03-22 16:11:24.813,-2.8068291967620373
2025-03-22 16:11:24.814,-1.7300058147531507
2025-03-22 16:11:24.814,1.415526341892466
2025-03-22 16:11:24.823,2.6850377387833877
2025-03-22 16:11:24.823,0.13679908133325497
2025-03-22 16:11:24.824,-3.266537278880801
2025-03-22 16:11:24.824,-2.8166166859801116
2025-03-22 16:11:24.824,2.006522672027269
2025-03-22 16:11:24.833,6.069558209191052
2025-03-22 16:11:24.833,4.022371484081583
2025-03-22 16:11:24.833,-3.2149944927441876
2025-03-22 16:11:24.833,-8.547110023774232
2025-03-22 16:11:24.834,-5.898653701440586
2025-03-22 16:11:24.843,2.960642395064695
2025-03-22 16:11:24.843,9.519791947933374
2025-03-22 16:11:24.843,7.085823738345493
2025-03-22 16:11:24.843,-1.9231675198765095
2025-03-22 16:11:24.843,-8.310952443147047
2025-03-22 16:11:24.853,-6.184431216762219
2025-03-22 16:11:24.853,0.7709563690124207
2025-03-22 16:11:24.853,4.56274414667443
2025-03-22 16:11:24.853,2.837649450511515
2025-03-22 16:11:24.854,0.37637087338752245
2025-03-22 16:11:24.863,0.9178526412491292
2025-03-22 16:11:24.863,1.7501968170303974
2025-03-22 16:11:24.863,-1.1535433254158212
2025-03-22 16:11:24.863,-5.6975134069678015
2025-03-22 16:11:24.864,-5.557634046866882
2025-03-22 16:11:24.873,0.9153417624256088
2025-03-22 16:11:24.873,7.460227076913289
2025-03-22 16:11:24.873,7.0849123185705425
2025-03-22 16:11:24.874,0.2852155433606693
2025-03-22 16:11:24.874,-5.903849481267388
2025-03-22 16:11:24.883,-6.058679765786653
2025-03-22 16:11:24.883,-1.5143793557955967
2025-03-22 16:11:24.883,2.571927311757777
2025-03-22 16:11:24.883,3.264500157957132
2025-03-22 16:11:24.884,1.7751523093157444
2025-03-22 16:11:24.891,0.5181148674106674
2025-03-22 16:11:24.892,0.10041899687872377
2025-03-22 16:11:24.892,-0.4842538215698403
2025-03-22 16:11:24.892,-1.8336702751609866
2025-03-22 16:11:24.892,-3.0557661903181916
2025-03-22 16:11:24.901,-2.4730516362945725
2025-03-22 16:11:24.902,0.6698595188613686
2025-03-22 16:11:24.902,4.759317428606226
2025-03-22 16:11:24.902,6.2250971394584
2025-03-22 16:11:24.902,2.5421956261788456
2025-03-22 16:11:24.911,-4.429143944079963
2025-03-22 16:11:24.912,-8.863962272683871
2025-03-22 16:11:24.912,-6.111638080419964
2025-03-22 16:11:24.912,2.1853496574587656
2025-03-22 16:11:24.921,8.875678758002017
2025-03-22 16:11:24.921,7.991815153865598
2025-03-22 16:11:24.921,0.644442402647708
2025-03-22 16:11:24.922,-6.246297652982289
2025-03-22 16:11:24.922,-7.08593358010293
2025-03-22 16:11:24.931,-2.7084929717687896
2025-03-22 16:11:24.931,1.9376733851901933
2025-03-22 16:11:24.932,3.8055199221987728
2025-03-22 16:11:24.932,3.656452106586801
2025-03-22 16:11:24.932,2.6406676478081192
2025-03-22 16:11:24.941,0.08427661325315547
2025-03-22 16:11:24.941,-3.837923622527568
2025-03-22 16:11:24.941,-5.772731703310183
2025-03-22 16:11:24.942,-2.6141816210054394
2025-03-22 16:11:24.942,3.494305849822933
2025-03-22 16:11:24.951,6.550609294192103
2025-03-22 16:11:24.951,3.48891768317798
2025-03-22 16:11:24.951,-2.5195122021517182
2025-03-22 16:11:24.951,-5.938308168204579
2025-03-22 16:11:24.952,-4.206912375516136
2025-03-22 16:11:24.961,0.9570516906172636
2025-03-22 16:11:24.961,5.464273223243319
2025-03-22 16:11:24.961,5.546210568593097
2025-03-22 16:11:24.962,0.7070140166023389
2025-03-22 16:11:24.962,-4.955236188858259
2025-03-22 16:11:24.971,-6.066100418846076
2025-03-22 16:11:24.971,-1.7755334626269272
2025-03-22 16:11:24.972,3.1078993888733257
2025-03-22 16:11:24.972,3.8841207837082816
2025-03-22 16:11:24.972,1.394900771476704
2025-03-22 16:11:24.981,-0.04523545138030928
2025-03-22 16:11:24.981,0.9142822209022027
2025-03-22 16:11:24.981,0.9846793677618418
2025-03-22 16:11:24.981,-2.3431511993954923
2025-03-22 16:11:24.982,-6.002356799250106
2025-03-22 16:11:24.991,-4.415933656453721
2025-03-22 16:11:24.991,2.811538037539397
2025-03-22 16:11:24.991,8.698616085927718
2025-03-22 16:11:24.991,6.32241888824489
2025-03-22 16:11:24.992,-2.35837137646185
2025-03-22 16:11:24.999,-7.874132577149732
2025-03-22 16:11:25.000,-4.5012113310017785
2025-03-22 16:11:25.000,2.5556264039512007
2025-03-22 16:11:25.000,4.1599771310240845
2025-03-22 16:11:25.000,-0.4820565624965744
2025-03-22 16:11:25.009,-3.3252195294240163
2025-03-22 16:11:25.010,0.4763264708492006
2025-03-22 16:11:25.010,5.426602057993633
2025-03-22 16:11:25.010,3.7089818730203827
2025-03-22 16:11:25.010,-3.4822752767808813
2025-03-22 16:11:25.019,-7.409924319965111
2025-03-22 16:11:25.020,-3.3847327555969553
2025-03-22 16:11:25.020,3.6511228824082824
2025-03-22 16:11:25.020,6.006310684507555
2025-03-22 16:11:25.020,2.3793363201640294
2025-03-22 16:11:25.029,-2.0284752250831635
2025-03-22 16:11:25.030,-2.7856796784666593
2025-03-22 16:11:25.030,-0.8482098880965585
2025-03-22 16:11:25.030,0.2685717624489526
2025-03-22 16:11:25.039,-0.3788739912127499
2025-03-22 16:11:25.039,-0.6423438235027477
2025-03-22 16:11:25.040,0.8854742857178015
2025-03-22 16:11:25.040,2.5711699621899102
2025-03-22 16:11:25.040,1.9105315501209499
2025-03-22 16:11:25.049,-1.1614087675714693
2025-03-22 16:11:25.049,-3.9864688710324496
2025-03-22 16:11:25.050,-3.746636590174829
2025-03-22 16:11:25.050,0.031627437795807206
2025-03-22 16:11:25.050,4.828800112190435
2025-03-22 16:11:25.059,6.591176351065082
2025-03-22 16:11:25.059,2.853915916459898
2025-03-22 16:11:25.059,-4.415495075513609
2025-03-22 16:11:25.059,-9.351437510485587
2025-03-22 16:11:25.060,-6.892932936932691
2025-03-22 16:11:25.068,2.070295503234255
2025-03-22 16:11:25.068,10.364374548072242
2025-03-22 16:11:25.068,10.392607247118304
2025-03-22 16:11:25.068,1.4443499380354965
2025-03-22 16:11:25.068,-8.840047264238274
2025-03-22 16:11:25.077,-11.331408192595942
2025-03-22 16:11:25.077,-4.2691620489579805
2025-03-22 16:11:25.078,5.2698892167019435
2025-03-22 16:11:25.078,8.914958356783314
2025-03-22 16:11:25.087,5.04311259130593
2025-03-22 16:11:25.087,-1.1836309568558963
2025-03-22 16:11:25.087,-4.389308620362728
2025-03-22 16:11:25.088,-3.783127099998733
2025-03-22 16:11:25.088,-1.7377549092044298
2025-03-22 16:11:25.097,0.0735835315320426
2025-03-22 16:11:25.097,1.6049481263114622
2025-03-22 16:11:25.097,2.628501220647443
2025-03-22 16:11:25.098,2.1578275601828727
2025-03-22 16:11:25.098,0.14423035784874771
2025-03-22 16:11:25.107,-1.6790556833379473
2025-03-22 16:11:25.107,-1.6984672135114114
2025-03-22 16:11:25.107,-0.5122933826342991
2025-03-22 16:11:25.107,-0.041394446082868776
2025-03-22 16:11:25.108,-0.7402078183759349
2025-03-22 16:11:25.117,-0.8558348422863786
2025-03-22 16:11:25.117,1.0328547286641154
2025-03-22 16:11:25.117,3.523371178049306
2025-03-22 16:11:25.117,3.459635470384446
2025-03-22 16:11:25.118,-0.3431895285569911
2025-03-22 16:11:25.127,-5.016650157007619
2025-03-22 16:11:25.127,-5.913337770759788
2025-03-22 16:11:25.127,-1.3688031587261407
2025-03-22 16:11:25.128,4.858873931604438
2025-03-22 16:11:25.128,6.69226432652884
2025-03-22 16:11:25.137,2.094220766123354
2025-03-22 16:11:25.137,-4.144178800859244
2025-03-22 16:11:25.137,-5.328275809725969
2025-03-22 16:11:25.138,-0.5995097810103117
2025-03-22 16:11:25.138,3.9943336035210337
2025-03-22 16:11:25.147,2.9711818692993726
2025-03-22 16:11:25.147,-1.8917529258105885
2025-03-22 16:11:25.147,-4.253738386272294
2025-03-22 16:11:25.148,-1.4323424446090698
2025-03-22 16:11:25.148,2.803535963614805
2025-03-22 16:11:25.155,3.794975997743226
2025-03-22 16:11:25.156,1.5554916591660244
2025-03-22 16:11:25.156,-0.7529476120217722
2025-03-22 16:11:25.156,-1.7796931868720347
2025-03-22 16:11:25.156,-2.6734834940027294
2025-03-22 16:11:25.165,-3.414598675398718
2025-03-22 16:11:25.166,-1.6240844547176818
2025-03-22 16:11:25.166,3.4518278169711487
2025-03-22 16:11:25.166,7.673526502722284
2025-03-22 16:11:25.166,5.45064912250848
2025-03-22 16:11:25.175,-3.1099304982953595
2025-03-22 16:11:25.175,-10.397184617129883
2025-03-22 16:11:25.176,-8.486321098198232
2025-03-22 16:11:25.176,1.905025722524952
2025-03-22 16:11:25.183,11.065381176360162
2025-03-22 16:11:25.184,9.842256741373179
2025-03-22 16:11:25.184,-0.7393928447969661
2025-03-22 16:11:25.184,-10.151247719168571
2025-03-22 16:11:25.184,-9.058618078095906
2025-03-22 16:11:25.193,0.8479115167689198
2025-03-22 16:11:25.194,8.571913196371264
2025-03-22 16:11:25.194,5.969140435395044
2025-03-22 16:11:25.194,-2.9637117187330095
2025-03-22 16:11:25.194,-7.000023708125873
2025-03-22 16:11:25.203,-1.5156710941546536
2025-03-22 16:11:25.204,5.890467199962459
2025-03-22 16:11:25.204,5.424593678157606
2025-03-22 16:11:25.204,-2.143503521325167
2025-03-22 16:11:25.213,-6.817462546200542
2025-03-22 16:11:25.213,-2.8907799420473803
2025-03-22 16:11:25.214,3.677071069837009
2025-03-22 16:11:25.214,3.890631269259727
2025-03-22 16:11:25.214,-1.7153840223814831
2025-03-22 16:11:25.223,-4.016101907242547
2025-03-22 16:11:25.223,1.49785470319055
2025-03-22 16:11:25.224,7.657338417815579
2025-03-22 16:11:25.224,4.916971389292239
2025-03-22 16:11:25.224,-5.3505388913416505
2025-03-22 16:11:25.233,-11.706101186698397
2025-03-22 16:11:25.233,-6.653724073602855
2025-03-22 16:11:25.233,4.546517147831873
2025-03-22 16:11:25.234,10.800225779305583
2025-03-22 16:11:25.234,7.6817230143146515
2025-03-22 16:11:25.243,0.17457762657159764
2025-03-22 16:11:25.243,-5.078550760143583
2025-03-22 16:11:25.243,-6.3247863147162695
2025-03-22 16:11:25.243,-5.182713821343681
2025-03-22 16:11:25.243,-2.2701960488721236
2025-03-22 16:11:25.253,2.6731812193921014
2025-03-22 16:11:25.253,7.428764160313282
2025-03-22 16:11:25.253,7.510651554228018
2025-03-22 16:11:25.253,1.3233554182320513
2025-03-22 16:11:25.253,-6.466218414565999
2025-03-22 16:11:25.263,-8.814952472079497
2025-03-22 16:11:25.263,-3.6236180641430438
2025-03-22 16:11:25.263,4.016223980329283
2025-03-22 16:11:25.263,7.124364556180542
2025-03-22 16:11:25.264,3.611792600272739
2025-03-22 16:11:25.273,-2.352575690234721
2025-03-22 16:11:25.273,-4.910612919068051
2025-03-22 16:11:25.273,-2.043714614287052
2025-03-22 16:11:25.273,2.820278748084249
2025-03-22 16:11:25.274,4.193803824825132
2025-03-22 16:11:25.283,0.08454571607790884
2025-03-22 16:11:25.283,-5.261798071578959
2025-03-22 16:11:25.283,-5.162120348137521
2025-03-22 16:11:25.284,1.6165197915766785
2025-03-22 16:11:25.284,7.91345686497687
2025-03-22 16:11:25.291,5.837739299799146
2025-03-22 16:11:25.291,-2.9211214902077223
2025-03-22 16:11:25.292,-8.191198091419576
2025-03-22 16:11:25.292,-4.0067826050282855
2025-03-22 16:11:25.292,3.7086465573651086
2025-03-22 16:11:25.301,5.244271593056295
2025-03-22 16:11:25.302,-0.11557982749359075
2025-03-22 16:11:25.302,-4.062314976028598
2025-03-22 16:11:25.302,-1.1573122456899503
2025-03-22 16:11:25.302,4.1619625896232115
2025-03-22 16:11:25.311,4.2135241468521265
2025-03-22 16:11:25.312,-1.5681771672167324
2025-03-22 16:11:25.312,-6.099445929169588
2025-03-22 16:11:25.312,-3.8078808958595403
2025-03-22 16:11:25.321,2.4835303190829454
2025-03-22 16:11:25.321,5.304002524543932
2025-03-22 16:11:25.322,1.9727083431129495
2025-03-22 16:11:25.322,-2.2931954055984924
2025-03-22 16:11:25.322,-1.7654443915074658
2025-03-22 16:11:25.331,1.6899485720054697
2025-03-22 16:11:25.331,1.3410529017206487
2025-03-22 16:11:25.332,-3.9531285880801987
2025-03-22 16:11:25.332,-6.581608365770902
2025-03-22 16:11:25.332,-0.2940830284342011
2025-03-22 16:11:25.340,9.614954673279465
2025-03-22 16:11:25.340,11.113980514101955
2025-03-22 16:11:25.340,0.4513777743726062
2025-03-22 16:11:25.340,-11.975411374408736
2025-03-22 16:11:25.340,-13.056058544802172
2025-03-22 16:11:25.349,-1.853302386612645
2025-03-22 16:11:25.349,9.83513535969915
2025-03-22 16:11:25.350,11.002825893623383
2025-03-22 16:11:25.350,2.6121259594712605
2025-03-22 16:11:25.359,-5.467667924812935
2025-03-22 16:11:25.359,-6.175401898505498
2025-03-22 16:11:25.360,-1.4658560825983922
2025-03-22 16:11:25.360,2.3091243565032276
2025-03-22 16:11:25.360,2.0662447603980394
2025-03-22 16:11:25.369,-0.3030250506415889
2025-03-22 16:11:25.369,-1.7860534942387642
2025-03-22 16:11:25.369,-1.3338134094214782
2025-03-22 16:11:25.370,0.45405298017961476
2025-03-22 16:11:25.370,2.45484408402043
2025-03-22 16:11:25.379,3.181816178706384
2025-03-22 16:11:25.379,1.4094115014760558
2025-03-22 16:11:25.379,-2.1265088406345996
2025-03-22 16:11:25.380,-4.43377592693419
2025-03-22 16:11:25.380,-3.065713794475566
2025-03-22 16:11:25.389,0.7806928366693346
2025-03-22 16:11:25.389,3.153258085769754
2025-03-22 16:11:25.389,1.8781161755064515
2025-03-22 16:11:25.390,-0.6966286334343915
2025-03-22 16:11:25.390,-0.6375743245366388
2025-03-22 16:11:25.399,2.175164035521381
2025-03-22 16:11:25.399,3.304644519680026
2025-03-22 16:11:25.399,-0.4948374159863057
2025-03-22 16:11:25.399,-6.0809072765589365
2025-03-22 16:11:25.400,-6.789881584804585
2025-03-22 16:11:25.409,-0.6453589333168048
2025-03-22 16:11:25.409,6.600824853610973
2025-03-22 16:11:25.409,7.8988380634271165
2025-03-22 16:11:25.410,2.697427744060141
2025-03-22 16:11:25.410,-3.4045010186226503
2025-03-22 16:11:25.419,-5.515812591555546
2025-03-22 16:11:25.419,-3.657294152475405
2025-03-22 16:11:25.419,-0.6616653346526697
2025-03-22 16:11:25.420,1.4492871668001592
