timestamp,bandpass_and_notch
2025-03-23 11:20:20.225,-0.2804302769669186
2025-03-23 11:20:20.225,3.303991062364082
2025-03-23 11:20:20.226,4.004040607879193
2025-03-23 11:20:20.226,-4.795551441760967
2025-03-23 11:20:20.234,-19.72699901892795
2025-03-23 11:20:20.234,-20.137204735335256
2025-03-23 11:20:20.235,7.628098233649996
2025-03-23 11:20:20.235,41.982070276907834
2025-03-23 11:20:20.235,41.71504131547081
2025-03-23 11:20:20.243,-3.677171756030761
2025-03-23 11:20:20.243,-53.291479434031615
2025-03-23 11:20:20.243,-56.30873028284997
2025-03-23 11:20:20.243,-8.481214958729646
2025-03-23 11:20:20.251,43.65451422235765
2025-03-23 11:20:20.251,53.6131105885987
2025-03-23 11:20:20.251,20.238006993706765
2025-03-23 11:20:20.251,-19.596505365554847
2025-03-23 11:20:20.252,-33.63581550963197
2025-03-23 11:20:20.261,-21.293429662057473
2025-03-23 11:20:20.261,-2.49725295668868
2025-03-23 11:20:20.261,8.45761418715446
2025-03-23 11:20:20.261,12.121548216516846
2025-03-23 11:20:20.269,13.102863864784558
2025-03-23 11:20:20.269,10.195607981292012
2025-03-23 11:20:20.269,0.5155391400820836
2025-03-23 11:20:20.269,-11.705586847137264
2025-03-23 11:20:20.270,-16.525120554811533
2025-03-23 11:20:20.279,-9.087847027233137
2025-03-23 11:20:20.279,4.246505360299001
2025-03-23 11:20:20.279,12.281024295638536
2025-03-23 11:20:20.279,10.016705377169192
2025-03-23 11:20:20.288,1.9257721537490393
2025-03-23 11:20:20.289,-4.455085005704076
2025-03-23 11:20:20.289,-5.816672709676889
2025-03-23 11:20:20.289,-3.8832690407214296
2025-03-23 11:20:20.289,-1.3982803699425608
2025-03-23 11:20:20.298,0.6613545774548077
2025-03-23 11:20:20.299,2.355163896712025
2025-03-23 11:20:20.299,3.1786036931954897
2025-03-23 11:20:20.299,2.2939916286389566
2025-03-23 11:20:20.299,0.013673626514202779
2025-03-23 11:20:20.308,-1.8895362014484505
2025-03-23 11:20:20.309,-1.9340400801894684
2025-03-23 11:20:20.309,-0.7180569512177098
2025-03-23 11:20:20.309,-0.145679440311803
2025-03-23 11:20:20.309,-0.7179810818876935
2025-03-23 11:20:20.318,-0.6709478466426323
2025-03-23 11:20:20.319,1.348086558708872
2025-03-23 11:20:20.319,3.669810221633638
2025-03-23 11:20:20.319,3.173428611136414
2025-03-23 11:20:20.319,-0.6770318203609903
2025-03-23 11:20:20.328,-4.718775032067365
2025-03-23 11:20:20.329,-5.320262498991763
2025-03-23 11:20:20.329,-1.88152579946196
2025-03-23 11:20:20.329,2.98203069181059
2025-03-23 11:20:20.329,5.828683869704405
2025-03-23 11:20:20.337,4.75888152446862
2025-03-23 11:20:20.337,0.4565952184953743
2025-03-23 11:20:20.337,-4.236609819412802
2025-03-23 11:20:20.337,-6.0655279061769924
2025-03-23 11:20:20.338,-3.638479039012377
2025-03-23 11:20:20.348,1.321416695482597
2025-03-23 11:20:20.349,5.047450482719369
2025-03-23 11:20:20.349,4.757401478173507
2025-03-23 11:20:20.349,1.1488314905187704
2025-03-23 11:20:20.349,-2.3648992690660373
2025-03-23 11:20:20.357,-3.20066555865176
2025-03-23 11:20:20.357,-1.9042694007506922
2025-03-23 11:20:20.357,-0.5471127544834375
2025-03-23 11:20:20.357,0.18410148598924697
2025-03-23 11:20:20.358,1.0619362738069655
2025-03-23 11:20:20.367,2.082717389624032
2025-03-23 11:20:20.367,1.9743869343708194
2025-03-23 11:20:20.367,0.3005813112019538
2025-03-23 11:20:20.367,-1.45076160688111
2025-03-23 11:20:20.368,-1.7394295165835854
2025-03-23 11:20:20.377,-0.9053085073494006
2025-03-23 11:20:20.377,-0.27950844702325706
2025-03-23 11:20:20.377,-0.15320928577900816
2025-03-23 11:20:20.377,0.22805742551037284
2025-03-23 11:20:20.387,1.0555075575463932
2025-03-23 11:20:20.387,1.53289432196302
2025-03-23 11:20:20.387,1.0909746498101345
2025-03-23 11:20:20.387,0.06967362868995892
2025-03-23 11:20:20.387,-0.999818024982139
2025-03-23 11:20:20.397,-1.9164594007284217
2025-03-23 11:20:20.397,-2.232601005877579
2025-03-23 11:20:20.397,-1.0640690220059552
2025-03-23 11:20:20.397,1.5971230573960593
2025-03-23 11:20:20.397,3.8203351872223243
2025-03-23 11:20:20.406,3.197757931149582
2025-03-23 11:20:20.407,-0.30756413598805404
2025-03-23 11:20:20.407,-3.7823280227479685
2025-03-23 11:20:20.407,-4.188234260016946
2025-03-23 11:20:20.407,-1.3724297529119407
2025-03-23 11:20:20.416,2.1032042685225423
2025-03-23 11:20:20.417,3.664376102953187
2025-03-23 11:20:20.417,2.7437111260644915
2025-03-23 11:20:20.417,0.496704957005273
2025-03-23 11:20:20.417,-1.6722807809539266
2025-03-23 11:20:20.426,-3.0054551927844426
2025-03-23 11:20:20.427,-3.1401042878557393
2025-03-23 11:20:20.427,-1.588115019270404
2025-03-23 11:20:20.427,1.7425951508733526
2025-03-23 11:20:20.427,5.164073779418549
2025-03-23 11:20:20.436,5.344537330466831
2025-03-23 11:20:20.437,0.539902379494161
2025-03-23 11:20:20.437,-6.061007128477485
2025-03-23 11:20:20.437,-8.091842383667476
2025-03-23 11:20:20.437,-2.698022034693534
2025-03-23 11:20:20.446,5.400607646624177
2025-03-23 11:20:20.447,8.390622215455611
2025-03-23 11:20:20.447,3.8243232048414004
2025-03-23 11:20:20.447,-3.0942977431911656
2025-03-23 11:20:20.447,-5.916878682382941
2025-03-23 11:20:20.456,-3.7046300405017876
2025-03-23 11:20:20.457,-0.26055344204127545
2025-03-23 11:20:20.457,1.6094406988474907
2025-03-23 11:20:20.457,2.5460511053832526
2025-03-23 11:20:20.457,3.4952456736851145
2025-03-23 11:20:20.465,2.9114638582096157
2025-03-23 11:20:20.465,-0.8560296293753893
2025-03-23 11:20:20.465,-5.517625606527679
2025-03-23 11:20:20.465,-5.984850568459052
2025-03-23 11:20:20.466,-0.5492656429544012
2025-03-23 11:20:20.475,5.884091419337144
2025-03-23 11:20:20.475,6.674572152262115
2025-03-23 11:20:20.475,1.070308409725866
2025-03-23 11:20:20.475,-4.873508388197242
2025-03-23 11:20:20.476,-5.279013943217815
2025-03-23 11:20:20.485,-0.7412068933776593
2025-03-23 11:20:20.485,3.271655628128828
2025-03-23 11:20:20.485,3.0431767578293725
2025-03-23 11:20:20.485,0.014036944645197169
2025-03-23 11:20:20.495,-2.0422656306851277
2025-03-23 11:20:20.495,-1.4202093840609233
2025-03-23 11:20:20.495,0.5936901533592683
2025-03-23 11:20:20.495,1.8787045516859007
2025-03-23 11:20:20.495,1.3461649483679705
2025-03-23 11:20:20.505,-0.7151535091634267
2025-03-23 11:20:20.505,-2.805978079558065
2025-03-23 11:20:20.505,-2.811801610884564
2025-03-23 11:20:20.505,0.17552727608313362
2025-03-23 11:20:20.505,4.06165151209543
2025-03-23 11:20:20.515,4.896899670753744
2025-03-23 11:20:20.515,0.9891929591364651
2025-03-23 11:20:20.515,-4.508275150939143
2025-03-23 11:20:20.515,-6.281910669097715
2025-03-23 11:20:20.515,-2.3753780990015407
2025-03-23 11:20:20.524,3.634847726465405
2025-03-23 11:20:20.525,6.2278964854410646
2025-03-23 11:20:20.525,3.2961879997721066
2025-03-23 11:20:20.525,-2.155853457307454
2025-03-23 11:20:20.525,-5.149502656346094
2025-03-23 11:20:20.534,-3.3250573793575136
2025-03-23 11:20:20.535,1.178450396808008
2025-03-23 11:20:20.535,3.9930274896116784
2025-03-23 11:20:20.535,2.7019150166839423
2025-03-23 11:20:20.535,-1.0144661283077734
2025-03-23 11:20:20.544,-3.2869577547599054
2025-03-23 11:20:20.545,-2.01479546740702
2025-03-23 11:20:20.545,1.1890410775648343
2025-03-23 11:20:20.545,2.9159664708114503
2025-03-23 11:20:20.545,1.5409065615620505
2025-03-23 11:20:20.554,-1.266506854721662
2025-03-23 11:20:20.555,-2.483184694529829
2025-03-23 11:20:20.555,-0.9800922958244144
2025-03-23 11:20:20.555,1.3321032130151702
2025-03-23 11:20:20.555,1.723454349185657
2025-03-23 11:20:20.564,-0.13688095148255552
2025-03-23 11:20:20.565,-1.7302291711870408
2025-03-23 11:20:20.565,-0.798254228125755
2025-03-23 11:20:20.565,1.6656959620442462
2025-03-23 11:20:20.565,2.464690869494292
2025-03-23 11:20:20.574,0.2092702590368718
2025-03-23 11:20:20.575,-2.751217931194243
2025-03-23 11:20:20.575,-3.0087407429192106
2025-03-23 11:20:20.575,-0.12884892033101641
2025-03-23 11:20:20.575,2.8175447224780403
2025-03-23 11:20:20.584,2.7613748373272777
2025-03-23 11:20:20.585,0.04061169196532141
2025-03-23 11:20:20.585,-2.157669395122575
2025-03-23 11:20:20.585,-1.5702341082875706
2025-03-23 11:20:20.585,0.5991144599299605
2025-03-23 11:20:20.593,1.3663323485952477
2025-03-23 11:20:20.593,-0.20268363767486497
2025-03-23 11:20:20.593,-1.7938855303490162
2025-03-23 11:20:20.593,-0.8499067284823152
2025-03-23 11:20:20.594,1.950437882798837
2025-03-23 11:20:20.603,3.212840221810376
2025-03-23 11:20:20.603,0.9174252639803289
2025-03-23 11:20:20.603,-2.900911054981275
2025-03-23 11:20:20.603,-4.277667341516584
2025-03-23 11:20:20.613,-1.742950371160955
2025-03-23 11:20:20.613,2.2318377357290404
2025-03-23 11:20:20.613,4.155820006256439
2025-03-23 11:20:20.613,2.9314311995450533
2025-03-23 11:20:20.614,0.06889127097855686
2025-03-23 11:20:20.614,-2.4279040975214414
2025-03-23 11:20:20.623,-3.436942575548306
2025-03-23 11:20:20.623,-2.6014026880952503
2025-03-23 11:20:20.623,-0.20361819932498348
2025-03-23 11:20:20.623,2.502310959027254
2025-03-23 11:20:20.632,3.667813812854292
2025-03-23 11:20:20.632,2.306190440765812
2025-03-23 11:20:20.633,-0.6292937241837564
2025-03-23 11:20:20.633,-2.9067191608052094
2025-03-23 11:20:20.633,-2.877259322993247
2025-03-23 11:20:20.642,-0.7874862613790427
2025-03-23 11:20:20.643,1.51851472963192
2025-03-23 11:20:20.643,2.1299829071053717
2025-03-23 11:20:20.643,0.6769707144079904
2025-03-23 11:20:20.643,-1.19835884196513
2025-03-23 11:20:20.653,-1.251412980355344
2025-03-23 11:20:20.653,0.8588086362883849
2025-03-23 11:20:20.653,2.635326600826771
2025-03-23 11:20:20.653,1.2858516370658504
2025-03-23 11:20:20.653,-2.5541370412262645
2025-03-23 11:20:20.662,-4.762540944551872
2025-03-23 11:20:20.663,-2.278037122536921
2025-03-23 11:20:20.663,2.9942210469959276
2025-03-23 11:20:20.663,5.913135064652341
2025-03-23 11:20:20.663,3.545598074373836
2025-03-23 11:20:20.672,-1.9207264809989324
2025-03-23 11:20:20.673,-5.55636560944164
2025-03-23 11:20:20.673,-4.32183428013839
2025-03-23 11:20:20.673,0.4315342915974397
2025-03-23 11:20:20.673,4.333714087166924
2025-03-23 11:20:20.682,3.973050154725421
2025-03-23 11:20:20.683,0.14757475081319515
2025-03-23 11:20:20.683,-2.9555405418051857
2025-03-23 11:20:20.683,-2.321040397028245
2025-03-23 11:20:20.683,0.5628809974304181
2025-03-23 11:20:20.692,1.789115522969248
2025-03-23 11:20:20.693,0.06289041692207203
2025-03-23 11:20:20.693,-1.8347061034988978
2025-03-23 11:20:20.693,-1.0251636314075734
2025-03-23 11:20:20.693,1.5391965368535845
2025-03-23 11:20:20.702,2.509565041261315
2025-03-23 11:20:20.703,0.7193436506953027
2025-03-23 11:20:20.703,-1.5142374473228182
2025-03-23 11:20:20.703,-1.8335350262427204
2025-03-23 11:20:20.703,-0.7820425535463981
2025-03-23 11:20:20.712,-0.20983196609039756
2025-03-23 11:20:20.713,-0.10422147697540596
2025-03-23 11:20:20.713,1.0001820684014435
2025-03-23 11:20:20.713,2.7422941012888655
2025-03-23 11:20:20.713,2.407725358784255
2025-03-23 11:20:20.722,-1.1512353036043341
2025-03-23 11:20:20.723,-4.715631713487795
2025-03-23 11:20:20.723,-3.9128540865942956
2025-03-23 11:20:20.723,1.1272982251877737
2025-03-23 11:20:20.723,5.29147301940416
2025-03-23 11:20:20.731,4.1977215509583665
2025-03-23 11:20:20.731,-0.9240702574376094
2025-03-23 11:20:20.731,-4.82644608408112
2025-03-23 11:20:20.731,-3.880324300325635
2025-03-23 11:20:20.732,0.6178708291880828
2025-03-23 11:20:20.741,4.207611098688381
2025-03-23 11:20:20.741,3.6126746140502015
2025-03-23 11:20:20.741,-0.37731952685921577
2025-03-23 11:20:20.741,-3.7820154726003956
2025-03-23 11:20:20.751,-3.2971191674688893
2025-03-23 11:20:20.751,0.3705519887168123
2025-03-23 11:20:20.751,3.2503601689625743
2025-03-23 11:20:20.751,2.4763383732367625
2025-03-23 11:20:20.752,-0.5745184564201402
2025-03-23 11:20:20.761,-2.197368699341673
2025-03-23 11:20:20.761,-0.9866297364352761
2025-03-23 11:20:20.761,0.7563880078466128
2025-03-23 11:20:20.761,0.5377284390381779
2025-03-23 11:20:20.761,-0.8663847212476008
2025-03-23 11:20:20.770,-0.7847639237045823
2025-03-23 11:20:20.771,1.242477181868966
2025-03-23 11:20:20.771,2.5349017074379696
2025-03-23 11:20:20.771,0.862555968764553
2025-03-23 11:20:20.771,-2.3544527868151954
2025-03-23 11:20:20.781,-3.5229513910482066
2025-03-23 11:20:20.781,-1.1538660117910349
2025-03-23 11:20:20.781,2.349269367782377
2025-03-23 11:20:20.781,3.4506998357609975
2025-03-23 11:20:20.781,1.3936500531418083
2025-03-23 11:20:20.790,-1.317819377914657
2025-03-23 11:20:20.791,-2.1464700679690005
2025-03-23 11:20:20.791,-1.2300699656909608
2025-03-23 11:20:20.791,-0.3310294950258015
2025-03-23 11:20:20.791,-0.024508562331616704
2025-03-23 11:20:20.800,0.6522079151140899
2025-03-23 11:20:20.801,1.878085847116067
2025-03-23 11:20:20.801,2.063043052848597
2025-03-23 11:20:20.801,0.10834819150425729
2025-03-23 11:20:20.801,-2.4336874096615917
2025-03-23 11:20:20.811,-2.8655673835584743
2025-03-23 11:20:20.811,-0.7279248667121967
2025-03-23 11:20:20.811,1.6255577666145986
2025-03-23 11:20:20.811,2.0344382078054544
2025-03-23 11:20:20.811,0.9344570265478046
2025-03-23 11:20:20.820,0.08660975167288229
2025-03-23 11:20:20.821,-0.12222034390853714
2025-03-23 11:20:20.821,-0.7748169092173233
2025-03-23 11:20:20.821,-1.9944474312400364
2025-03-23 11:20:20.821,-1.985386502705467
2025-03-23 11:20:20.830,0.5028110843390103
2025-03-23 11:20:20.831,3.582435261637033
2025-03-23 11:20:20.831,3.668795102831872
2025-03-23 11:20:20.831,-0.15928300432467007
2025-03-23 11:20:20.831,-4.392588783629124
2025-03-23 11:20:20.840,-4.62090352998972
2025-03-23 11:20:20.841,-0.42478499099482575
2025-03-23 11:20:20.841,4.103467400884502
2025-03-23 11:20:20.841,4.706330101376116
2025-03-23 11:20:20.841,1.1851675729903457
2025-03-23 11:20:20.849,-2.847722728322
2025-03-23 11:20:20.849,-3.858707267945097
2025-03-23 11:20:20.849,-1.6051178959354238
2025-03-23 11:20:20.849,1.268071562994186
2025-03-23 11:20:20.850,2.2279870878343386
2025-03-23 11:20:20.859,1.1333780935058038
2025-03-23 11:20:20.859,-0.2553774593177905
2025-03-23 11:20:20.859,-0.5094945602277852
2025-03-23 11:20:20.859,0.09284971176793338
2025-03-23 11:20:20.860,0.31288503804974055
2025-03-23 11:20:20.869,-0.3693078199301461
2025-03-23 11:20:20.869,-1.1518573722270993
2025-03-23 11:20:20.869,-0.953665836095052
2025-03-23 11:20:20.869,0.21926488993926116
2025-03-23 11:20:20.879,1.2177159745641277
2025-03-23 11:20:20.879,1.0894328784103067
2025-03-23 11:20:20.879,0.181502469747789
2025-03-23 11:20:20.879,-0.40536021041417014
2025-03-23 11:20:20.879,-0.2777247037284577
2025-03-23 11:20:20.889,-0.10812688242759862
2025-03-23 11:20:20.889,-0.43913813503517835
2025-03-23 11:20:20.889,-0.771327518373962
2025-03-23 11:20:20.889,-0.33144656222301305
2025-03-23 11:20:20.889,0.6544285805778284
2025-03-23 11:20:20.898,1.1336831857713594
2025-03-23 11:20:20.899,0.6163388361281075
2025-03-23 11:20:20.899,-0.23405350912417597
2025-03-23 11:20:20.899,-0.5869045178147267
2025-03-23 11:20:20.899,-0.489358587176721
2025-03-23 11:20:20.908,-0.48479960266976785
2025-03-23 11:20:20.909,-0.529229232846436
2025-03-23 11:20:20.909,0.006078283026640813
2025-03-23 11:20:20.909,1.1374812305767708
2025-03-23 11:20:20.909,1.7261251552344483
2025-03-23 11:20:20.917,0.6929087800135733
2025-03-23 11:20:20.917,-1.4105408032486741
2025-03-23 11:20:20.917,-2.5894804345617124
2025-03-23 11:20:20.917,-1.3963532404993204
2025-03-23 11:20:20.918,1.357474284121913
2025-03-23 11:20:20.927,3.0583853888249517
2025-03-23 11:20:20.927,1.7734100553905252
2025-03-23 11:20:20.927,-1.4847646159961263
2025-03-23 11:20:20.927,-3.345169789593448
2025-03-23 11:20:20.937,-1.5948548103565596
2025-03-23 11:20:20.937,2.0319507458690254
2025-03-23 11:20:20.937,3.4884343143329497
2025-03-23 11:20:20.937,1.059416582167895
2025-03-23 11:20:20.938,-2.5546804413054827
2025-03-23 11:20:20.947,-3.384663129534764
2025-03-23 11:20:20.947,-0.6904505080835386
2025-03-23 11:20:20.947,2.533375394705525
2025-03-23 11:20:20.947,3.128075289897564
2025-03-23 11:20:20.947,0.8720480812816368
2025-03-23 11:20:20.957,-1.9287120079145181
2025-03-23 11:20:20.957,-2.9495488498651032
2025-03-23 11:20:20.957,-1.564236441130948
2025-03-23 11:20:20.957,1.1029970341535484
2025-03-23 11:20:20.958,2.9909550739958575
2025-03-23 11:20:20.967,2.3622099228851736
2025-03-23 11:20:20.967,-0.6168723615406331
2025-03-23 11:20:20.967,-3.3131796546260692
2025-03-23 11:20:20.967,-2.7288063580475916
2025-03-23 11:20:20.967,0.9810774519532113
2025-03-23 11:20:20.976,3.85634471213104
2025-03-23 11:20:20.977,2.3280910876526164
2025-03-23 11:20:20.977,-2.155915595649198
2025-03-23 11:20:20.977,-4.307912842664095
2025-03-23 11:20:20.977,-1.3347982583005973
2025-03-23 11:20:20.987,3.389311204470069
2025-03-23 11:20:20.987,4.283312522625055
2025-03-23 11:20:20.987,0.3246560384887538
2025-03-23 11:20:20.987,-3.8519317947608473
2025-03-23 11:20:20.987,-3.649979028241677
2025-03-23 11:20:20.996,0.26388398332184226
2025-03-23 11:20:20.997,3.2924579288230658
2025-03-23 11:20:20.997,2.5209138301530887
2025-03-23 11:20:20.997,-0.39032360282252815
2025-03-23 11:20:20.997,-1.9634382795582013
2025-03-23 11:20:21.007,-1.1810678931224987
2025-03-23 11:20:21.007,0.09265999553497986
2025-03-23 11:20:21.007,0.307607518627022
2025-03-23 11:20:21.007,0.12710574841968847
2025-03-23 11:20:21.007,0.6409697928329324
2025-03-23 11:20:21.017,1.168992792327538
2025-03-23 11:20:21.017,0.27725631903095976
2025-03-23 11:20:21.017,-1.5946407230609578
2025-03-23 11:20:21.017,-2.1450241983179312
2025-03-23 11:20:21.017,-0.21883918139258354
2025-03-23 11:20:21.026,2.3285975745019063
2025-03-23 11:20:21.027,2.627007409777801
2025-03-23 11:20:21.027,0.19775962686455628
2025-03-23 11:20:21.027,-2.4624177212883134
2025-03-23 11:20:21.027,-2.703208794341374
2025-03-23 11:20:21.036,-0.48400720952483484
2025-03-23 11:20:21.037,1.9063031577362248
2025-03-23 11:20:21.037,2.380355852253255
2025-03-23 11:20:21.037,0.8812006939644582
2025-03-23 11:20:21.037,-0.9961001259298873
2025-03-23 11:20:21.046,-1.6658186056393152
2025-03-23 11:20:21.047,-0.8660903149654978
2025-03-23 11:20:21.047,0.309025515859428
2025-03-23 11:20:21.047,0.6379468268570523
2025-03-23 11:20:21.047,0.11483863030317545
2025-03-23 11:20:21.056,-0.17923820721660078
2025-03-23 11:20:21.057,0.34895793665318536
2025-03-23 11:20:21.057,0.9065885364421743
2025-03-23 11:20:21.057,0.4502752421146933
2025-03-23 11:20:21.057,-0.7283622588534161
2025-03-23 11:20:21.066,-1.2663039054089087
2025-03-23 11:20:21.067,-0.5165656410627377
2025-03-23 11:20:21.067,0.559697526159623
2025-03-23 11:20:21.067,0.6006021639607717
2025-03-23 11:20:21.067,-0.34122222568830163
2025-03-23 11:20:21.076,-0.7209903192611606
2025-03-23 11:20:21.077,0.4902191964278719
2025-03-23 11:20:21.077,2.104279663274195
2025-03-23 11:20:21.077,1.7917402004840928
2025-03-23 11:20:21.077,-0.9543178831496368
2025-03-23 11:20:21.087,-3.666340964216892
2025-03-23 11:20:21.087,-3.367582514556238
2025-03-23 11:20:21.087,0.09720813313568813
2025-03-23 11:20:21.087,3.7705715926014407
2025-03-23 11:20:21.087,4.512662145872719
2025-03-23 11:20:21.095,1.8031775748630832
2025-03-23 11:20:21.095,-2.1534969207623527
2025-03-23 11:20:21.095,-4.44464949488821
2025-03-23 11:20:21.096,-3.5455291248427896
2025-03-23 11:20:21.096,-0.2275439166959325
2025-03-23 11:20:21.105,3.0224805458704678
2025-03-23 11:20:21.105,3.837110060535738
2025-03-23 11:20:21.105,1.8896059435357149
2025-03-23 11:20:21.105,-0.9056061837674853
2025-03-23 11:20:21.106,-2.3356932596789792
2025-03-23 11:20:21.115,-1.9237902741899497
2025-03-23 11:20:21.115,-0.8098801812894576
2025-03-23 11:20:21.115,0.015787847055689974
2025-03-23 11:20:21.115,0.6348287557270823
2025-03-23 11:20:21.116,1.3237553163803497
2025-03-23 11:20:21.125,1.602025461545768
2025-03-23 11:20:21.125,0.8210237042511522
2025-03-23 11:20:21.125,-0.6374792555098626
2025-03-23 11:20:21.125,-1.5371992076428789
2025-03-23 11:20:21.135,-1.2773602835371314
2025-03-23 11:20:21.135,-0.5646970686746485
2025-03-23 11:20:21.135,-0.22145533362551456
2025-03-23 11:20:21.135,0.12274898464644983
2025-03-23 11:20:21.135,1.3297669910355503
2025-03-23 11:20:21.145,2.814342193667403
2025-03-23 11:20:21.145,2.3918524982172773
2025-03-23 11:20:21.145,-1.0143327596815421
2025-03-23 11:20:21.145,-4.939427659789023
2025-03-23 11:20:21.145,-5.084975381538651
2025-03-23 11:20:21.155,-0.2035599556720944
2025-03-23 11:20:21.155,5.584515577748337
2025-03-23 11:20:21.155,6.584359097995678
2025-03-23 11:20:21.155,1.605143274951756
2025-03-23 11:20:21.155,-4.640573451732682
2025-03-23 11:20:21.165,-6.404610190005439
2025-03-23 11:20:21.165,-2.550524711094833
2025-03-23 11:20:21.165,2.8533383285489275
2025-03-23 11:20:21.165,4.970257015312556
2025-03-23 11:20:21.165,2.6951387100229973
2025-03-23 11:20:21.174,-1.0788011758090574
2025-03-23 11:20:21.175,-2.9607257340785726
2025-03-23 11:20:21.175,-2.164354264436652
2025-03-23 11:20:21.175,-0.24168061469495478
2025-03-23 11:20:21.175,1.181902860314665
2025-03-23 11:20:21.184,1.5352344625263497
2025-03-23 11:20:21.185,0.8437254418143761
2025-03-23 11:20:21.185,-0.4582847639114046
2025-03-23 11:20:21.185,-1.2302494365357424
2025-03-23 11:20:21.185,-0.4805868243985082
2025-03-23 11:20:21.193,1.016047777474257
2025-03-23 11:20:21.193,1.1464829306454314
2025-03-23 11:20:21.193,-0.6978856658034996
2025-03-23 11:20:21.193,-2.2450130432769964
2025-03-23 11:20:21.193,-1.0581253501867625
2025-03-23 11:20:21.203,1.9474469280083961
2025-03-23 11:20:21.203,3.2215107649471206
2025-03-23 11:20:21.203,0.9686825413077023
2025-03-23 11:20:21.203,-2.468434994638988
2025-03-23 11:20:21.204,-3.32557978359625
2025-03-23 11:20:21.213,-0.7803954017535131
2025-03-23 11:20:21.213,2.264841229186624
2025-03-23 11:20:21.213,2.5778038023673226
2025-03-23 11:20:21.214,0.07978154136390775
2025-03-23 11:20:21.214,-2.25418313089701
2025-03-23 11:20:21.223,-1.6972146001347068
2025-03-23 11:20:21.223,1.2239525129157867
2025-03-23 11:20:21.223,3.143686660036382
2025-03-23 11:20:21.223,1.4941820641902057
2025-03-23 11:20:21.224,-2.360874855241432
2025-03-23 11:20:21.233,-4.2648094701741694
2025-03-23 11:20:21.233,-1.9028370616767099
2025-03-23 11:20:21.233,2.367128296013604
2025-03-23 11:20:21.233,4.139359965629067
2025-03-23 11:20:21.233,1.9955080437613564
2025-03-23 11:20:21.243,-1.2428027243097304
2025-03-23 11:20:21.243,-2.297794913096797
2025-03-23 11:20:21.243,-1.101015675442461
2025-03-23 11:20:21.243,0.04924569251674882
2025-03-23 11:20:21.253,-0.07240405246882595
2025-03-23 11:20:21.253,-0.4013295367833781
2025-03-23 11:20:21.253,0.3121838722179613
2025-03-23 11:20:21.253,1.4543751190566432
2025-03-23 11:20:21.253,1.3844942208288589
2025-03-23 11:20:21.263,-0.14560794373376018
2025-03-23 11:20:21.263,-1.4136576639224128
2025-03-23 11:20:21.263,-0.9408214175120303
2025-03-23 11:20:21.263,0.41979392862380377
2025-03-23 11:20:21.263,0.5523535331414823
2025-03-23 11:20:21.273,-0.8631111981234173
2025-03-23 11:20:21.273,-1.5508929513535543
2025-03-23 11:20:21.273,0.32775150664429287
2025-03-23 11:20:21.273,3.123871480666169
2025-03-23 11:20:21.273,3.12120689365522
2025-03-23 11:20:21.283,-0.7390218323407446
2025-03-23 11:20:21.283,-4.790811055348853
2025-03-23 11:20:21.283,-4.406939161977257
2025-03-23 11:20:21.283,0.5381282513854319
2025-03-23 11:20:21.283,5.1534685301378955
2025-03-23 11:20:21.292,4.830667368106629
2025-03-23 11:20:21.293,0.1928786722412772
2025-03-23 11:20:21.293,-3.9672940127528356
2025-03-23 11:20:21.293,-4.104383405205512
2025-03-23 11:20:21.293,-1.1633948157727145
2025-03-23 11:20:21.303,1.5346088434251206
2025-03-23 11:20:21.303,2.2808214658430246
2025-03-23 11:20:21.303,1.8836243682145644
2025-03-23 11:20:21.303,1.3241914768704592
2025-03-23 11:20:21.303,0.17280016645449087
2025-03-23 11:20:21.313,-1.9807874386138784
2025-03-23 11:20:21.313,-3.6266073029904278
2025-03-23 11:20:21.313,-2.449202418930726
2025-03-23 11:20:21.313,1.4531708239815233
2025-03-23 11:20:21.313,4.693031542313356
2025-03-23 11:20:21.322,3.878951985341901
2025-03-23 11:20:21.323,-0.5607321882274328
2025-03-23 11:20:21.323,-4.536741425565327
2025-03-23 11:20:21.323,-4.330816014291963
2025-03-23 11:20:21.323,-0.23453489107422965
2025-03-23 11:20:21.333,3.7787717132765666
2025-03-23 11:20:21.333,3.940667807081619
2025-03-23 11:20:21.333,0.3915819961546566
2025-03-23 11:20:21.333,-3.0199115679170947
2025-03-23 11:20:21.333,-2.8398719922744773
2025-03-23 11:20:21.342,0.2917759795610294
2025-03-23 11:20:21.343,2.547507324844557
2025-03-23 11:20:21.343,1.41923562622207
2025-03-23 11:20:21.343,-1.474302699169332
2025-03-23 11:20:21.343,-2.4900653733811544
2025-03-23 11:20:21.351,-0.30915765699793496
2025-03-23 11:20:21.351,2.564478112448885
2025-03-23 11:20:21.351,2.728581387795765
2025-03-23 11:20:21.352,-0.1846139194437521
2025-03-23 11:20:21.352,-3.0125890194055764
2025-03-23 11:20:21.361,-2.650981958451838
2025-03-23 11:20:21.361,0.32057850540154403
2025-03-23 11:20:21.361,2.3791724751479966
2025-03-23 11:20:21.362,1.4523700412890044
2025-03-23 11:20:21.362,-0.5860333765153777
2025-03-23 11:20:21.371,-0.7037644824828603
2025-03-23 11:20:21.371,0.9411180284379496
2025-03-23 11:20:21.371,1.2201279510035783
2025-03-23 11:20:21.371,-1.252968583683913
2025-03-23 11:20:21.381,-3.518168901165073
2025-03-23 11:20:21.381,-1.8796756870051303
2025-03-23 11:20:21.381,2.7277223078789663
2025-03-23 11:20:21.381,5.058881832473225
2025-03-23 11:20:21.381,1.8646478346635638
2025-03-23 11:20:21.391,-3.6505755846641095
2025-03-23 11:20:21.391,-5.208154786247717
2025-03-23 11:20:21.391,-0.8623902984726619
2025-03-23 11:20:21.391,4.522879709150277
2025-03-23 11:20:21.392,4.735948592697662
2025-03-23 11:20:21.401,-0.7176558778947923
2025-03-23 11:20:21.401,-5.896255577484642
2025-03-23 11:20:21.401,-4.798045573538666
2025-03-23 11:20:21.401,2.0013950701284635
2025-03-23 11:20:21.401,7.558515637845545
2025-03-23 11:20:21.411,5.705718378505106
2025-03-23 11:20:21.411,-2.189309516442799
2025-03-23 11:20:21.411,-8.26965934333907
2025-03-23 11:20:21.411,-6.375236870767933
2025-03-23 11:20:21.411,1.3660735126524124
2025-03-23 11:20:21.420,6.952613427756651
2025-03-23 11:20:21.421,5.300367585394754
2025-03-23 11:20:21.421,-0.6210442870401656
2025-03-23 11:20:21.421,-4.005301286332739
2025-03-23 11:20:21.421,-2.2713195723784914
2025-03-23 11:20:21.431,0.8483539595721742
2025-03-23 11:20:21.431,1.0307976061866366
2025-03-23 11:20:21.431,-1.1176855882060672
2025-03-23 11:20:21.431,-1.7127766572232812
2025-03-23 11:20:21.431,0.6024281787545316
2025-03-23 11:20:21.440,2.86378536390017
2025-03-23 11:20:21.441,2.036274664708622
2025-03-23 11:20:21.441,-0.8878439469886186
2025-03-23 11:20:21.441,-2.3461867663157583
2025-03-23 11:20:21.441,-0.8922770677231308
2025-03-23 11:20:21.450,1.0987966757760876
2025-03-23 11:20:21.451,0.679903115906717
2025-03-23 11:20:21.451,-1.6711227256906467
2025-03-23 11:20:21.451,-2.3724368486286296
2025-03-23 11:20:21.451,0.6443862121822821
2025-03-23 11:20:21.459,4.5368035982872925
2025-03-23 11:20:21.459,4.250994413131871
2025-03-23 11:20:21.459,-1.1111588615592285
2025-03-23 11:20:21.459,-6.231628871707856
2025-03-23 11:20:21.460,-5.292364377065089
2025-03-23 11:20:21.469,1.058307434080991
2025-03-23 11:20:21.469,6.189078534414064
2025-03-23 11:20:21.469,4.951524933961583
2025-03-23 11:20:21.470,-0.8599273345476353
2025-03-23 11:20:21.470,-5.065666230101682
2025-03-23 11:20:21.479,-3.925028439150944
2025-03-23 11:20:21.479,0.6024430129630969
2025-03-23 11:20:21.479,3.780322670132519
2025-03-23 11:20:21.480,3.0268201596989917
2025-03-23 11:20:21.480,-0.24092844173024286
2025-03-23 11:20:21.489,-2.739977917911481
2025-03-23 11:20:21.489,-2.5276600288857076
2025-03-23 11:20:21.489,-0.2733736292306669
2025-03-23 11:20:21.489,1.907500476909788
2025-03-23 11:20:21.499,2.3802919444589463
2025-03-23 11:20:21.499,0.9586561810922144
2025-03-23 11:20:21.499,-1.290659472584568
2025-03-23 11:20:21.499,-2.6615437833361106
2025-03-23 11:20:21.500,-1.702647542671422
2025-03-23 11:20:21.509,1.3403195767149967
2025-03-23 11:20:21.509,3.7266138279104157
2025-03-23 11:20:21.509,2.256139967635158
2025-03-23 11:20:21.509,-2.6379641506491938
2025-03-23 11:20:21.509,-5.799191948294809
2025-03-23 11:20:21.519,-2.528984400304926
2025-03-23 11:20:21.519,4.8981042329332105
2025-03-23 11:20:21.519,8.251155031611466
2025-03-23 11:20:21.519,2.640427740752152
2025-03-23 11:20:21.519,-6.650288510283792
2025-03-23 11:20:21.529,-9.372841881675367
2025-03-23 11:20:21.529,-2.3841279497639705
2025-03-23 11:20:21.529,6.383437093824947
2025-03-23 11:20:21.529,7.512187581064859
2025-03-23 11:20:21.529,1.214677585656096
2025-03-23 11:20:21.539,-4.059215153776326
2025-03-23 11:20:21.539,-2.9262028398065567
2025-03-23 11:20:21.539,0.9580013758582104
2025-03-23 11:20:21.539,1.273390050214923
2025-03-23 11:20:21.539,-2.0414666973579627
2025-03-23 11:20:21.549,-3.3806533570251576
2025-03-23 11:20:21.549,0.23760720556049364
2025-03-23 11:20:21.549,4.9251636913160395
2025-03-23 11:20:21.549,4.96130508133345
2025-03-23 11:20:21.549,-0.06498739455872854
2025-03-23 11:20:21.559,-4.96493742444378
2025-03-23 11:20:21.559,-5.0595442691058
2025-03-23 11:20:21.559,-0.9115817558442988
2025-03-23 11:20:21.559,3.143780523620593
2025-03-23 11:20:21.559,3.8441727577659264
2025-03-23 11:20:21.567,1.618175296295949
2025-03-23 11:20:21.567,-0.9104842093788365
2025-03-23 11:20:21.567,-1.924961513593991
2025-03-23 11:20:21.567,-1.6343810202003415
2025-03-23 11:20:21.568,-1.0317941685097
2025-03-23 11:20:21.577,-0.25568941786886556
2025-03-23 11:20:21.577,1.1846259436399498
2025-03-23 11:20:21.577,2.7286791589967967
2025-03-23 11:20:21.578,2.4678450397286014
2025-03-23 11:20:21.578,-0.49885218171734264
2025-03-23 11:20:21.587,-3.9670689564130415
2025-03-23 11:20:21.587,-4.3101259791205155
2025-03-23 11:20:21.587,-0.5879646672582887
2025-03-23 11:20:21.587,4.011011599973702
2025-03-23 11:20:21.597,5.332534795817629
2025-03-23 11:20:21.597,2.250253571962466
2025-03-23 11:20:21.597,-2.670368379537935
2025-03-23 11:20:21.597,-5.588976721579892
2025-03-23 11:20:21.598,-4.171157524294438
2025-03-23 11:20:21.607,0.7828996976299906
2025-03-23 11:20:21.607,5.461215263850038
2025-03-23 11:20:21.607,5.657733763408099
2025-03-23 11:20:21.607,0.7435222724121588
2025-03-23 11:20:21.607,-4.993354362100494
2025-03-23 11:20:21.617,-6.121294690469662
2025-03-23 11:20:21.617,-1.6008480625350439
2025-03-23 11:20:21.617,4.041825888261514
2025-03-23 11:20:21.617,5.416202353606475
2025-03-23 11:20:21.617,1.7370454559355248
2025-03-23 11:20:21.627,-2.7823420083064296
2025-03-23 11:20:21.627,-3.750034293289213
2025-03-23 11:20:21.627,-1.143090138370317
2025-03-23 11:20:21.627,1.4010347567906474
2025-03-23 11:20:21.628,1.3685194363895532
2025-03-23 11:20:21.637,0.1261910914423009
2025-03-23 11:20:21.637,0.23005092141455621
2025-03-23 11:20:21.637,1.3215327096599707
2025-03-23 11:20:21.637,0.7331796439301201
2025-03-23 11:20:21.637,-1.9669983555663049
2025-03-23 11:20:21.647,-3.45823947692429
2025-03-23 11:20:21.647,-1.0450729274597934
2025-03-23 11:20:21.647,3.07491620337076
2025-03-23 11:20:21.647,4.092987777063457
2025-03-23 11:20:21.647,0.7448556647596665
2025-03-23 11:20:21.657,-2.9868322054310594
2025-03-23 11:20:21.657,-2.971743621983577
2025-03-23 11:20:21.657,0.029620995712420356
2025-03-23 11:20:21.657,1.9211143410705829
2025-03-23 11:20:21.657,0.8559830061262269
2025-03-23 11:20:21.667,-0.8315806293844927
2025-03-23 11:20:21.667,-0.4855489439287719
2025-03-23 11:20:21.667,1.07713480603507
2025-03-23 11:20:21.667,1.0833599500767876
2025-03-23 11:20:21.667,-0.9067501829021389
2025-03-23 11:20:21.677,-2.2247160879342487
2025-03-23 11:20:21.677,-0.826856086802747
2025-03-23 11:20:21.677,1.8781416418434245
2025-03-23 11:20:21.677,2.88826206802001
2025-03-23 11:20:21.677,1.1642825259572849
2025-03-23 11:20:21.687,-1.7772969717383216
2025-03-23 11:20:21.687,-3.811706381299602
2025-03-23 11:20:21.687,-3.370142097286964
2025-03-23 11:20:21.687,0.21730101100822619
2025-03-23 11:20:21.687,5.276887026134165
2025-03-23 11:20:21.696,7.202016431264274
2025-03-23 11:20:21.697,2.3615637972773755
2025-03-23 11:20:21.697,-6.379588443160421
2025-03-23 11:20:21.697,-10.62224824871174
2025-03-23 11:20:21.697,-5.116419220246193
2025-03-23 11:20:21.705,5.643549015486942
2025-03-23 11:20:21.705,11.522226918589475
2025-03-23 11:20:21.706,7.2021331251883085
2025-03-23 11:20:21.706,-2.802047721153719
2025-03-23 11:20:21.706,-9.348689754289467
2025-03-23 11:20:21.715,-7.547407018152548
2025-03-23 11:20:21.715,-0.35269193242882396
2025-03-23 11:20:21.715,5.3565638023032305
2025-03-23 11:20:21.716,5.396026894328626
2025-03-23 11:20:21.716,1.4029372232721007
2025-03-23 11:20:21.725,-1.8186109137265836
2025-03-23 11:20:21.725,-1.5819579552147243
2025-03-23 11:20:21.725,0.31947692330621075
2025-03-23 11:20:21.725,0.4767753285941643
2025-03-23 11:20:21.735,-1.6514279801922374
2025-03-23 11:20:21.735,-3.08395820479683
2025-03-23 11:20:21.735,-1.2133421113905738
2025-03-23 11:20:21.735,2.6506072018206646
2025-03-23 11:20:21.736,4.528914186603171
2025-03-23 11:20:21.745,2.3189269746853216
2025-03-23 11:20:21.745,-1.8136088468085267
2025-03-23 11:20:21.745,-3.8631536709069603
2025-03-23 11:20:21.745,-2.19546410722379
2025-03-23 11:20:21.745,1.072244707509327
2025-03-23 11:20:21.755,2.489420518461426
2025-03-23 11:20:21.755,0.7129437203967066
2025-03-23 11:20:21.755,-2.140003282531938
2025-03-23 11:20:21.755,-2.4442307841954194
2025-03-23 11:20:21.755,1.0066110262852475
2025-03-23 11:20:21.765,4.869523764383126
2025-03-23 11:20:21.765,4.176752695550973
2025-03-23 11:20:21.765,-1.75600726079785
2025-03-23 11:20:21.765,-7.347337443476949
2025-03-23 11:20:21.765,-6.265255857544334
2025-03-23 11:20:21.775,1.2015971360623527
2025-03-23 11:20:21.775,7.827612058297068
2025-03-23 11:20:21.775,7.089374927007435
2025-03-23 11:20:21.775,0.056498768446199665
2025-03-23 11:20:21.775,-6.180812150265719
2025-03-23 11:20:21.785,-6.193323846441256
2025-03-23 11:20:21.785,-1.1605733178589364
2025-03-23 11:20:21.785,3.549583102105308
2025-03-23 11:20:21.785,4.245103321050944
2025-03-23 11:20:21.785,1.6501856176600715
2025-03-23 11:20:21.795,-1.1829353330099974
2025-03-23 11:20:21.795,-2.237082258712731
2025-03-23 11:20:21.795,-1.6278465313556731
2025-03-23 11:20:21.795,-0.4127874242419206
2025-03-23 11:20:21.795,0.7329028107245483
2025-03-23 11:20:21.804,1.5667379268514479
2025-03-23 11:20:21.805,1.5868105576023315
2025-03-23 11:20:21.805,0.16586972514600887
2025-03-23 11:20:21.805,-2.083811424414219
2025-03-23 11:20:21.805,-2.799735377680957
2025-03-23 11:20:21.814,-0.270019273694003
2025-03-23 11:20:21.815,3.461679285202547
2025-03-23 11:20:21.815,3.8155008301974114
2025-03-23 11:20:21.815,-0.613605359045549
2025-03-23 11:20:21.815,-5.10178857567159
2025-03-23 11:20:21.824,-3.9373538194939477
2025-03-23 11:20:21.825,2.023248816193326
2025-03-23 11:20:21.825,5.772616810180187
2025-03-23 11:20:21.825,2.854924617036716
2025-03-23 11:20:21.825,-2.966872657128739
2025-03-23 11:20:21.833,-4.687816301273324
2025-03-23 11:20:21.833,-0.9379408635678985
2025-03-23 11:20:21.833,2.9346337995898515
2025-03-23 11:20:21.834,2.318392050079362
2025-03-23 11:20:21.834,-1.066808860825279
2025-03-23 11:20:21.843,-2.3113740116964974
2025-03-23 11:20:21.843,-0.027299970687197722
2025-03-23 11:20:21.843,2.372749663397774
2025-03-23 11:20:21.844,1.6382434674970503
2025-03-23 11:20:21.844,-1.2255908014611299
2025-03-23 11:20:21.853,-2.609898861196341
2025-03-23 11:20:21.853,-0.8787855807611712
2025-03-23 11:20:21.853,1.8245211427935053
2025-03-23 11:20:21.854,2.2081063525577016
2025-03-23 11:20:21.863,-0.34469944174408806
2025-03-23 11:20:21.863,-2.891305578167555
2025-03-23 11:20:21.863,-2.0727047568319166
2025-03-23 11:20:21.863,1.8359258125139228
2025-03-23 11:20:21.863,4.640949755288097
2025-03-23 11:20:21.873,2.7214822742259464
2025-03-23 11:20:21.873,-2.5195047105339063
2025-03-23 11:20:21.873,-5.765831963321538
2025-03-23 11:20:21.873,-3.603999055871777
2025-03-23 11:20:21.873,1.6850764877276243
2025-03-23 11:20:21.883,4.802615191570732
2025-03-23 11:20:21.883,3.3021107745354703
2025-03-23 11:20:21.883,-0.2268503690568567
2025-03-23 11:20:21.883,-1.8496281070838467
2025-03-23 11:20:21.883,-0.9703842878533959
2025-03-23 11:20:21.892,-0.2497011922264725
2025-03-23 11:20:21.893,-1.3205802675058076
2025-03-23 11:20:21.893,-2.339051554630588
2025-03-23 11:20:21.893,-0.7442062929143177
2025-03-23 11:20:21.893,2.703527495582999
2025-03-23 11:20:21.901,4.368330169750027
2025-03-23 11:20:21.901,2.2165234671642327
2025-03-23 11:20:21.901,-1.635774707885127
2025-03-23 11:20:21.902,-3.563734647470883
2025-03-23 11:20:21.902,-2.623997937231265
2025-03-23 11:20:21.913,-0.8952249018336261
2025-03-23 11:20:21.913,0.005131609872494516
2025-03-23 11:20:21.913,1.0177762241693644
2025-03-23 11:20:21.913,3.255291913433649
2025-03-23 11:20:21.913,4.7937285939917205
2025-03-23 11:20:21.921,2.200795806431236
2025-03-23 11:20:21.921,-4.182689390642321
2025-03-23 11:20:21.921,-8.575207158348666
2025-03-23 11:20:21.922,-5.487083070998082
2025-03-23 11:20:21.922,3.3050125392310115
2025-03-23 11:20:21.931,9.560447451156804
2025-03-23 11:20:21.931,7.1460736909135205
2025-03-23 11:20:21.931,-1.3496371881841536
2025-03-23 11:20:21.931,-7.583071162518895
2025-03-23 11:20:21.941,-6.349494255700091
2025-03-23 11:20:21.941,-0.2899128171601643
2025-03-23 11:20:21.941,4.081927081820276
2025-03-23 11:20:21.941,3.54078009598773
2025-03-23 11:20:21.942,0.4919998233596382
2025-03-23 11:20:21.951,-0.9865679794755926
2025-03-23 11:20:21.951,0.012473020954749892
2025-03-23 11:20:21.951,0.88387149170824
2025-03-23 11:20:21.951,-0.5776172769678923
2025-03-23 11:20:21.952,-2.9745788232234727
2025-03-23 11:20:21.961,-2.8334529867159555
2025-03-23 11:20:21.961,0.7801513989360308
2025-03-23 11:20:21.961,4.377025857526252
2025-03-23 11:20:21.961,3.833975120749177
2025-03-23 11:20:21.961,-0.48849161396303054
2025-03-23 11:20:21.971,-3.928294977478499
2025-03-23 11:20:21.971,-3.053109393649783
2025-03-23 11:20:21.971,0.447236491531237
2025-03-23 11:20:21.971,2.3066028790803053
2025-03-23 11:20:21.971,1.0177848633503825
2025-03-23 11:20:21.981,-0.9020716188764839
2025-03-23 11:20:21.981,-0.7435175643287565
2025-03-23 11:20:21.981,0.9167258870165255
2025-03-23 11:20:21.981,1.4190217445971491
2025-03-23 11:20:21.981,-0.14886781592973386
2025-03-23 11:20:21.991,-1.7090098020836981
2025-03-23 11:20:21.991,-1.0988042068326502
2025-03-23 11:20:21.991,0.8446780568671116
2025-03-23 11:20:21.991,1.3246134023339362
2025-03-23 11:20:21.991,-0.45897679524470836
2025-03-23 11:20:22.001,-1.9120286673818974
2025-03-23 11:20:22.001,-0.5129784930252125
2025-03-23 11:20:22.001,2.418309621262061
2025-03-23 11:20:22.001,3.066220206983972
2025-03-23 11:20:22.001,0.07978314626592009
2025-03-23 11:20:22.011,-3.431843065482837
2025-03-23 11:20:22.011,-3.532480725912419
2025-03-23 11:20:22.011,-0.10498882128222983
2025-03-23 11:20:22.011,3.0910452154066115
2025-03-23 11:20:22.011,2.783311093908456
2025-03-23 11:20:22.019,-0.18944809789317144
2025-03-23 11:20:22.019,-2.083077491425937
2025-03-23 11:20:22.019,-0.8466645132381123
2025-03-23 11:20:22.020,1.380890714867102
2025-03-23 11:20:22.020,1.1328994938216272
2025-03-23 11:20:22.029,-1.5975984196692201
2025-03-23 11:20:22.029,-3.0162204102295957
2025-03-23 11:20:22.029,-0.5014871759618968
2025-03-23 11:20:22.029,3.527308408268117
2025-03-23 11:20:22.039,4.221608036501084
2025-03-23 11:20:22.039,0.2919933041686713
2025-03-23 11:20:22.039,-4.225519614620138
2025-03-23 11:20:22.039,-4.5784993493885935
2025-03-23 11:20:22.039,-0.5597673475021333
2025-03-23 11:20:22.049,3.60731470758772
2025-03-23 11:20:22.049,4.066063069836078
2025-03-23 11:20:22.049,1.0804002349667114
2025-03-23 11:20:22.049,-2.021710723646779
2025-03-23 11:20:22.049,-2.7454464921628947
2025-03-23 11:20:22.059,-1.4656343348432825
2025-03-23 11:20:22.059,0.09918668248266463
2025-03-23 11:20:22.059,1.1209678250192707
2025-03-23 11:20:22.059,1.6245370288827055
2025-03-23 11:20:22.059,1.249135515770426
2025-03-23 11:20:22.069,-0.3413704810837598
2025-03-23 11:20:22.069,-1.9275207553393818
2025-03-23 11:20:22.069,-1.4032433541683227
2025-03-23 11:20:22.069,1.2003991123205773
2025-03-23 11:20:22.069,2.781243922980848
2025-03-23 11:20:22.079,0.7706268436355583
2025-03-23 11:20:22.079,-3.027101301470289
2025-03-23 11:20:22.079,-4.0197910735526
2025-03-23 11:20:22.079,-0.45196949307646245
2025-03-23 11:20:22.079,4.135797257424493
2025-03-23 11:20:22.089,4.917844156631714
2025-03-23 11:20:22.089,1.185943335151777
2025-03-23 11:20:22.089,-3.34121143254025
2025-03-23 11:20:22.089,-4.870719154183106
2025-03-23 11:20:22.089,-2.8382106309037525
2025-03-23 11:20:22.099,0.7927612170706098
2025-03-23 11:20:22.099,3.784848318109396
2025-03-23 11:20:22.099,4.578046925354873
2025-03-23 11:20:22.099,2.436441148246723
2025-03-23 11:20:22.099,-1.814156106436987
2025-03-23 11:20:22.109,-5.3864589376120975
2025-03-23 11:20:22.109,-5.198603934979795
2025-03-23 11:20:22.109,-0.773701054676186
2025-03-23 11:20:22.109,4.687871615236494
2025-03-23 11:20:22.109,6.683484416047795
2025-03-23 11:20:22.119,3.3164794312823207
2025-03-23 11:20:22.119,-2.8264334366261603
2025-03-23 11:20:22.119,-6.622765886922571
2025-03-23 11:20:22.119,-4.7347257827786935
2025-03-23 11:20:22.119,1.2102110621121218
2025-03-23 11:20:22.127,5.6527833796685565
2025-03-23 11:20:22.127,4.248046386666753
2025-03-23 11:20:22.127,-1.3941173996377636
2025-03-23 11:20:22.128,-4.947220852405752
2025-03-23 11:20:22.128,-2.3477367080693927
2025-03-23 11:20:22.137,3.2324819958475954
2025-03-23 11:20:22.137,4.967600136138846
2025-03-23 11:20:22.137,0.6301736016559519
2025-03-23 11:20:22.138,-4.736520132671309
2025-03-23 11:20:22.138,-5.024465082681999
2025-03-23 11:20:22.147,-0.1781819662388786
2025-03-23 11:20:22.147,4.341984978923998
2025-03-23 11:20:22.148,4.220248031337143
2025-03-23 11:20:22.148,0.5652822685702379
2025-03-23 11:20:22.148,-2.461973008457824
2025-03-23 11:20:22.157,-2.5391318976090758
2025-03-23 11:20:22.157,-0.7152274419991875
2025-03-23 11:20:22.158,0.8384716493842481
2025-03-23 11:20:22.158,1.058413554580343
2025-03-23 11:20:22.158,0.16323548869992138
2025-03-23 11:20:22.167,-0.9319670919425239
2025-03-23 11:20:22.167,-0.9830534908962599
2025-03-23 11:20:22.167,0.6112736468815039
2025-03-23 11:20:22.168,2.5437905245424846
2025-03-23 11:20:22.168,2.328412660798441
2025-03-23 11:20:22.177,-0.728240826707536
2025-03-23 11:20:22.177,-3.958342178909165
2025-03-23 11:20:22.177,-3.87674472410264
2025-03-23 11:20:22.177,-0.15500167051152117
2025-03-23 11:20:22.187,3.8073860273324867
2025-03-23 11:20:22.187,4.387839848181474
2025-03-23 11:20:22.187,1.3179594930231269
2025-03-23 11:20:22.187,-2.3290235683761056
2025-03-23 11:20:22.187,-3.3915442513369927
2025-03-23 11:20:22.197,-1.6317091977717848
2025-03-23 11:20:22.197,0.5474563253184639
2025-03-23 11:20:22.197,1.1518828863794104
2025-03-23 11:20:22.197,0.6916339240126912
2025-03-23 11:20:22.197,0.8194319895129658
2025-03-23 11:20:22.207,1.573941015161455
2025-03-23 11:20:22.207,1.1611743043193437
2025-03-23 11:20:22.207,-1.31927175757676
2025-03-23 11:20:22.207,-3.910147739951852
2025-03-23 11:20:22.207,-3.484979860987537
2025-03-23 11:20:22.217,0.5883620104006608
2025-03-23 11:20:22.217,5.072094170474269
2025-03-23 11:20:22.217,5.661417315560614
2025-03-23 11:20:22.217,1.2926906160221596
2025-03-23 11:20:22.217,-4.495593957911219
2025-03-23 11:20:22.227,-6.70651006266544
2025-03-23 11:20:22.227,-3.4993182669821503
2025-03-23 11:20:22.227,2.2720724132490075
2025-03-23 11:20:22.227,5.922933691727062
2025-03-23 11:20:22.228,5.0307536141237925
2025-03-23 11:20:22.237,0.8132457101993177
2025-03-23 11:20:22.237,-3.633074625922497
2025-03-23 11:20:22.237,-5.59842835441211
2025-03-23 11:20:22.237,-3.842251705631629
2025-03-23 11:20:22.238,0.8539154256821093
2025-03-23 11:20:22.247,5.420685082251296
2025-03-23 11:20:22.247,6.026123398893404
2025-03-23 11:20:22.247,1.5358942247757645
2025-03-23 11:20:22.247,-4.514897974817743
2025-03-23 11:20:22.247,-6.680665313231363
2025-03-23 11:20:22.257,-2.999482217966106
2025-03-23 11:20:22.257,2.896994164489334
2025-03-23 11:20:22.257,5.544338357069798
2025-03-23 11:20:22.257,3.150853844493757
2025-03-23 11:20:22.257,-1.1067496115890836
2025-03-23 11:20:22.266,-2.994039389345213
2025-03-23 11:20:22.267,-1.697688026541473
2025-03-23 11:20:22.267,-0.007862506690152454
2025-03-23 11:20:22.267,-0.3239317370610734
2025-03-23 11:20:22.267,-1.4101950484640153
2025-03-23 11:20:22.277,-0.13133423994724566
2025-03-23 11:20:22.277,3.66387987173363
2025-03-23 11:20:22.277,5.580505554085425
2025-03-23 11:20:22.277,1.5710352021615042
2025-03-23 11:20:22.277,-6.013399161875849
2025-03-23 11:20:22.285,-9.375673647872164
2025-03-23 11:20:22.285,-3.654013182919988
2025-03-23 11:20:22.285,6.57017567865769
2025-03-23 11:20:22.286,11.106306938155804
2025-03-23 11:20:22.286,5.051907398597563
2025-03-23 11:20:22.295,-5.517851830954001
2025-03-23 11:20:22.295,-10.000541572989118
2025-03-23 11:20:22.295,-4.689434894794996
2025-03-23 11:20:22.295,3.8581489789384626
2025-03-23 11:20:22.305,6.8458656845813515
2025-03-23 11:20:22.305,2.7398418832930034
2025-03-23 11:20:22.305,-2.462774379776782
2025-03-23 11:20:22.305,-3.2140095269137516
2025-03-23 11:20:22.305,-0.36674178083001757
2025-03-23 11:20:22.315,1.415959820614386
2025-03-23 11:20:22.315,0.2609359435490433
2025-03-23 11:20:22.315,-1.1624587515356481
2025-03-23 11:20:22.315,-0.2999155954622723
2025-03-23 11:20:22.316,1.4417418796915469
2025-03-23 11:20:22.325,1.1529661862867098
2025-03-23 11:20:22.325,-0.8904040722982268
2025-03-23 11:20:22.325,-1.625561154990455
2025-03-23 11:20:22.325,-0.0026623027457590986
2025-03-23 11:20:22.326,1.3979151793991458
2025-03-23 11:20:22.335,0.47602306360493
2025-03-23 11:20:22.335,-1.0762354735020672
2025-03-23 11:20:22.335,-0.5362741871010059
2025-03-23 11:20:22.335,1.345686556146952
2025-03-23 11:20:22.335,1.2841627240112627
2025-03-23 11:20:22.345,-1.3626203669013524
2025-03-23 11:20:22.345,-3.0685256255909583
2025-03-23 11:20:22.345,-0.9236153907704883
2025-03-23 11:20:22.345,2.989792924264669
2025-03-23 11:20:22.345,3.9862611499255935
2025-03-23 11:20:22.355,0.7878324246187534
2025-03-23 11:20:22.355,-2.947438871840387
2025-03-23 11:20:22.355,-3.3864205164856873
2025-03-23 11:20:22.355,-1.009917304941971
2025-03-23 11:20:22.355,0.8537372744606854
2025-03-23 11:20:22.365,0.8438040587443938
2025-03-23 11:20:22.365,0.8575296331562061
2025-03-23 11:20:22.365,2.2512700972919
2025-03-23 11:20:22.365,2.892386556209254
2025-03-23 11:20:22.365,0.037901874354177245
2025-03-23 11:20:22.375,-4.674738400800324
2025-03-23 11:20:22.375,-5.879102081104807
2025-03-23 11:20:22.375,-1.08911632499075
2025-03-23 11:20:22.375,5.347834108315812
2025-03-23 11:20:22.375,6.750159831849655
2025-03-23 11:20:22.385,1.7110235560056544
2025-03-23 11:20:22.385,-4.505152453361214
2025-03-23 11:20:22.385,-5.952391791748306
2025-03-23 11:20:22.385,-1.9255935766490293
2025-03-23 11:20:22.385,3.2230422100234097
2025-03-23 11:20:22.393,4.841485626288735
2025-03-23 11:20:22.393,1.9736991308536298
2025-03-23 11:20:22.393,-2.4042965482123577
2025-03-23 11:20:22.394,-4.250151248411139
2025-03-23 11:20:22.394,-1.9950692522471447
2025-03-23 11:20:22.403,2.039610929304569
2025-03-23 11:20:22.403,3.922357454598601
2025-03-23 11:20:22.404,2.1516982892510694
2025-03-23 11:20:22.404,-1.0525792125151652
2025-03-23 11:20:22.404,-2.7939362143065005
2025-03-23 11:20:22.413,-2.6900380164393956
2025-03-23 11:20:22.413,-1.878259069885336
2025-03-23 11:20:22.414,-0.1120458660090941
2025-03-23 11:20:22.414,3.506261271172924
2025-03-23 11:20:22.423,6.7774293870290565
2025-03-23 11:20:22.423,4.701005329284388
2025-03-23 11:20:22.423,-3.892381221117808
2025-03-23 11:20:22.423,-11.789352973494987
2025-03-23 11:20:22.424,-9.480928809117081
2025-03-23 11:20:22.431,3.1670066318938415
2025-03-23 11:20:22.431,14.380282372222661
2025-03-23 11:20:22.432,12.358672450877705
2025-03-23 11:20:22.432,-1.3835674092419155
2025-03-23 11:20:22.432,-13.236802093182488
2025-03-23 11:20:22.441,-12.123506886907293
2025-03-23 11:20:22.441,-0.6108831063634897
2025-03-23 11:20:22.441,9.295123752099299
2025-03-23 11:20:22.442,9.262667227427272
2025-03-23 11:20:22.451,1.7159953382742494
2025-03-23 11:20:22.451,-4.927754253478762
2025-03-23 11:20:22.451,-5.447013381798426
2025-03-23 11:20:22.451,-1.527860623291848
2025-03-23 11:20:22.452,1.9548814059210604
2025-03-23 11:20:22.461,2.3877868512220473
2025-03-23 11:20:22.461,0.8609859315431476
2025-03-23 11:20:22.461,-0.4875567304851835
2025-03-23 11:20:22.461,-0.9814609466221731
2025-03-23 11:20:22.461,-0.9848433933425558
2025-03-23 11:20:22.471,-0.3707463575376737
2025-03-23 11:20:22.471,1.095600451390121
2025-03-23 11:20:22.471,2.221201029108981
2025-03-23 11:20:22.471,1.0904739046542693
2025-03-23 11:20:22.471,-1.9533976429456428
2025-03-23 11:20:22.481,-3.5639928966433394
2025-03-23 11:20:22.481,-1.2386288751401782
2025-03-23 11:20:22.481,2.8304940434691925
2025-03-23 11:20:22.481,3.785422047439794
2025-03-23 11:20:22.481,0.2477197231912131
2025-03-23 11:20:22.491,-3.5005915683858038
2025-03-23 11:20:22.491,-2.731551198594525
2025-03-23 11:20:22.491,1.6287017887881938
2025-03-23 11:20:22.491,4.053978311354269
2025-03-23 11:20:22.491,1.3776053736693472
2025-03-23 11:20:22.501,-3.267580281178698
2025-03-23 11:20:22.501,-4.3906409907552675
2025-03-23 11:20:22.501,-0.7343234142668502
2025-03-23 11:20:22.501,3.5889535443527834
2025-03-23 11:20:22.501,4.1725111886405255
2025-03-23 11:20:22.511,0.9882289085243716
2025-03-23 11:20:22.511,-2.414792465278893
2025-03-23 11:20:22.511,-3.178884274904028
2025-03-23 11:20:22.511,-1.5849933891148216
2025-03-23 11:20:22.511,0.3175970789966026
2025-03-23 11:20:22.521,1.3437081477541708
2025-03-23 11:20:22.521,1.8419782059462777
2025-03-23 11:20:22.521,2.1265888203370467
2025-03-23 11:20:22.521,1.274876242840649
2025-03-23 11:20:22.521,-1.5298736353786966
2025-03-23 11:20:22.531,-4.59099724279513
2025-03-23 11:20:22.531,-4.223300147977002
2025-03-23 11:20:22.531,0.8875184547052529
2025-03-23 11:20:22.531,6.571323667923971
2025-03-23 11:20:22.531,6.586029321819316
2025-03-23 11:20:22.539,-0.11723190805690625
2025-03-23 11:20:22.539,-7.168784289853393
2025-03-23 11:20:22.539,-7.35510514285778
2025-03-23 11:20:22.540,-0.6860566422553454
2025-03-23 11:20:22.540,5.77028824894536
2025-03-23 11:20:22.549,5.995767594352236
2025-03-23 11:20:22.549,1.177209995955054
2025-03-23 11:20:22.550,-2.907679757750259
2025-03-23 11:20:22.550,-2.9699266627257854
2025-03-23 11:20:22.559,-0.8900933639883513
2025-03-23 11:20:22.559,0.08104524237772692
2025-03-23 11:20:22.559,-0.38874167667370757
2025-03-23 11:20:22.560,-0.22584079737008436
2025-03-23 11:20:22.560,1.419302974354155
2025-03-23 11:20:22.569,2.705343228842318
2025-03-23 11:20:22.569,1.5530764759511932
2025-03-23 11:20:22.569,-1.4275633292551806
2025-03-23 11:20:22.569,-3.3418376967697543
2025-03-23 11:20:22.570,-2.2228495337953045
2025-03-23 11:20:22.579,0.8030311956564785
2025-03-23 11:20:22.579,2.7669332353526315
2025-03-23 11:20:22.579,1.9226562653194952
2025-03-23 11:20:22.579,-0.6366833937662576
2025-03-23 11:20:22.579,-2.20648226207438
2025-03-23 11:20:22.589,-1.18738711483642
2025-03-23 11:20:22.589,1.2751126683533676
2025-03-23 11:20:22.589,2.3992344515444715
2025-03-23 11:20:22.589,0.7546017408196279
2025-03-23 11:20:22.590,-1.9923667089557628
2025-03-23 11:20:22.599,-2.793761501496218
2025-03-23 11:20:22.599,-0.6983798574367448
2025-03-23 11:20:22.599,1.987162110719395
2025-03-23 11:20:22.599,2.3723349309375865
2025-03-23 11:20:22.600,0.3530547591359803
2025-03-23 11:20:22.609,-1.4122103313572232
2025-03-23 11:20:22.609,-0.9086167411983455
2025-03-23 11:20:22.609,0.7265257131670735
2025-03-23 11:20:22.609,0.8862058752945486
2025-03-23 11:20:22.610,-0.8005871979304209
2025-03-23 11:20:22.619,-1.874982052020926
2025-03-23 11:20:22.619,-0.5645556793100017
2025-03-23 11:20:22.619,1.598713798396474
2025-03-23 11:20:22.619,1.9480253527276195
2025-03-23 11:20:22.620,0.38057501210931566
2025-03-23 11:20:22.627,-0.924662153055164
2025-03-23 11:20:22.627,-0.9220850926847326
2025-03-23 11:20:22.628,-0.6609284747702915
2025-03-23 11:20:22.628,-0.722857672101599
2025-03-23 11:20:22.628,-0.02659978910580571
2025-03-23 11:20:22.637,1.751214881218412
2025-03-23 11:20:22.637,2.4747680999143142
2025-03-23 11:20:22.637,0.19227544105309438
2025-03-23 11:20:22.638,-3.335753657327481
2025-03-23 11:20:22.638,-3.882884022385576
2025-03-23 11:20:22.647,-0.0030676536497092344
2025-03-23 11:20:22.647,4.501151818102032
2025-03-23 11:20:22.648,4.637565430833825
2025-03-23 11:20:22.648,0.12014813371684308
2025-03-23 11:20:22.648,-4.2847549155492235
2025-03-23 11:20:22.657,-4.353134182164433
2025-03-23 11:20:22.657,-0.8159202284973561
2025-03-23 11:20:22.657,2.4417122183976003
2025-03-23 11:20:22.658,3.0831822101863122
2025-03-23 11:20:22.658,1.8198404336027996
2025-03-23 11:20:22.667,0.1611467250037598
2025-03-23 11:20:22.667,-1.3510213486668112
2025-03-23 11:20:22.667,-2.436053429279968
2025-03-23 11:20:22.667,-2.2292371921183216
2025-03-23 11:20:22.677,-0.2701741391370202
2025-03-23 11:20:22.677,2.2167583431349374
2025-03-23 11:20:22.677,3.0637733284316426
2025-03-23 11:20:22.678,1.3688007132791955
2025-03-23 11:20:22.678,-1.4383896229100317
2025-03-23 11:20:22.687,-2.903226555743268
2025-03-23 11:20:22.687,-1.8363574137172227
2025-03-23 11:20:22.687,0.6535158372674758
2025-03-23 11:20:22.688,2.305598340112248
2025-03-23 11:20:22.688,1.8691770715917004
2025-03-23 11:20:22.697,0.08357190539901137
2025-03-23 11:20:22.697,-1.4188000205034796
2025-03-23 11:20:22.697,-1.7435711520906734
2025-03-23 11:20:22.697,-1.0178948293351635
2025-03-23 11:20:22.698,0.3084023522925669
2025-03-23 11:20:22.707,1.6075706148176327
2025-03-23 11:20:22.707,1.8545244771668976
2025-03-23 11:20:22.707,0.4373571779565926
2025-03-23 11:20:22.707,-1.5600642567407694
2025-03-23 11:20:22.707,-1.9635931454881985
2025-03-23 11:20:22.717,-0.13803594846179754
2025-03-23 11:20:22.717,1.750429601844264
2025-03-23 11:20:22.717,1.2149049155251475
2025-03-23 11:20:22.717,-1.1163765612272578
2025-03-23 11:20:22.718,-1.987901684487778
2025-03-23 11:20:22.727,0.09725530811487054
2025-03-23 11:20:22.727,2.433343784661433
2025-03-23 11:20:22.727,1.531677594741238
2025-03-23 11:20:22.727,-1.7916799475381502
2025-03-23 11:20:22.727,-2.970856855796125
2025-03-23 11:20:22.737,0.1298905518936543
2025-03-23 11:20:22.737,3.7156906131697314
2025-03-23 11:20:22.737,2.653428694420038
2025-03-23 11:20:22.737,-2.463170233773603
2025-03-23 11:20:22.738,-5.407806903983658
2025-03-23 11:20:22.747,-2.0351138409470266
2025-03-23 11:20:22.747,4.20237701635199
2025-03-23 11:20:22.747,6.181083926395198
2025-03-23 11:20:22.747,1.6237877907273115
2025-03-23 11:20:22.748,-4.363621116058486
2025-03-23 11:20:22.757,-5.522256443192121
2025-03-23 11:20:22.757,-1.431744872495478
2025-03-23 11:20:22.757,2.9298997669571683
2025-03-23 11:20:22.757,3.5208908203949143
2025-03-23 11:20:22.758,1.205118134903767
2025-03-23 11:20:22.765,-0.7197328351489607
2025-03-23 11:20:22.765,-0.9942359416381004
2025-03-23 11:20:22.766,-0.8940208010438653
2025-03-23 11:20:22.766,-1.2174628561896468
2025-03-23 11:20:22.766,-0.9386087966743994
2025-03-23 11:20:22.775,0.6363674240601747
2025-03-23 11:20:22.775,2.068117527672863
2025-03-23 11:20:22.776,1.5224992652540776
2025-03-23 11:20:22.776,-0.48776552602114864
2025-03-23 11:20:22.776,-1.6228501270041877
2025-03-23 11:20:22.785,-0.8398447384815336
2025-03-23 11:20:22.785,0.42097863331085716
2025-03-23 11:20:22.786,0.5065530663107033
2025-03-23 11:20:22.786,-0.25195973381020537
2025-03-23 11:20:22.795,-0.4265050410181353
2025-03-23 11:20:22.795,0.2796643911482752
2025-03-23 11:20:22.795,0.8044413519293869
2025-03-23 11:20:22.796,0.45390396250220266
2025-03-23 11:20:22.796,-0.2088658404194843
2025-03-23 11:20:22.805,-0.4197364916213042
2025-03-23 11:20:22.805,-0.3378836480769979
2025-03-23 11:20:22.805,-0.5205751691680426
2025-03-23 11:20:22.805,-0.7150075953270056
2025-03-23 11:20:22.805,-0.05597511097150968
2025-03-23 11:20:22.815,1.3714001256508281
2025-03-23 11:20:22.815,2.018443173067374
2025-03-23 11:20:22.815,0.6803022118998585
2025-03-23 11:20:22.815,-1.6317611502823273
2025-03-23 11:20:22.816,-2.6202235858245615
2025-03-23 11:20:22.825,-1.436379620630539
2025-03-23 11:20:22.825,0.5269251448546926
2025-03-23 11:20:22.825,1.7065157134959401
2025-03-23 11:20:22.826,2.0401819246136594
2025-03-23 11:20:22.826,1.9568719210154202
2025-03-23 11:20:22.835,0.8877758193703601
2025-03-23 11:20:22.835,-1.7551795249399627
2025-03-23 11:20:22.835,-4.4582188540675975
2025-03-23 11:20:22.835,-4.186956551021265
2025-03-23 11:20:22.836,0.05436239537107679
2025-03-23 11:20:22.845,5.126183440476362
2025-03-23 11:20:22.845,6.377373670641862
2025-03-23 11:20:22.845,2.403317213514109
2025-03-23 11:20:22.845,-3.4137773406007197
2025-03-23 11:20:22.846,-6.197879199615317
2025-03-23 11:20:22.855,-4.042952942926182
2025-03-23 11:20:22.855,0.7177994899035636
2025-03-23 11:20:22.855,4.048093516957579
2025-03-23 11:20:22.855,3.7262792107413376
2025-03-23 11:20:22.856,0.8706711931478526
2025-03-23 11:20:22.865,-1.4740950807959687
2025-03-23 11:20:22.865,-1.414713112412947
2025-03-23 11:20:22.865,-0.12518025498796267
2025-03-23 11:20:22.865,-0.25684781701871673
2025-03-23 11:20:22.865,-2.1465326216504836
2025-03-23 11:20:22.875,-2.6760567240975774
2025-03-23 11:20:22.875,0.7265765414806316
2025-03-23 11:20:22.875,5.567873859730877
2025-03-23 11:20:22.875,6.00784362928858
2025-03-23 11:20:22.875,-0.039128642665123586
2025-03-23 11:20:22.883,-7.219839206473253
2025-03-23 11:20:22.883,-7.9924012652936005
2025-03-23 11:20:22.884,-1.171902706700575
2025-03-23 11:20:22.884,6.44496733612929
2025-03-23 11:20:22.884,7.481251356138993
2025-03-23 11:20:22.893,1.798517578303323
2025-03-23 11:20:22.893,-4.109148904566081
2025-03-23 11:20:22.894,-4.791115552502744
2025-03-23 11:20:22.894,-1.2346221740463326
2025-03-23 11:20:22.903,1.7071510197816266
2025-03-23 11:20:22.903,1.5147288726281363
2025-03-23 11:20:22.903,-0.009764545228133886
2025-03-23 11:20:22.904,-0.25866898265560734
2025-03-23 11:20:22.904,0.7541628086993064
2025-03-23 11:20:22.913,1.1513195141703159
2025-03-23 11:20:22.913,0.04664579400349007
2025-03-23 11:20:22.913,-1.5116319330408843
2025-03-23 11:20:22.914,-2.001523232695333
2025-03-23 11:20:22.914,-0.9300182067743125
2025-03-23 11:20:22.923,1.012910675764144
2025-03-23 11:20:22.923,2.5724164128352203
2025-03-23 11:20:22.923,2.5686758900368383
2025-03-23 11:20:22.923,0.5686547560718986
2025-03-23 11:20:22.924,-2.468243300398419
2025-03-23 11:20:22.933,-4.3173786346973255
2025-03-23 11:20:22.933,-2.997081574696044
2025-03-23 11:20:22.933,1.1872045485759697
2025-03-23 11:20:22.934,5.182117131780018
2025-03-23 11:20:22.934,5.449617527509847
2025-03-23 11:20:22.943,1.2226082890346892
2025-03-23 11:20:22.943,-4.43965006964186
2025-03-23 11:20:22.943,-6.971086625266943
2025-03-23 11:20:22.943,-4.005304248075479
2025-03-23 11:20:22.944,2.48138213516611
2025-03-23 11:20:22.953,7.283629459592966
2025-03-23 11:20:22.953,6.033537666098448
2025-03-23 11:20:22.953,-0.5762916323976657
2025-03-23 11:20:22.953,-6.670858741514464
2025-03-23 11:20:22.954,-6.497895499797795
2025-03-23 11:20:22.963,-0.35255744664597255
2025-03-23 11:20:22.963,5.526601965670446
2025-03-23 11:20:22.963,5.469560836954965
2025-03-23 11:20:22.963,0.22856568798217003
2025-03-23 11:20:22.964,-4.263250325855254
2025-03-23 11:20:22.973,-3.5944424155543464
2025-03-23 11:20:22.973,0.6058870710467874
2025-03-23 11:20:22.973,3.167315021457462
2025-03-23 11:20:22.973,1.556238640364231
2025-03-23 11:20:22.973,-1.6144493446344057
2025-03-23 11:20:22.983,-2.298957569009011
2025-03-23 11:20:22.983,0.04839881327800921
2025-03-23 11:20:22.983,2.2621930437064366
2025-03-23 11:20:22.983,1.623410910860772
2025-03-23 11:20:22.983,-0.9979213004870854
2025-03-23 11:20:22.993,-2.429377077166554
2025-03-23 11:20:22.993,-0.9686012104015576
2025-03-23 11:20:22.993,1.6585891435974036
2025-03-23 11:20:22.993,2.248132010182208
2025-03-23 11:20:22.993,-0.05257131271477958
2025-03-23 11:20:23.003,-2.4382994931561046
2025-03-23 11:20:23.003,-1.7209591882819775
2025-03-23 11:20:23.003,1.460817431562954
2025-03-23 11:20:23.003,3.1433575485925287
2025-03-23 11:20:23.004,1.0785031563959073
2025-03-23 11:20:23.013,-2.31684844093952
2025-03-23 11:20:23.013,-3.13150196215036
2025-03-23 11:20:23.013,-0.8247612411641929
2025-03-23 11:20:23.013,1.6600335920232754
2025-03-23 11:20:23.013,1.9843759681840858
2025-03-23 11:20:23.023,0.8210023195640831
2025-03-23 11:20:23.023,0.041113863183236926
2025-03-23 11:20:23.023,0.04069731312286522
2025-03-23 11:20:23.023,-0.2476722363555341
2025-03-23 11:20:23.023,-1.3525248296699939
2025-03-23 11:20:23.033,-2.1900050683950036
2025-03-23 11:20:23.033,-1.1909684898359802
2025-03-23 11:20:23.033,1.6197501843650606
2025-03-23 11:20:23.033,3.873854743665751
2025-03-23 11:20:23.033,2.808145193136356
2025-03-23 11:20:23.043,-1.440123311083625
2025-03-23 11:20:23.043,-4.966981854838767
2025-03-23 11:20:23.043,-3.7677180947160274
2025-03-23 11:20:23.043,1.4742086206286973
2025-03-23 11:20:23.043,5.444364522467558
2025-03-23 11:20:23.051,3.877186196072234
2025-03-23 11:20:23.051,-1.5758520564063319
2025-03-23 11:20:23.052,-5.183422758639315
2025-03-23 11:20:23.052,-3.4693352302554907
2025-03-23 11:20:23.052,1.3595665845686156
2025-03-23 11:20:23.061,4.312431555302532
2025-03-23 11:20:23.061,2.903389171087756
2025-03-23 11:20:23.062,-0.9048707161354519
2025-03-23 11:20:23.062,-3.308869160941376
2025-03-23 11:20:23.071,-2.4164250036940955
2025-03-23 11:20:23.071,0.45980822483376455
2025-03-23 11:20:23.071,2.523113400004558
2025-03-23 11:20:23.072,2.1273891347648597
2025-03-23 11:20:23.072,-0.03173530501646232
2025-03-23 11:20:23.081,-1.880065894522912
2025-03-23 11:20:23.081,-1.9276153519110766
2025-03-23 11:20:23.082,-0.43177190197253196
2025-03-23 11:20:23.082,1.1182868740411798
2025-03-23 11:20:23.082,1.5011943312811524
2025-03-23 11:20:23.091,0.7562266238636642
2025-03-23 11:20:23.091,-0.16882176158928988
2025-03-23 11:20:23.091,-0.568102730239188
2025-03-23 11:20:23.091,-0.6167141032888943
2025-03-23 11:20:23.092,-0.7891768130874489
2025-03-23 11:20:23.101,-0.8398750477720688
2025-03-23 11:20:23.101,0.05661852069569734
2025-03-23 11:20:23.101,1.7482321516621167
2025-03-23 11:20:23.101,2.338531364963702
2025-03-23 11:20:23.102,0.24130771481563407
2025-03-23 11:20:23.111,-2.9607919064544723
2025-03-23 11:20:23.111,-3.390484124130115
2025-03-23 11:20:23.111,0.2948337030031001
2025-03-23 11:20:23.111,4.264790180226169
2025-03-23 11:20:23.112,3.6063285382030186
2025-03-23 11:20:23.121,-1.364787428310811
2025-03-23 11:20:23.121,-4.985234275197066
2025-03-23 11:20:23.121,-3.0136237326181585
2025-03-23 11:20:23.122,2.211036599780975
2025-03-23 11:20:23.122,4.713888413626663
2025-03-23 11:20:23.131,2.013492478895303
2025-03-23 11:20:23.131,-2.3879084885315507
2025-03-23 11:20:23.131,-3.619527968889201
2025-03-23 11:20:23.131,-0.9934713636490351
2025-03-23 11:20:23.132,1.951154651567999
2025-03-23 11:20:23.141,2.110584259876291
2025-03-23 11:20:23.141,0.1261730828903529
2025-03-23 11:20:23.141,-1.1999622529616174
2025-03-23 11:20:23.141,-0.6425643995170746
2025-03-23 11:20:23.141,0.4164718977663522
2025-03-23 11:20:23.151,0.4072402632037393
2025-03-23 11:20:23.151,-0.31040430593690027
2025-03-23 11:20:23.151,-0.3982412154471182
2025-03-23 11:20:23.151,0.25897056673763624
2025-03-23 11:20:23.152,0.47541867206535915
2025-03-23 11:20:23.161,-0.2339074628844395
2025-03-23 11:20:23.161,-0.7555449134349633
2025-03-23 11:20:23.161,-0.039366469664329974
2025-03-23 11:20:23.161,1.1506064752938208
2025-03-23 11:20:23.161,1.1148675616383206
2025-03-23 11:20:23.169,-0.3964674977399302
2025-03-23 11:20:23.169,-1.688216044589149
2025-03-23 11:20:23.170,-1.2624132374312087
2025-03-23 11:20:23.170,0.3321779038247551
2025-03-23 11:20:23.170,1.3319119098294507
2025-03-23 11:20:23.179,0.9463875479636756
2025-03-23 11:20:23.179,0.03050166262765
2025-03-23 11:20:23.180,-0.29275316969591525
2025-03-23 11:20:23.180,-0.015793150084292377
2025-03-23 11:20:23.189,0.009864750380960428
2025-03-23 11:20:23.189,-0.6151910240371055
2025-03-23 11:20:23.189,-1.1875620091088694
2025-03-23 11:20:23.190,-0.7047803966115198
2025-03-23 11:20:23.190,0.7827455623791606
2025-03-23 11:20:23.199,1.9195004422714639
2025-03-23 11:20:23.199,1.4327506845008775
2025-03-23 11:20:23.199,-0.3315004013169263
2025-03-23 11:20:23.199,-1.6863242931646398
2025-03-23 11:20:23.199,-1.4870953922195955
2025-03-23 11:20:23.209,-0.25934521046773384
2025-03-23 11:20:23.209,0.7436695814345777
2025-03-23 11:20:23.209,0.9996720141352032
2025-03-23 11:20:23.209,0.7432454641448751
2025-03-23 11:20:23.209,0.13029688463503464
2025-03-23 11:20:23.219,-0.7190522249825689
2025-03-23 11:20:23.219,-1.104236247354627
2025-03-23 11:20:23.219,-0.2918308328497883
2025-03-23 11:20:23.219,1.1065369645162733
2025-03-23 11:20:23.220,1.3561216425131248
2025-03-23 11:20:23.229,-0.1830716728169474
2025-03-23 11:20:23.229,-1.8573056384875497
2025-03-23 11:20:23.229,-1.6070810380630087
2025-03-23 11:20:23.229,0.41358631514848154
2025-03-23 11:20:23.230,2.0626184006341575
2025-03-23 11:20:23.239,1.8635520983922045
2025-03-23 11:20:23.239,0.422491950587747
2025-03-23 11:20:23.239,-0.8974822211524613
2025-03-23 11:20:23.239,-1.6263171599713415
2025-03-23 11:20:23.239,-1.9145429660051743
2025-03-23 11:20:23.249,-1.457830739442274
2025-03-23 11:20:23.249,0.2199429696577857
2025-03-23 11:20:23.249,2.5075363627120812
2025-03-23 11:20:23.249,3.633349004830139
2025-03-23 11:20:23.250,2.271197101787127
2025-03-23 11:20:23.257,-1.0288389225710786
2025-03-23 11:20:23.257,-4.113378756153852
2025-03-23 11:20:23.258,-4.736630170283263
2025-03-23 11:20:23.258,-2.069769503482447
2025-03-23 11:20:23.258,2.4975344686882135
2025-03-23 11:20:23.267,5.815628511522556
2025-03-23 11:20:23.267,5.0745172766451505
2025-03-23 11:20:23.268,0.3765107219933621
2025-03-23 11:20:23.268,-4.810557987810656
2025-03-23 11:20:23.268,-6.402223408166124
2025-03-23 11:20:23.279,-3.2524984612477477
2025-03-23 11:20:23.279,2.0122358503268267
2025-03-23 11:20:23.279,5.509391555276837
2025-03-23 11:20:23.279,5.159881018083544
2025-03-23 11:20:23.279,1.5836660841883636
2025-03-23 11:20:23.287,-2.9428996222107635
2025-03-23 11:20:23.287,-5.720556533397913
2025-03-23 11:20:23.288,-4.70376957248869
2025-03-23 11:20:23.288,-0.042100943770970234
2025-03-23 11:20:23.297,5.036280593567094
2025-03-23 11:20:23.297,6.226920138853957
2025-03-23 11:20:23.297,2.245601015646913
2025-03-23 11:20:23.297,-3.421485020891769
2025-03-23 11:20:23.298,-5.748580622622425
2025-03-23 11:20:23.307,-3.1234981193398017
2025-03-23 11:20:23.307,1.4300938439625925
2025-03-23 11:20:23.307,3.7631735313493695
2025-03-23 11:20:23.308,2.632382769965771
2025-03-23 11:20:23.308,0.149522403009244
2025-03-23 11:20:23.317,-1.120958527256518
2025-03-23 11:20:23.317,-0.8737707414005085
2025-03-23 11:20:23.317,-0.7195735265220792
2025-03-23 11:20:23.318,-1.4912452161334386
2025-03-23 11:20:23.318,-1.7398067802911727
2025-03-23 11:20:23.327,0.29734909990695313
2025-03-23 11:20:23.327,3.5332455038881867
2025-03-23 11:20:23.327,4.260865242875078
2025-03-23 11:20:23.327,0.5136527758601503
2025-03-23 11:20:23.328,-4.605798328858235
2025-03-23 11:20:23.337,-5.608522510046342
2025-03-23 11:20:23.337,-0.9738321457015011
2025-03-23 11:20:23.337,4.573331279147445
2025-03-23 11:20:23.337,5.234033585267627
2025-03-23 11:20:23.338,0.7588307611447848
2025-03-23 11:20:23.347,-3.5729232795146095
2025-03-23 11:20:23.347,-3.3950981307634382
2025-03-23 11:20:23.347,0.006335628123135539
2025-03-23 11:20:23.347,2.095296731851318
2025-03-23 11:20:23.348,0.8985099076699194
2025-03-23 11:20:23.357,-1.1337105152518179
2025-03-23 11:20:23.357,-0.8905640211758199
2025-03-23 11:20:23.357,1.3091299359936117
2025-03-23 11:20:23.357,2.36147190037987
2025-03-23 11:20:23.358,0.5163293915746867
2025-03-23 11:20:23.367,-2.39341460618508
2025-03-23 11:20:23.367,-3.2057783403815248
2025-03-23 11:20:23.367,-1.0540731649481998
2025-03-23 11:20:23.367,1.9639460043404406
2025-03-23 11:20:23.368,3.26624665405812
2025-03-23 11:20:23.377,2.1146550082807476
2025-03-23 11:20:23.377,-0.35370438219635375
2025-03-23 11:20:23.377,-2.4546407974919036
2025-03-23 11:20:23.377,-2.9653098850386677
2025-03-23 11:20:23.377,-1.5539000459623047
2025-03-23 11:20:23.387,0.9655131573288476
2025-03-23 11:20:23.387,2.8674727965480797
2025-03-23 11:20:23.387,2.6918225167671466
2025-03-23 11:20:23.387,0.603267116373054
2025-03-23 11:20:23.388,-1.61722258527031
2025-03-23 11:20:23.397,-2.277169507344123
2025-03-23 11:20:23.397,-1.3868932448733093
2025-03-23 11:20:23.397,-0.2283892298535407
2025-03-23 11:20:23.397,0.485560665163803
2025-03-23 11:20:23.398,1.1633434413008394
2025-03-23 11:20:23.405,1.833981255744156
2025-03-23 11:20:23.405,1.3483776560769123
2025-03-23 11:20:23.406,-0.7841602938309883
2025-03-23 11:20:23.406,-2.65835527289358
2025-03-23 11:20:23.406,-1.8470037592494761
2025-03-23 11:20:23.415,1.0790721534705694
2025-03-23 11:20:23.415,2.6937317383177266
2025-03-23 11:20:23.416,0.9904797830741605
2025-03-23 11:20:23.416,-1.907390710444106
2025-03-23 11:20:23.416,-2.3972913222769985
2025-03-23 11:20:23.425,0.09031060599441779
2025-03-23 11:20:23.425,2.535027211638044
2025-03-23 11:20:23.426,2.1364493911945317
2025-03-23 11:20:23.426,-0.4839842939813308
2025-03-23 11:20:23.426,-2.3570367561401695
2025-03-23 11:20:23.435,-1.7265008317174124
2025-03-23 11:20:23.436,0.26542748508696123
2025-03-23 11:20:23.436,1.3441431253413927
2025-03-23 11:20:23.436,0.7859381327701591
2025-03-23 11:20:23.436,-0.13850963957388324
2025-03-23 11:20:23.445,-0.10738794614650733
2025-03-23 11:20:23.445,0.557513577803809
2025-03-23 11:20:23.446,0.5201914224083862
2025-03-23 11:20:23.446,-0.5726844979733906
2025-03-23 11:20:23.455,-1.4692132226773968
2025-03-23 11:20:23.455,-0.9831743793459921
2025-03-23 11:20:23.455,0.35033405197654643
2025-03-23 11:20:23.456,1.0451108224976602
2025-03-23 11:20:23.456,0.7442354042889596
2025-03-23 11:20:23.456,0.46025795903431077
2025-03-23 11:20:23.465,0.6608672009501979
2025-03-23 11:20:23.465,0.3707387776605053
2025-03-23 11:20:23.466,-1.0854542328215377
2025-03-23 11:20:23.466,-2.4235403716907027
2025-03-23 11:20:23.475,-1.7212437299987722
2025-03-23 11:20:23.475,0.8789099860091302
2025-03-23 11:20:23.475,2.9453233884593266
2025-03-23 11:20:23.475,2.473862058156925
2025-03-23 11:20:23.476,0.04741057302014359
2025-03-23 11:20:23.476,-2.0618761777761594
2025-03-23 11:20:23.485,-2.318080968531299
2025-03-23 11:20:23.486,-0.9735883431946951
2025-03-23 11:20:23.486,0.7504330192499736
2025-03-23 11:20:23.486,1.739850307697831
2025-03-23 11:20:23.486,1.4181140858191328
2025-03-23 11:20:23.495,-0.01119635919802088
2025-03-23 11:20:23.495,-1.4450169322422133
2025-03-23 11:20:23.496,-1.578908280253849
2025-03-23 11:20:23.496,-0.1829292942865784
2025-03-23 11:20:23.505,1.5076571799718337
2025-03-23 11:20:23.505,1.916261168356193
2025-03-23 11:20:23.505,0.583125237142453
2025-03-23 11:20:23.506,-1.4369310959605062
2025-03-23 11:20:23.506,-2.424133136462399
2025-03-23 11:20:23.515,-1.3971392732203916
2025-03-23 11:20:23.515,0.9237193052345043
2025-03-23 11:20:23.515,2.5490771477226675
2025-03-23 11:20:23.516,1.9988319962608192
2025-03-23 11:20:23.516,-0.18643095519283243
2025-03-23 11:20:23.525,-1.9180307641095429
2025-03-23 11:20:23.525,-1.7169752335195256
2025-03-23 11:20:23.525,-0.23891701949648037
2025-03-23 11:20:23.525,0.6689020907422969
2025-03-23 11:20:23.526,0.32981783843170903
2025-03-23 11:20:23.535,-0.04080222925883707
2025-03-23 11:20:23.535,0.6566577559414645
2025-03-23 11:20:23.535,1.5342583187444228
2025-03-23 11:20:23.535,0.9353117283335465
2025-03-23 11:20:23.536,-0.9613244462234366
2025-03-23 11:20:23.545,-2.232621319597468
2025-03-23 11:20:23.545,-1.8888209512795713
2025-03-23 11:20:23.545,-0.8130657046073069
2025-03-23 11:20:23.546,0.3307767136732737
2025-03-23 11:20:23.546,2.1354346919588876
2025-03-23 11:20:23.555,4.178106913552022
2025-03-23 11:20:23.555,3.665874513942773
2025-03-23 11:20:23.555,-1.1339768050049703
2025-03-23 11:20:23.555,-6.837629808076609
2025-03-23 11:20:23.556,-7.2824761281702335
2025-03-23 11:20:23.565,-0.8497365217414559
2025-03-23 11:20:23.565,6.646919371008647
2025-03-23 11:20:23.565,8.038118266004966
2025-03-23 11:20:23.565,2.64085411660345
2025-03-23 11:20:23.566,-3.657388944177596
2025-03-23 11:20:23.575,-5.4777583057529595
2025-03-23 11:20:23.575,-3.0538394764404435
2025-03-23 11:20:23.575,-0.06949390796845578
2025-03-23 11:20:23.575,1.3826774947842706
2025-03-23 11:20:23.575,1.994176004798248
2025-03-23 11:20:23.583,2.4498403787030383
2025-03-23 11:20:23.583,1.8077420267063122
2025-03-23 11:20:23.584,-0.5782563957530028
2025-03-23 11:20:23.584,-2.9946039497141737
2025-03-23 11:20:23.584,-2.832962541820452
2025-03-23 11:20:23.593,0.031591518511088545
2025-03-23 11:20:23.593,2.6440236464730456
2025-03-23 11:20:23.594,2.286779586645605
2025-03-23 11:20:23.594,-0.40410450625249916
2025-03-23 11:20:23.594,-2.3548018060147102
2025-03-23 11:20:23.603,-1.6283024599200577
2025-03-23 11:20:23.603,0.7106744523853876
2025-03-23 11:20:23.604,2.176016510412997
2025-03-23 11:20:23.604,1.5377751137214486
2025-03-23 11:20:23.604,-0.3118763265066861
2025-03-23 11:20:23.613,-1.6387526331296085
2025-03-23 11:20:23.613,-1.5344973494300196
2025-03-23 11:20:23.614,-0.4278611811356843
2025-03-23 11:20:23.614,0.6355358304312821
2025-03-23 11:20:23.623,0.999861561534205
2025-03-23 11:20:23.623,0.7837883793101246
2025-03-23 11:20:23.623,0.4410935312723948
2025-03-23 11:20:23.624,0.08351072171265554
2025-03-23 11:20:23.624,-0.5538236881178128
2025-03-23 11:20:23.633,-1.340977382672203
2025-03-23 11:20:23.633,-1.3086607790774065
2025-03-23 11:20:23.633,0.2829463309286653
2025-03-23 11:20:23.634,2.31301769368624
2025-03-23 11:20:23.634,2.2837223346425386
2025-03-23 11:20:23.643,-0.6063226180979622
2025-03-23 11:20:23.643,-3.5577413863561755
2025-03-23 11:20:23.643,-2.886903244208744
2025-03-23 11:20:23.643,1.2653464795338705
2025-03-23 11:20:23.644,4.505497575529904
2025-03-23 11:20:23.653,3.2272563329592745
2025-03-23 11:20:23.653,-1.1464915043973782
2025-03-23 11:20:23.653,-4.095357373061338
2025-03-23 11:20:23.653,-3.2786653570703947
2025-03-23 11:20:23.654,-0.38123989443924616
2025-03-23 11:20:23.663,1.8885141305526403
2025-03-23 11:20:23.663,2.725700190147915
2025-03-23 11:20:23.663,2.5718718965725422
2025-03-23 11:20:23.663,1.2634476871566804
2025-03-23 11:20:23.664,-1.4324652621022866
2025-03-23 11:20:23.673,-3.9828925515464304
2025-03-23 11:20:23.673,-3.7416927353834644
2025-03-23 11:20:23.673,-0.16760091817037467
2025-03-23 11:20:23.674,3.7578794295866196
2025-03-23 11:20:23.674,4.413729376888505
2025-03-23 11:20:23.683,1.4296521543857965
2025-03-23 11:20:23.683,-2.1552554514411604
2025-03-23 11:20:23.683,-3.366301061844974
2025-03-23 11:20:23.683,-2.013931366689542
2025-03-23 11:20:23.684,0.07072314550413067
2025-03-23 11:20:23.693,1.4485970834406978
2025-03-23 11:20:23.693,1.9555302278339142
2025-03-23 11:20:23.693,1.7096107289976756
2025-03-23 11:20:23.693,0.45984821394368747
2025-03-23 11:20:23.694,-1.557672815477831
2025-03-23 11:20:23.703,-2.8426717416020737
2025-03-23 11:20:23.703,-1.7813106949313007
2025-03-23 11:20:23.703,1.2173373868880408
2025-03-23 11:20:23.704,3.446120935013827
2025-03-23 11:20:23.704,2.4432287240765413
2025-03-23 11:20:23.713,-1.1696958741124799
2025-03-23 11:20:23.713,-3.8578092907271904
2025-03-23 11:20:23.713,-2.662603658678574
2025-03-23 11:20:23.713,1.424358227724294
2025-03-23 11:20:23.713,4.124777151072635
2025-03-23 11:20:23.723,2.444362497796423
2025-03-23 11:20:23.723,-1.7962720843873887
2025-03-23 11:20:23.723,-3.903015180052779
2025-03-23 11:20:23.723,-1.7379166188000617
2025-03-23 11:20:23.724,1.9331253309025653
2025-03-23 11:20:23.731,3.0084261697927612
2025-03-23 11:20:23.731,0.8701442912995896
2025-03-23 11:20:23.732,-1.4934861700746138
2025-03-23 11:20:23.732,-1.6232571658188375
2025-03-23 11:20:23.732,-0.301821966672309
2025-03-23 11:20:23.743,0.2933309562441259
2025-03-23 11:20:23.743,-0.1296892422061815
2025-03-23 11:20:23.743,0.08359398360997797
2025-03-23 11:20:23.743,1.533214038404278
2025-03-23 11:20:23.744,2.2426880351245266
2025-03-23 11:20:23.751,0.177163126990231
2025-03-23 11:20:23.751,-3.360487453891951
2025-03-23 11:20:23.752,-4.367428732574457
2025-03-23 11:20:23.752,-0.7876361466446655
2025-03-23 11:20:23.752,4.369726823300024
2025-03-23 11:20:23.761,5.747955272995434
2025-03-23 11:20:23.761,1.5532424467738917
2025-03-23 11:20:23.761,-4.173230198397656
2025-03-23 11:20:23.762,-5.77496386370616
2025-03-23 11:20:23.771,-1.9916231302392369
2025-03-23 11:20:23.771,3.0107497475613556
2025-03-23 11:20:23.771,4.481701088237521
2025-03-23 11:20:23.772,1.952102014256102
2025-03-23 11:20:23.772,-1.255928275745807
2025-03-23 11:20:23.781,-2.421818083902962
2025-03-23 11:20:23.781,-1.8522039799592842
2025-03-23 11:20:23.782,-0.9586843638397485
2025-03-23 11:20:23.782,0.19900755673157103
2025-03-23 11:20:23.782,2.042400496081924
2025-03-23 11:20:23.791,3.259668887409196
2025-03-23 11:20:23.791,1.711196342160747
2025-03-23 11:20:23.791,-2.1460576830053957
2025-03-23 11:20:23.792,-4.642865366986466
2025-03-23 11:20:23.792,-2.913313331186006
2025-03-23 11:20:23.801,1.487398768926832
2025-03-23 11:20:23.801,4.240156269953661
2025-03-23 11:20:23.801,3.083512730170415
2025-03-23 11:20:23.802,-0.14800971115594808
2025-03-23 11:20:23.802,-2.197442242019278
2025-03-23 11:20:23.811,-1.9776808692016639
2025-03-23 11:20:23.811,-0.9484505168653214
2025-03-23 11:20:23.811,-0.5341020918206838
2025-03-23 11:20:23.811,-0.23848271517727782
2025-03-23 11:20:23.812,1.1383287361071528
2025-03-23 11:20:23.821,2.9614737835995797
2025-03-23 11:20:23.821,2.722559908368129
2025-03-23 11:20:23.821,-0.7129385824188622
2025-03-23 11:20:23.821,-4.570342425556661
2025-03-23 11:20:23.822,-4.425585052619672
2025-03-23 11:20:23.831,0.4696587195485156
2025-03-23 11:20:23.831,5.319461215946364
2025-03-23 11:20:23.831,4.691367212753667
2025-03-23 11:20:23.831,-0.9383079923902391
2025-03-23 11:20:23.832,-5.241630363988537
2025-03-23 11:20:23.841,-3.4144932182071748
2025-03-23 11:20:23.841,1.983132601406549
2025-03-23 11:20:23.841,4.293346701294033
2025-03-23 11:20:23.841,1.1221714171034833
2025-03-23 11:20:23.841,-2.9721012626557197
2025-03-23 11:20:23.851,-2.7163328747752695
2025-03-23 11:20:23.851,1.1728336742580079
2025-03-23 11:20:23.851,3.3865600168515044
2025-03-23 11:20:23.851,1.0980224054063092
2025-03-23 11:20:23.852,-2.661699585699905
2025-03-23 11:20:23.861,-3.1723251143643014
2025-03-23 11:20:23.861,0.09061179513597331
2025-03-23 11:20:23.861,3.142221641862323
2025-03-23 11:20:23.861,2.553285373310406
2025-03-23 11:20:23.862,-0.6672560135709648
2025-03-23 11:20:23.871,-2.7573375442351153
2025-03-23 11:20:23.871,-1.7600290421852016
2025-03-23 11:20:23.871,0.6780049549263626
2025-03-23 11:20:23.872,1.804005041982617
2025-03-23 11:20:23.872,0.9208985141611892
2025-03-23 11:20:23.879,-0.4214090524796854
2025-03-23 11:20:23.879,-0.7189693679797694
2025-03-23 11:20:23.880,-0.141358318413407
2025-03-23 11:20:23.880,0.19325348559053232
2025-03-23 11:20:23.889,-0.09678123241422028
2025-03-23 11:20:23.889,-0.31299201288183964
2025-03-23 11:20:23.890,0.06008982461494181
2025-03-23 11:20:23.890,0.44971283600080897
2025-03-23 11:20:23.890,0.0760837544374802
2025-03-23 11:20:23.899,-0.6299927767309068
2025-03-23 11:20:23.899,-0.3818529802107783
2025-03-23 11:20:23.900,0.9651647379243594
2025-03-23 11:20:23.900,1.6485966852651828
2025-03-23 11:20:23.900,0.11243198010309552
2025-03-23 11:20:23.909,-2.4700149569670025
2025-03-23 11:20:23.909,-2.9606566251361026
2025-03-23 11:20:23.910,0.01203487407597359
2025-03-23 11:20:23.910,3.852651930138692
2025-03-23 11:20:23.910,4.375920219243872
2025-03-23 11:20:23.910,0.37311390931119887
2025-03-23 11:20:23.919,-4.676679535244832
2025-03-23 11:20:23.919,-5.749390329054197
2025-03-23 11:20:23.920,-1.2777889201262909
2025-03-23 11:20:23.920,4.880162626809042
2025-03-23 11:20:23.929,6.752790578872413
2025-03-23 11:20:23.929,2.1439096274294775
2025-03-23 11:20:23.930,-4.682767260687344
2025-03-23 11:20:23.930,-6.923298367160512
2025-03-23 11:20:23.930,-2.33999487449285
2025-03-23 11:20:23.939,4.170085570438102
2025-03-23 11:20:23.939,5.9279247109907285
2025-03-23 11:20:23.939,1.8432651686721582
2025-03-23 11:20:23.939,-2.941287784550288
2025-03-23 11:20:23.940,-3.6587072243634284
2025-03-23 11:20:23.949,-1.1571463954432282
2025-03-23 11:20:23.949,0.5837822212871887
2025-03-23 11:20:23.950,0.35606314614109535
2025-03-23 11:20:23.950,0.5657296456707455
2025-03-23 11:20:23.950,2.435132745706924
2025-03-23 11:20:23.959,3.2571821002479644
2025-03-23 11:20:23.959,0.17086283052304144
2025-03-23 11:20:23.959,-4.835346506320797
2025-03-23 11:20:23.960,-6.185993307830738
2025-03-23 11:20:23.960,-1.3335785424812074
2025-03-23 11:20:23.969,5.549865932141664
2025-03-23 11:20:23.969,7.649621380780289
2025-03-23 11:20:23.969,2.7553891540054254
2025-03-23 11:20:23.969,-4.477004091924089
2025-03-23 11:20:23.970,-7.415422428241611
2025-03-23 11:20:23.979,-3.8910328889981267
2025-03-23 11:20:23.979,2.342180609217512
2025-03-23 11:20:23.979,5.809267895700571
2025-03-23 11:20:23.979,4.294960021759174
2025-03-23 11:20:23.980,-0.056383595095825356
2025-03-23 11:20:23.989,-3.5195612981420314
2025-03-23 11:20:23.989,-3.9506871325903985
2025-03-23 11:20:23.989,-1.7102116127215072
2025-03-23 11:20:23.990,1.30989160756713
2025-03-23 11:20:23.990,3.048351040693716
2025-03-23 11:20:23.999,2.443204404441052
2025-03-23 11:20:23.999,0.21620319198607224
2025-03-23 11:20:23.999,-1.5995473298487846
2025-03-23 11:20:23.999,-1.6425901690059619
2025-03-23 11:20:24.000,-0.7002999630985736
2025-03-23 11:20:24.009,-0.44233196747444553
2025-03-23 11:20:24.009,-0.7900259801180697
2025-03-23 11:20:24.009,0.09611352543034929
2025-03-23 11:20:24.009,2.6064256256082654
2025-03-23 11:20:24.010,3.9352235767623673
2025-03-23 11:20:24.019,1.2495230687764851
2025-03-23 11:20:24.019,-3.872122108696274
2025-03-23 11:20:24.019,-6.1460832997959844
2025-03-23 11:20:24.019,-2.5253667024515223
2025-03-23 11:20:24.020,3.7356807229070013
2025-03-23 11:20:24.027,6.27025198132637
2025-03-23 11:20:24.027,2.670864820503942
2025-03-23 11:20:24.028,-2.8393843850097378
2025-03-23 11:20:24.028,-4.3907751971518225
2025-03-23 11:20:24.028,-1.2071602286969367
2025-03-23 11:20:24.037,2.034149292467988
2025-03-23 11:20:24.037,1.4836824037406182
2025-03-23 11:20:24.038,-1.1526281200377655
2025-03-23 11:20:24.038,-1.5005368748756347
2025-03-23 11:20:24.038,1.1972886395651323
2025-03-23 11:20:24.047,3.086070688126608
2025-03-23 11:20:24.047,1.1428920897930137
2025-03-23 11:20:24.048,-2.619399868980117
2025-03-23 11:20:24.048,-3.759726502981338
2025-03-23 11:20:24.057,-0.996506669108151
2025-03-23 11:20:24.057,2.5034937651729496
2025-03-23 11:20:24.057,3.1728692303487365
2025-03-23 11:20:24.058,0.9213669530006996
2025-03-23 11:20:24.058,-1.458360367643464
2025-03-23 11:20:24.067,-1.7798470236793087
2025-03-23 11:20:24.067,-0.5027818435931047
2025-03-23 11:20:24.067,0.4621261860594093
2025-03-23 11:20:24.068,0.19279309816966797
2025-03-23 11:20:24.068,-0.42194689084778203
2025-03-23 11:20:24.077,-0.12464664979733607
2025-03-23 11:20:24.077,0.9494967687564402
2025-03-23 11:20:24.077,1.3945349441679746
2025-03-23 11:20:24.078,0.36966151014513265
2025-03-23 11:20:24.078,-1.2361704268480886
2025-03-23 11:20:24.087,-1.817764509502114
2025-03-23 11:20:24.087,-0.8603205632724237
2025-03-23 11:20:24.088,0.7029645195211736
2025-03-23 11:20:24.088,1.6402288847236097
2025-03-23 11:20:24.088,1.4127005933481114
2025-03-23 11:20:24.097,0.2511892658837032
2025-03-23 11:20:24.097,-1.1194855770002052
2025-03-23 11:20:24.097,-1.799966683464397
2025-03-23 11:20:24.098,-1.253807254485522
2025-03-23 11:20:24.098,0.23447372950529188
2025-03-23 11:20:24.107,1.6904970601961866
2025-03-23 11:20:24.107,2.0574541859643234
2025-03-23 11:20:24.107,0.8995213864955763
2025-03-23 11:20:24.108,-1.0399828170029053
2025-03-23 11:20:24.108,-2.082736995988335
2025-03-23 11:20:24.117,-1.2023159648502573
2025-03-23 11:20:24.117,0.46188934510106106
2025-03-23 11:20:24.117,0.6734019309358859
2025-03-23 11:20:24.118,-0.7650973386901624
2025-03-23 11:20:24.118,-1.1297838389310175
2025-03-23 11:20:24.127,1.579178312185612
2025-03-23 11:20:24.127,4.838034071310292
2025-03-23 11:20:24.127,3.66922643515229
2025-03-23 11:20:24.127,-2.770673177387032
2025-03-23 11:20:24.128,-8.544972095555044
2025-03-23 11:20:24.137,-6.871547546248658
2025-03-23 11:20:24.137,1.7248611909831484
2025-03-23 11:20:24.137,9.159704743982221
2025-03-23 11:20:24.138,8.343900343551985
2025-03-23 11:20:24.138,0.6521420335850827
2025-03-23 11:20:24.147,-6.2043775032717985
2025-03-23 11:20:24.147,-6.738364185393412
2025-03-23 11:20:24.147,-2.456675825772036
2025-03-23 11:20:24.147,1.5952035896199492
2025-03-23 11:20:24.148,2.8387737706371228
2025-03-23 11:20:24.157,2.4805395078308896
2025-03-23 11:20:24.157,2.179344680063414
2025-03-23 11:20:24.157,1.5226594331524894
2025-03-23 11:20:24.157,-0.7014447388984841
2025-03-23 11:20:24.158,-3.82788841078245
2025-03-23 11:20:24.167,-5.011198691903642
2025-03-23 11:20:24.167,-2.037739365898236
2025-03-23 11:20:24.167,3.5934555071968237
2025-03-23 11:20:24.168,7.0237754578750575
2025-03-23 11:20:24.168,4.473324486177641
2025-03-23 11:20:24.177,-2.357785717069316
2025-03-23 11:20:24.177,-7.189904643548425
2025-03-23 11:20:24.177,-5.385037330968175
2025-03-23 11:20:24.177,1.0068914327302956
2025-03-23 11:20:24.178,5.416434287100447
2025-03-23 11:20:24.187,4.051336780337378
2025-03-23 11:20:24.187,-0.2300069692171094
2025-03-23 11:20:24.187,-2.147391356058336
2025-03-23 11:20:24.187,-0.7504597031869867
2025-03-23 11:20:24.187,0.20647602968622866
2025-03-23 11:20:24.195,-1.5781406286609991
2025-03-23 11:20:24.196,-3.223621735491603
2025-03-23 11:20:24.196,-0.8267262163835052
2025-03-23 11:20:24.196,4.322248973441267
2025-03-23 11:20:24.196,6.357701040936215
2025-03-23 11:20:24.205,1.940095358416548
2025-03-23 11:20:24.205,-5.118509611816728
2025-03-23 11:20:24.206,-7.599736702930138
2025-03-23 11:20:24.206,-2.802160327640835
2025-03-23 11:20:24.215,4.356723205996322
2025-03-23 11:20:24.215,6.611949930137346
2025-03-23 11:20:24.215,2.2179560239276035
2025-03-23 11:20:24.216,-3.389477123928856
2025-03-23 11:20:24.216,-4.044681666101459
2025-03-23 11:20:24.225,0.09144652768498851
2025-03-23 11:20:24.225,3.209614685912895
2025-03-23 11:20:24.225,1.2962321984089429
2025-03-23 11:20:24.226,-2.932496782589783
2025-03-23 11:20:24.226,-3.673580629133736
2025-03-23 11:20:24.235,0.49338462399232824
2025-03-23 11:20:24.235,4.743775021382414
2025-03-23 11:20:24.235,3.9349506765254216
2025-03-23 11:20:24.236,-1.1716737792930363
2025-03-23 11:20:24.236,-4.899168872058241
2025-03-23 11:20:24.245,-3.3374411088521283
2025-03-23 11:20:24.245,1.3683749872958328
2025-03-23 11:20:24.246,3.8645840216373064
2025-03-23 11:20:24.246,1.8187096532121902
2025-03-23 11:20:24.246,-1.7687709059076673
2025-03-23 11:20:24.255,-2.506765809404458
2025-03-23 11:20:24.255,0.14354997108274828
2025-03-23 11:20:24.255,2.5160127342969476
2025-03-23 11:20:24.256,1.4657411194423018
2025-03-23 11:20:24.256,-1.7240391790701877
2025-03-23 11:20:24.265,-3.052471680025152
2025-03-23 11:20:24.265,-0.8830954862917264
2025-03-23 11:20:24.266,2.11483167425387
2025-03-23 11:20:24.266,2.5481009069273473
2025-03-23 11:20:24.266,0.500470793828882
2025-03-23 11:20:24.275,-1.1468493710819132
2025-03-23 11:20:24.275,-0.8479146869976462
2025-03-23 11:20:24.275,-0.00351237806872548
2025-03-23 11:20:24.275,-0.2674608302537345
2025-03-23 11:20:24.276,-1.0394129856763858
2025-03-23 11:20:24.285,-0.7051532782186651
2025-03-23 11:20:24.285,0.7551443084613542
2025-03-23 11:20:24.285,1.7679503172276776
2025-03-23 11:20:24.286,1.3599082675759455
2025-03-23 11:20:24.286,0.14916672018005867
2025-03-23 11:20:24.295,-0.8409626270520437
2025-03-23 11:20:24.295,-1.3351176484560359
2025-03-23 11:20:24.295,-1.4581389062147232
2025-03-23 11:20:24.295,-1.0330654640741175
2025-03-23 11:20:24.296,0.13011864631604025
2025-03-23 11:20:24.305,1.562587444325857
2025-03-23 11:20:24.305,2.326400652303273
2025-03-23 11:20:24.305,1.8477568460878466
2025-03-23 11:20:24.305,0.2757367722145458
2025-03-23 11:20:24.306,-1.7630994259525368
2025-03-23 11:20:24.315,-3.28962583954685
2025-03-23 11:20:24.315,-3.060885801110252
2025-03-23 11:20:24.315,-0.4484029563448786
2025-03-23 11:20:24.316,3.2606291444459723
2025-03-23 11:20:24.316,5.0498045378719
2025-03-23 11:20:24.325,2.7469493539398595
2025-03-23 11:20:24.325,-2.2387377628083502
2025-03-23 11:20:24.325,-5.488696464852185
2025-03-23 11:20:24.325,-3.7784318670012924
2025-03-23 11:20:24.326,1.3256393671982925
2025-03-23 11:20:24.333,4.833448027007582
2025-03-23 11:20:24.333,3.537002155302163
2025-03-23 11:20:24.334,-0.7916845653970388
2025-03-23 11:20:24.334,-3.72784863452097
2025-03-23 11:20:24.334,-2.938422018214624
2025-03-23 11:20:24.345,0.1061684513945006
2025-03-23 11:20:24.345,2.4669870753638485
2025-03-23 11:20:24.345,2.569462544125723
2025-03-23 11:20:24.345,0.834581549923421
2025-03-23 11:20:24.346,-1.2323312193034195
2025-03-23 11:20:24.355,-2.1020434072631082
2025-03-23 11:20:24.355,-1.2375375803688338
2025-03-23 11:20:24.355,0.3358268643876385
2025-03-23 11:20:24.355,0.9815151288037546
2025-03-23 11:20:24.356,0.37345262980748456
2025-03-23 11:20:24.365,-0.1274276650234562
2025-03-23 11:20:24.365,0.5218853620181236
2025-03-23 11:20:24.365,1.3862588171275403
2025-03-23 11:20:24.365,0.7700122337966863
2025-03-23 11:20:24.365,-1.2834442162340949
2025-03-23 11:20:24.375,-2.750809242758243
2025-03-23 11:20:24.375,-2.0044144377478226
2025-03-23 11:20:24.375,0.3995858401447691
2025-03-23 11:20:24.375,2.57437219606189
2025-03-23 11:20:24.376,3.1388618637167744
2025-03-23 11:20:24.383,1.7859233536983314
2025-03-23 11:20:24.384,-0.9559906786436476
2025-03-23 11:20:24.384,-3.4969200134644747
2025-03-23 11:20:24.384,-3.5685176741958458
2025-03-23 11:20:24.393,-0.5189423811802291
2025-03-23 11:20:24.393,2.939340598373936
2025-03-23 11:20:24.394,3.1351348213810617
2025-03-23 11:20:24.394,0.08324027957727051
2025-03-23 11:20:24.394,-2.077221281990465
2025-03-23 11:20:24.403,-0.43231909729533247
2025-03-23 11:20:24.403,2.488351738265361
2025-03-23 11:20:24.404,1.8623899825722956
2025-03-23 11:20:24.404,-2.645372908125347
2025-03-23 11:20:24.404,-5.663775929055417
2025-03-23 11:20:24.413,-2.6185747843986427
2025-03-23 11:20:24.413,4.130092667495948
2025-03-23 11:20:24.413,7.469306504318568
2025-03-23 11:20:24.414,3.635811698936439
2025-03-23 11:20:24.414,-3.4878899395415996
2025-03-23 11:20:24.423,-6.852202536277442
2025-03-23 11:20:24.423,-3.886118733195504
2025-03-23 11:20:24.424,1.5401430808974972
2025-03-23 11:20:24.424,4.21627682254522
2025-03-23 11:20:24.424,2.948890268129666
2025-03-23 11:20:24.433,0.3597913740797243
2025-03-23 11:20:24.433,-1.0977731357198444
2025-03-23 11:20:24.433,-1.3189634118993205
2025-03-23 11:20:24.434,-1.1851974899968498
2025-03-23 11:20:24.434,-0.8185219649189589
2025-03-23 11:20:24.443,0.0223581434547456
2025-03-23 11:20:24.443,0.8145003059397854
2025-03-23 11:20:24.444,0.7326035000289648
2025-03-23 11:20:24.444,0.04661861178642308
2025-03-23 11:20:24.444,-0.013996987539119855
2025-03-23 11:20:24.453,0.882567173555073
2025-03-23 11:20:24.453,1.3063889398792548
2025-03-23 11:20:24.453,-0.1565313212853448
2025-03-23 11:20:24.454,-2.625120062306776
2025-03-23 11:20:24.454,-3.369758569036258
2025-03-23 11:20:24.463,-0.8558207107334849
2025-03-23 11:20:24.463,3.1366216838272525
2025-03-23 11:20:24.463,4.928003607540308
2025-03-23 11:20:24.464,2.5513275387490193
2025-03-23 11:20:24.464,-2.1466769761386133
2025-03-23 11:20:24.473,-5.079297295085284
2025-03-23 11:20:24.473,-3.7054901494950645
2025-03-23 11:20:24.474,0.5994321767914462
2025-03-23 11:20:24.474,3.8998812196778547
2025-03-23 11:20:24.474,3.4794872888384165
2025-03-23 11:20:24.483,0.3014067916819476
2025-03-23 11:20:24.483,-2.2820433546304537
2025-03-23 11:20:24.484,-2.099355460614282
2025-03-23 11:20:24.484,-0.14249261376779254
2025-03-23 11:20:24.484,1.0410078205239683
2025-03-23 11:20:24.493,0.4231057921427102
2025-03-23 11:20:24.493,-0.6271913587317941
2025-03-23 11:20:24.494,-0.4293451707191011
2025-03-23 11:20:24.494,0.8176136955447921
2025-03-23 11:20:24.494,1.4065719553965264
2025-03-23 11:20:24.503,0.3366335069872658
2025-03-23 11:20:24.503,-1.4078486430702597
2025-03-23 11:20:24.503,-1.8861481308754928
2025-03-23 11:20:24.504,-0.33464933597557117
2025-03-23 11:20:24.504,1.7906313882963643
2025-03-23 11:20:24.511,2.074405557878033
2025-03-23 11:20:24.512,-0.1934501121090453
2025-03-23 11:20:24.512,-2.7055090014325316
2025-03-23 11:20:24.512,-2.2707856394870607
2025-03-23 11:20:24.512,1.3041500520940104
2025-03-23 11:20:24.521,4.242066685681039
2025-03-23 11:20:24.521,2.761836157810859
2025-03-23 11:20:24.522,-2.1897613703018646
2025-03-23 11:20:24.522,-5.43889577748411
2025-03-23 11:20:24.531,-3.3291978434577487
2025-03-23 11:20:24.531,2.0132776868613615
2025-03-23 11:20:24.532,5.115243101801703
2025-03-23 11:20:24.532,3.297988048078352
2025-03-23 11:20:24.532,-0.8344474987116339
2025-03-23 11:20:24.541,-3.019563855959397
2025-03-23 11:20:24.541,-2.111948136261256
2025-03-23 11:20:24.542,-0.4110175694749064
2025-03-23 11:20:24.542,0.007270162484905189
2025-03-23 11:20:24.542,-0.17201568264517703
2025-03-23 11:20:24.551,0.8386969694325874
2025-03-23 11:20:24.551,2.6799346875435277
2025-03-23 11:20:24.551,2.712166075379668
2025-03-23 11:20:24.552,-0.41616804253381695
2025-03-23 11:20:24.552,-4.1269982783583545
2025-03-23 11:20:24.561,-4.233228763138812
2025-03-23 11:20:24.561,-0.023499162546972707
2025-03-23 11:20:24.561,4.2296941565494
2025-03-23 11:20:24.562,3.8707671665659404
2025-03-23 11:20:24.562,-0.5720924717081783
2025-03-23 11:20:24.571,-3.791716952518645
2025-03-23 11:20:24.571,-1.9801975514965022
2025-03-23 11:20:24.571,2.513516812958021
2025-03-23 11:20:24.572,3.9204924336096547
2025-03-23 11:20:24.572,0.021200602917605532
2025-03-23 11:20:24.581,-4.964159716285977
2025-03-23 11:20:24.581,-5.0534524026223435
2025-03-23 11:20:24.581,0.603475742948467
2025-03-23 11:20:24.582,6.477846614284553
2025-03-23 11:20:24.582,6.489446866425327
2025-03-23 11:20:24.591,0.44462923112724
2025-03-23 11:20:24.591,-5.904121100896761
2025-03-23 11:20:24.591,-6.921699627845844
2025-03-23 11:20:24.592,-2.4109376396597932
2025-03-23 11:20:24.592,3.1531373172516433
2025-03-23 11:20:24.601,5.555021253468886
2025-03-23 11:20:24.601,4.086727570997033
2025-03-23 11:20:24.601,0.6409143116554978
2025-03-23 11:20:24.602,-2.696309733407765
2025-03-23 11:20:24.602,-4.539947888373167
2025-03-23 11:20:24.611,-3.9215122810672707
2025-03-23 11:20:24.611,-0.6768652094546302
2025-03-23 11:20:24.611,3.5698493476810738
2025-03-23 11:20:24.611,5.716739697793337
2025-03-23 11:20:24.612,3.543241715937155
2025-03-23 11:20:24.621,-1.7803631478867468
2025-03-23 11:20:24.621,-5.899514494256139
2025-03-23 11:20:24.621,-4.941333605701971
2025-03-23 11:20:24.622,0.38274011521507484
2025-03-23 11:20:24.622,4.882675041959791
2025-03-23 11:20:24.629,4.146060300010563
2025-03-23 11:20:24.630,-0.4677425518803364
2025-03-23 11:20:24.630,-3.3864456673244283
2025-03-23 11:20:24.630,-1.58227157550422
2025-03-23 11:20:24.630,1.9019225134303952
2025-03-23 11:20:24.639,2.2508054642317976
2025-03-23 11:20:24.639,-0.8197337165878806
2025-03-23 11:20:24.640,-3.118165394404589
2025-03-23 11:20:24.640,-1.8030283641088343
2025-03-23 11:20:24.651,1.2263447726682686
2025-03-23 11:20:24.651,2.455481837057424
2025-03-23 11:20:24.651,1.3496588960824243
2025-03-23 11:20:24.651,0.18092607856769433
2025-03-23 11:20:24.652,0.1894840973427751
2025-03-23 11:20:24.652,0.01616286458966175
2025-03-23 11:20:24.659,-1.5910588687382008
2025-03-23 11:20:24.660,-3.1586033173633954
2025-03-23 11:20:24.660,-2.075893994625427
2025-03-23 11:20:24.660,1.6257072090074667
2025-03-23 11:20:24.660,4.56549853032831
2025-03-23 11:20:24.669,3.621239898558199
2025-03-23 11:20:24.670,-0.5010154596053935
2025-03-23 11:20:24.670,-3.9452001431700903
2025-03-23 11:20:24.670,-3.707013834190845
2025-03-23 11:20:24.679,-0.5097431674156935
2025-03-23 11:20:24.679,2.2857817738483375
2025-03-23 11:20:24.680,2.3086508163908745
2025-03-23 11:20:24.680,0.4158298810634712
2025-03-23 11:20:24.680,-0.7795451614298275
2025-03-23 11:20:24.689,-0.20299777505618855
2025-03-23 11:20:24.689,0.6223163376144372
2025-03-23 11:20:24.689,-0.02715346704637858
2025-03-23 11:20:24.690,-1.5375999917481504
2025-03-23 11:20:24.690,-1.7337976988143042
2025-03-23 11:20:24.699,0.1346624984815205
2025-03-23 11:20:24.699,2.2373649407715193
2025-03-23 11:20:24.699,2.28841101076287
2025-03-23 11:20:24.700,0.17545199277989884
2025-03-23 11:20:24.700,-1.9839454010245852
2025-03-23 11:20:24.709,-2.1448552805721053
2025-03-23 11:20:24.709,-0.3676117678228711
2025-03-23 11:20:24.709,1.3969440615980173
2025-03-23 11:20:24.710,1.4170935726695124
2025-03-23 11:20:24.710,-0.009823097053209523
2025-03-23 11:20:24.719,-1.0343247181445396
2025-03-23 11:20:24.719,-0.5202114103516895
2025-03-23 11:20:24.720,0.6780002898364906
2025-03-23 11:20:24.720,1.028090478822106
2025-03-23 11:20:24.720,0.2889574298640774
2025-03-23 11:20:24.729,-0.6028643724986349
2025-03-23 11:20:24.729,-1.1218159562867607
2025-03-23 11:20:24.729,-1.4131998276942634
2025-03-23 11:20:24.730,-1.068592536334963
2025-03-23 11:20:24.730,0.7751885731723064
2025-03-23 11:20:24.739,3.3983956521977587
2025-03-23 11:20:24.739,3.9464883576249448
2025-03-23 11:20:24.739,0.49992116484733046
2025-03-23 11:20:24.739,-4.659646870356369
2025-03-23 11:20:24.740,-6.45961554078709
2025-03-23 11:20:24.749,-2.4133684034783633
2025-03-23 11:20:24.749,4.153293394571896
2025-03-23 11:20:24.749,7.121630888798335
2025-03-23 11:20:24.750,3.8089181879272536
2025-03-23 11:20:24.750,-2.366340062932246
2025-03-23 11:20:24.759,-5.624044005226689
2025-03-23 11:20:24.759,-3.721483933166083
2025-03-23 11:20:24.759,0.44459167162545943
2025-03-23 11:20:24.760,2.7748350769070598
2025-03-23 11:20:24.760,2.2832855793207236
2025-03-23 11:20:24.769,0.9051408973962557
2025-03-23 11:20:24.769,0.14756007361913856
2025-03-23 11:20:24.769,-0.43408630366415946
2025-03-23 11:20:24.769,-1.4476299712525853
2025-03-23 11:20:24.770,-2.0074132182801745
2025-03-23 11:20:24.779,-0.920160158484435
2025-03-23 11:20:24.779,1.2267130966377442
2025-03-23 11:20:24.779,2.3832764947793255
2025-03-23 11:20:24.779,1.4363912223090316
2025-03-23 11:20:24.780,-0.5753460844201448
2025-03-23 11:20:24.787,-1.8103014864056797
2025-03-23 11:20:24.788,-1.4665920265876686
2025-03-23 11:20:24.788,-0.05969498821173912
2025-03-23 11:20:24.788,1.3317486070903652
2025-03-23 11:20:24.788,1.6116266228700433
2025-03-23 11:20:24.797,0.2665651154872257
2025-03-23 11:20:24.798,-1.7059898214182774
2025-03-23 11:20:24.798,-2.0720173083111173
2025-03-23 11:20:24.798,0.19008057270421821
2025-03-23 11:20:24.798,2.9001388453491375
2025-03-23 11:20:24.807,2.63681995119839
2025-03-23 11:20:24.808,-0.888948422477484
2025-03-23 11:20:24.808,-3.8941586458341857
2025-03-23 11:20:24.808,-2.9756161519877975
2025-03-23 11:20:24.817,0.7082141884853249
2025-03-23 11:20:24.817,3.177836335238637
2025-03-23 11:20:24.818,2.6630037417539225
2025-03-23 11:20:24.818,0.9095395467917424
2025-03-23 11:20:24.818,-0.2745183336982504
2025-03-23 11:20:24.827,-1.3507710838833689
2025-03-23 11:20:24.827,-2.944105798984993
2025-03-23 11:20:24.828,-3.4132129389919723
2025-03-23 11:20:24.828,-0.7149609705930866
2025-03-23 11:20:24.828,3.822766322933333
2025-03-23 11:20:24.837,5.787983810570528
2025-03-23 11:20:24.837,2.600942247862624
2025-03-23 11:20:24.837,-3.037808747999237
2025-03-23 11:20:24.838,-5.783489653430821
2025-03-23 11:20:24.838,-3.352546091000532
2025-03-23 11:20:24.847,1.3919510453061887
2025-03-23 11:20:24.847,3.958445543932645
2025-03-23 11:20:24.848,2.7673919350131624
2025-03-23 11:20:24.848,-0.15623682231010172
2025-03-23 11:20:24.848,-1.983314986768344
2025-03-23 11:20:24.857,-1.6209857686759404
2025-03-23 11:20:24.857,0.0397522371297086
2025-03-23 11:20:24.857,1.2965827115567476
2025-03-23 11:20:24.858,0.9711090254371133
2025-03-23 11:20:24.858,-0.6218854846114968
2025-03-23 11:20:24.867,-1.7885224138962443
2025-03-23 11:20:24.867,-1.0870724730608543
2025-03-23 11:20:24.867,0.9398822870603617
2025-03-23 11:20:24.868,2.1620418368771297
2025-03-23 11:20:24.868,1.2726528515696343
2025-03-23 11:20:24.877,-0.6530209362173872
2025-03-23 11:20:24.877,-1.488985172668316
2025-03-23 11:20:24.877,-0.6772755666614845
2025-03-23 11:20:24.877,0.22469827774158935
2025-03-23 11:20:24.878,-0.15180127102453456
2025-03-23 11:20:24.887,-0.9090800173761702
2025-03-23 11:20:24.887,-0.10840646669811975
2025-03-23 11:20:24.887,2.0842492920175886
2025-03-23 11:20:24.888,2.8679301240571107
2025-03-23 11:20:24.888,0.3045110586299897
2025-03-23 11:20:24.895,-3.5253150925365873
2025-03-23 11:20:24.896,-4.314262614341497
2025-03-23 11:20:24.896,-0.5927511637468424
2025-03-23 11:20:24.896,4.112558019652262
2025-03-23 11:20:24.896,4.877579242602981
2025-03-23 11:20:24.905,0.7534304589158918
2025-03-23 11:20:24.905,-4.089128113504669
2025-03-23 11:20:24.906,-4.719410850749446
2025-03-23 11:20:24.906,-0.6457881679886495
2025-03-23 11:20:24.915,3.735855210594435
2025-03-23 11:20:24.915,3.9599662506394027
2025-03-23 11:20:24.916,0.25566922278111015
2025-03-23 11:20:24.916,-3.046630704282617
2025-03-23 11:20:24.916,-2.5797261815941166
2025-03-23 11:20:24.925,0.49141331655972476
2025-03-23 11:20:24.926,2.2668850098438655
2025-03-23 11:20:24.926,0.7879216531984299
2025-03-23 11:20:24.926,-1.8427421936140602
2025-03-23 11:20:24.926,-2.06590618175568
2025-03-23 11:20:24.935,0.8711010763995959
2025-03-23 11:20:24.935,3.757017837833707
2025-03-23 11:20:24.936,2.825276410242611
2025-03-23 11:20:24.936,-1.7890194730918743
2025-03-23 11:20:24.936,-5.57792300854943
2025-03-23 11:20:24.945,-4.191991004467888
2025-03-23 11:20:24.945,1.6587298152554215
2025-03-23 11:20:24.946,6.4497950183525266
2025-03-23 11:20:24.946,5.367456154556468
2025-03-23 11:20:24.946,-0.6448866391754542
2025-03-23 11:20:24.955,-5.805085006801857
2025-03-23 11:20:24.955,-5.471389985552253
2025-03-23 11:20:24.956,-0.6969911172446509
2025-03-23 11:20:24.956,3.515374884556771
2025-03-23 11:20:24.956,3.8761734205045517
2025-03-23 11:20:24.965,1.624959433743252
2025-03-23 11:20:24.965,-0.24567761344019184
2025-03-23 11:20:24.965,-0.9017350161078768
2025-03-23 11:20:24.966,-1.5345216423796546
2025-03-23 11:20:24.966,-2.3558351030682334
2025-03-23 11:20:24.975,-1.8538515448962158
2025-03-23 11:20:24.975,0.5515607768468315
2025-03-23 11:20:24.975,2.8157230034018226
2025-03-23 11:20:24.976,2.537958040040545
2025-03-23 11:20:24.976,0.18112670997748898
2025-03-23 11:20:24.985,-1.411858373797687
2025-03-23 11:20:24.985,-0.7297782526640763
2025-03-23 11:20:24.985,0.512853382718107
2025-03-23 11:20:24.985,-0.066889033438019
2025-03-23 11:20:24.986,-1.9923933855622942
2025-03-23 11:20:24.995,-2.350559905301773
2025-03-23 11:20:24.995,0.23210766387703582
2025-03-23 11:20:24.995,3.382352604212552
2025-03-23 11:20:24.996,3.6330241790158393
2025-03-23 11:20:24.996,0.6068081642065533
2025-03-23 11:20:25.005,-2.569911263024932
2025-03-23 11:20:25.005,-2.9877312765068025
2025-03-23 11:20:25.005,-1.054718612033557
2025-03-23 11:20:25.006,0.6099438327806751
2025-03-23 11:20:25.006,0.6334914290587801
2025-03-23 11:20:25.015,0.20909661703725013
2025-03-23 11:20:25.015,0.9036303295349656
2025-03-23 11:20:25.016,2.1303960804449322
2025-03-23 11:20:25.016,1.720299691529788
2025-03-23 11:20:25.016,-1.0931309842523451
2025-03-23 11:20:25.025,-4.094605865679115
2025-03-23 11:20:25.025,-4.05282837152903
2025-03-23 11:20:25.025,-0.1913757020199963
2025-03-23 11:20:25.026,4.5685415810017345
2025-03-23 11:20:25.026,6.008265321435239
2025-03-23 11:20:25.033,2.4923842291223766
2025-03-23 11:20:25.034,-3.302032082556708
2025-03-23 11:20:25.034,-6.581363201559494
2025-03-23 11:20:25.034,-4.661341239286491
2025-03-23 11:20:25.034,0.7338248365879647
2025-03-23 11:20:25.043,5.186841264536319
2025-03-23 11:20:25.044,5.4455618546039375
2025-03-23 11:20:25.044,1.8139198721411147
2025-03-23 11:20:25.044,-2.5818230197889576
2025-03-23 11:20:25.044,-4.4654059585652215
2025-03-23 11:20:25.053,-2.8358081433672666
2025-03-23 11:20:25.054,0.4568240036039427
2025-03-23 11:20:25.054,2.441131121372426
2025-03-23 11:20:25.054,1.790089560574218
2025-03-23 11:20:25.054,-0.021733228758249956
2025-03-23 11:20:25.063,-0.5961734087636161
2025-03-23 11:20:25.064,0.48440919881802236
2025-03-23 11:20:25.064,1.2337049878728206
2025-03-23 11:20:25.064,-0.08128187872463893
2025-03-23 11:20:25.073,-2.4865174324733363
2025-03-23 11:20:25.073,-3.1553720802917575
2025-03-23 11:20:25.074,-0.6538888078499066
2025-03-23 11:20:25.074,3.1553722184159985
2025-03-23 11:20:25.074,4.708206492008426
2025-03-23 11:20:25.083,2.213320808093922
2025-03-23 11:20:25.083,-2.4388507385710043
2025-03-23 11:20:25.084,-5.201334427403058
2025-03-23 11:20:25.084,-3.529449023096335
2025-03-23 11:20:25.084,1.1353691774211947
2025-03-23 11:20:25.093,4.53173390643873
2025-03-23 11:20:25.093,3.6145182357552073
2025-03-23 11:20:25.093,-0.35267698964213023
2025-03-23 11:20:25.094,-3.0752710906733824
2025-03-23 11:20:25.094,-1.9573595099422842
2025-03-23 11:20:25.103,0.9083289278957918
2025-03-23 11:20:25.103,1.392287835476414
2025-03-23 11:20:25.104,-1.1978744773843633
2025-03-23 11:20:25.104,-2.870430871229791
2025-03-23 11:20:25.104,-0.16873091838817017
2025-03-23 11:20:25.113,4.6037463847186215
2025-03-23 11:20:25.113,5.439853461035144
2025-03-23 11:20:25.113,0.07857879910149851
2025-03-23 11:20:25.114,-6.476128882573428
2025-03-23 11:20:25.114,-7.219712220437608
2025-03-23 11:20:25.123,-1.1058305278873781
2025-03-23 11:20:25.123,5.783711037973952
2025-03-23 11:20:25.123,7.013369772753395
2025-03-23 11:20:25.124,2.3426425964058346
2025-03-23 11:20:25.124,-3.0796054596499727
2025-03-23 11:20:25.133,-4.796205120489688
2025-03-23 11:20:25.133,-2.857720620819931
2025-03-23 11:20:25.135,-0.03942943225005344
2025-03-23 11:20:25.135,1.767697783066185
2025-03-23 11:20:25.136,2.4304265317041076
2025-03-23 11:20:25.141,2.108827316930538
2025-03-23 11:20:25.142,0.6591141797743867
2025-03-23 11:20:25.142,-1.4043716227183276
2025-03-23 11:20:25.142,-2.5804772271357743
2025-03-23 11:20:25.142,-1.7659849962739038
2025-03-23 11:20:25.153,0.36719805826942475
2025-03-23 11:20:25.153,1.9010887486413603
2025-03-23 11:20:25.153,1.600608269892951
2025-03-23 11:20:25.154,0.09015405825956561
2025-03-23 11:20:25.154,-0.9568104113032809
2025-03-23 11:20:25.161,-0.6578890243660439
2025-03-23 11:20:25.162,0.24392516653437946
2025-03-23 11:20:25.162,0.4275151890827306
2025-03-23 11:20:25.162,-0.3675672479326161
2025-03-23 11:20:25.162,-1.0644608381310652
2025-03-23 11:20:25.172,-0.5930009627036742
2025-03-23 11:20:25.172,0.8168666062004487
2025-03-23 11:20:25.172,1.8413896171261137
2025-03-23 11:20:25.172,1.3908324574162707
2025-03-23 11:20:25.172,-0.36255354228069303
2025-03-23 11:20:25.181,-2.0975443161761733
2025-03-23 11:20:25.182,-2.37935316403219
2025-03-23 11:20:25.182,-0.8152144304367698
2025-03-23 11:20:25.182,1.5305985065795695
2025-03-23 11:20:25.191,2.872523719931277
2025-03-23 11:20:25.191,2.1185621431933166
2025-03-23 11:20:25.192,-0.19405238787424317
2025-03-23 11:20:25.192,-2.3293397853678752
2025-03-23 11:20:25.192,-2.8043277961666626
2025-03-23 11:20:25.201,-1.4708074442514885
2025-03-23 11:20:25.202,0.6897362959211959
2025-03-23 11:20:25.202,2.4446257544067618
2025-03-23 11:20:25.202,2.8203044155724486
2025-03-23 11:20:25.202,1.3673182666487178
2025-03-23 11:20:25.211,-1.2705827829621996
2025-03-23 11:20:25.211,-3.218233069277488
2025-03-23 11:20:25.211,-2.735785491629352
2025-03-23 11:20:25.212,-0.07793417821945413
2025-03-23 11:20:25.212,2.5093427336164704
2025-03-23 11:20:25.221,2.9276497345344867
2025-03-23 11:20:25.221,1.0880338984164772
2025-03-23 11:20:25.221,-1.3334923292630512
2025-03-23 11:20:25.222,-2.4783137792863945
2025-03-23 11:20:25.222,-1.586102200646942
2025-03-23 11:20:25.231,0.5861561860078708
2025-03-23 11:20:25.231,2.1773457359502895
2025-03-23 11:20:25.231,1.612899163637834
2025-03-23 11:20:25.232,-0.6959732660075039
2025-03-23 11:20:25.232,-2.317226735258316
2025-03-23 11:20:25.241,-1.295290719539985
2025-03-23 11:20:25.241,1.3585099010375858
2025-03-23 11:20:25.241,2.594229460167444
2025-03-23 11:20:25.242,0.9473797530500427
2025-03-23 11:20:25.242,-1.7209987305468986
2025-03-23 11:20:25.251,-2.5829927412589253
2025-03-23 11:20:25.251,-1.040148184856482
2025-03-23 11:20:25.252,1.1713181655282234
2025-03-23 11:20:25.252,2.2721106069947914
2025-03-23 11:20:25.252,1.7768080906959858
2025-03-23 11:20:25.261,0.06360666550084067
2025-03-23 11:20:25.261,-1.991653018386196
2025-03-23 11:20:25.262,-2.8679934140837555
2025-03-23 11:20:25.262,-1.2999932138170445
2025-03-23 11:20:25.262,1.8783436038266765
2025-03-23 11:20:25.270,3.718707765136479
2025-03-23 11:20:25.270,2.1146155098874755
2025-03-23 11:20:25.270,-1.5500846931053684
2025-03-23 11:20:25.270,-3.7085130807414264
2025-03-23 11:20:25.270,-2.5033310724976356
2025-03-23 11:20:25.281,0.5125268697317205
2025-03-23 11:20:25.281,2.5616917085050317
2025-03-23 11:20:25.281,2.487332194019192
2025-03-23 11:20:25.282,1.0493890285504421
2025-03-23 11:20:25.282,-0.6179120197892967
2025-03-23 11:20:25.289,-1.8833496191497086
2025-03-23 11:20:25.290,-2.285839070829788
2025-03-23 11:20:25.290,-1.373159982948243
2025-03-23 11:20:25.290,0.6367065011668004
2025-03-23 11:20:25.290,2.4525886563992563
2025-03-23 11:20:25.299,2.6166827036764952
2025-03-23 11:20:25.300,0.9316321302582182
2025-03-23 11:20:25.300,-1.3465612160442906
2025-03-23 11:20:25.300,-2.730031884105547
2025-03-23 11:20:25.309,-2.4694183250249497
2025-03-23 11:20:25.310,-0.511259330241831
2025-03-23 11:20:25.310,2.3587210647197976
2025-03-23 11:20:25.310,3.975618736926094
2025-03-23 11:20:25.310,2.0060297242679677
2025-03-23 11:20:25.319,-2.7927020698790948
2025-03-23 11:20:25.319,-5.642590242011784
2025-03-23 11:20:25.320,-2.459297266008434
2025-03-23 11:20:25.320,4.391787340891703
2025-03-23 11:20:25.320,7.404544146658204
2025-03-23 11:20:25.329,2.3509113401462263
2025-03-23 11:20:25.329,-6.031418232443639
2025-03-23 11:20:25.330,-8.694489083643818
2025-03-23 11:20:25.330,-2.4324058796844232
2025-03-23 11:20:25.330,6.3316566307007305
2025-03-23 11:20:25.339,8.641363180076091
2025-03-23 11:20:25.339,2.71604489502037
2025-03-23 11:20:25.340,-4.8001032026910915
2025-03-23 11:20:25.340,-6.772405554102196
2025-03-23 11:20:25.340,-2.8158035765255662
2025-03-23 11:20:25.349,1.9932457943002766
2025-03-23 11:20:25.349,3.6576436940166825
2025-03-23 11:20:25.349,2.4955548371519045
2025-03-23 11:20:25.350,0.7152473164683932
2025-03-23 11:20:25.350,-0.6361895607683024
2025-03-23 11:20:25.359,-1.5796727059672575
2025-03-23 11:20:25.359,-1.8684728668429003
2025-03-23 11:20:25.360,-1.152665782029492
2025-03-23 11:20:25.360,0.1569987320676216
2025-03-23 11:20:25.360,1.1668736877520796
2025-03-23 11:20:25.369,1.4117013890216494
2025-03-23 11:20:25.369,1.0037452974695285
2025-03-23 11:20:25.369,0.22311628770293881
2025-03-23 11:20:25.370,-0.5989045860860943
2025-03-23 11:20:25.370,-1.066566088735969
2025-03-23 11:20:25.379,-0.9616435971913371
2025-03-23 11:20:25.379,-0.3927627109571952
2025-03-23 11:20:25.379,0.3447255686280906
2025-03-23 11:20:25.380,0.8293558722576312
2025-03-23 11:20:25.380,0.6104433614181535
2025-03-23 11:20:25.389,-0.2147596298670329
2025-03-23 11:20:25.389,-0.6540607497641188
2025-03-23 11:20:25.389,0.14361306529546344
2025-03-23 11:20:25.390,1.4069033013588303
2025-03-23 11:20:25.390,1.2434851390760762
2025-03-23 11:20:25.399,-0.8738730142444241
2025-03-23 11:20:25.399,-2.898762401549675
2025-03-23 11:20:25.399,-2.344404967649178
2025-03-23 11:20:25.400,0.6405617073264511
2025-03-23 11:20:25.400,3.1518341540750634
2025-03-23 11:20:25.409,2.696822107401227
2025-03-23 11:20:25.409,-0.03293941039638096
2025-03-23 11:20:25.409,-2.0393361551919154
2025-03-23 11:20:25.410,-1.4992988392982671
2025-03-23 11:20:25.410,0.29939623846066143
2025-03-23 11:20:25.417,0.826099965735301
2025-03-23 11:20:25.418,-0.45351644561556725
2025-03-23 11:20:25.418,-1.519650676922117
2025-03-23 11:20:25.418,-0.5139253562252846
2025-03-23 11:20:25.418,1.7457926723174093
2025-03-23 11:20:25.427,2.6116439431811136
2025-03-23 11:20:25.428,0.8307606304016271
2025-03-23 11:20:25.428,-1.8112142732230831
2025-03-23 11:20:25.428,-2.5493165070530064
2025-03-23 11:20:25.437,-0.8869163393162907
2025-03-23 11:20:25.438,1.0412440623721932
2025-03-23 11:20:25.438,1.2697111829186765
2025-03-23 11:20:25.438,0.1975097904884131
2025-03-23 11:20:25.438,-0.38787735132473433
2025-03-23 11:20:25.438,0.2718886342679706
2025-03-23 11:20:25.447,1.1245916747726212
2025-03-23 11:20:25.448,0.7296993049547825
2025-03-23 11:20:25.448,-0.9674967264090852
2025-03-23 11:20:25.448,-2.398168587205824
2025-03-23 11:20:25.457,-1.9385443073417603
2025-03-23 11:20:25.458,0.31768506196695934
2025-03-23 11:20:25.458,2.5622089298165767
2025-03-23 11:20:25.458,3.02058167472104
2025-03-23 11:20:25.458,1.3892995777452932
2025-03-23 11:20:25.458,-1.2692082511408171
2025-03-23 11:20:25.468,-3.307018940663001
2025-03-23 11:20:25.468,-3.1609726596786585
2025-03-23 11:20:25.468,-0.4182725732532853
2025-03-23 11:20:25.468,3.0605924843676138
2025-03-23 11:20:25.477,4.024050127539811
2025-03-23 11:20:25.477,1.1262929542410154
2025-03-23 11:20:25.478,-2.9204956106156406
2025-03-23 11:20:25.478,-3.8165999095614147
2025-03-23 11:20:25.478,-0.5879949464023914
2025-03-23 11:20:25.487,3.082935221588112
2025-03-23 11:20:25.487,3.0748444097307224
2025-03-23 11:20:25.487,-0.45228964878237693
2025-03-23 11:20:25.488,-3.4012691222676796
2025-03-23 11:20:25.488,-2.406217373213532
2025-03-23 11:20:25.497,1.5401233615930265
2025-03-23 11:20:25.497,4.062071082518815
2025-03-23 11:20:25.498,1.898170760142114
2025-03-23 11:20:25.498,-3.206574057686627
2025-03-23 11:20:25.498,-5.452820553520464
2025-03-23 11:20:25.507,-1.16292421681987
2025-03-23 11:20:25.507,5.879920335263506
2025-03-23 11:20:25.507,7.3621027346188335
2025-03-23 11:20:25.508,0.16988617264936606
2025-03-23 11:20:25.508,-8.552410628674203
2025-03-23 11:20:25.517,-8.759170387594509
2025-03-23 11:20:25.517,0.48881675049678336
2025-03-23 11:20:25.518,9.345552869718247
2025-03-23 11:20:25.518,8.504004587186138
2025-03-23 11:20:25.518,-0.34257392128849007
2025-03-23 11:20:25.527,-7.418571079263297
2025-03-23 11:20:25.527,-6.43242222362006
2025-03-23 11:20:25.528,-0.2975820422524633
2025-03-23 11:20:25.528,4.103974960989338
2025-03-23 11:20:25.528,3.6320889242596
2025-03-23 11:20:25.537,0.42538679867246154
2025-03-23 11:20:25.537,-1.8414070315101612
2025-03-23 11:20:25.538,-1.4447398330870647
2025-03-23 11:20:25.538,0.6063403536316357
2025-03-23 11:20:25.538,1.8329574014852557
2025-03-23 11:20:25.547,0.5909593170508567
2025-03-23 11:20:25.547,-2.122079743078002
2025-03-23 11:20:25.548,-3.3368132594962367
2025-03-23 11:20:25.548,-1.1294061019324833
2025-03-23 11:20:25.548,2.9903063658710765
2025-03-23 11:20:25.556,5.065327696724051
2025-03-23 11:20:25.556,2.487768833494249
2025-03-23 11:20:25.556,-2.985197960695498
2025-03-23 11:20:25.556,-6.315803218335008
2025-03-23 11:20:25.556,-3.878164847530388
2025-03-23 11:20:25.566,2.6410107817983146
2025-03-23 11:20:25.566,7.228878476118174
2025-03-23 11:20:25.566,5.018341476027727
2025-03-23 11:20:25.566,-2.560009413902247
2025-03-23 11:20:25.566,-8.258224306311655
2025-03-23 11:20:25.576,-5.889433301379262
2025-03-23 11:20:25.576,2.6853312578467
2025-03-23 11:20:25.576,8.756771545603954
2025-03-23 11:20:25.576,6.097467360035919
2025-03-23 11:20:25.576,-2.095239042054912
2025-03-23 11:20:25.586,-7.151322181278578
2025-03-23 11:20:25.586,-4.857260725804934
2025-03-23 11:20:25.586,0.6960176566268277
2025-03-23 11:20:25.586,3.1459696492611147
2025-03-23 11:20:25.586,1.5032530938771032
2025-03-23 11:20:25.597,0.10752119798171555
2025-03-23 11:20:25.597,1.6936219033093804
2025-03-23 11:20:25.597,3.166857883127896
2025-03-23 11:20:25.598,0.22433749662664015
2025-03-23 11:20:25.598,-5.347796988161671
2025-03-23 11:20:25.606,-6.610699009913039
2025-03-23 11:20:25.606,-0.5544511214615133
2025-03-23 11:20:25.606,6.8610388113169245
2025-03-23 11:20:25.606,7.225001935832639
2025-03-23 11:20:25.606,-0.12179542523342934
2025-03-23 11:20:25.615,-7.024962674491669
2025-03-23 11:20:25.616,-5.930492909200657
2025-03-23 11:20:25.616,1.5277274046452238
2025-03-23 11:20:25.616,6.779608572327504
2025-03-23 11:20:25.616,4.3899589223083915
2025-03-23 11:20:25.625,-2.2164622355906496
2025-03-23 11:20:25.626,-5.6834417715495755
2025-03-23 11:20:25.626,-3.2978231253760213
2025-03-23 11:20:25.626,1.2012536615885598
2025-03-23 11:20:25.635,3.1709245636394545
2025-03-23 11:20:25.636,2.0438482714915898
2025-03-23 11:20:25.636,0.5416158250094509
2025-03-23 11:20:25.636,0.4759336565026294
2025-03-23 11:20:25.636,0.5091971778405093
2025-03-23 11:20:25.636,-1.519061732949523
2025-03-23 11:20:25.645,-4.5141521441942105
2025-03-23 11:20:25.646,-4.194267396159487
2025-03-23 11:20:25.646,1.3317183510085873
2025-03-23 11:20:25.646,7.486284495160946
2025-03-23 11:20:25.646,7.361007237693986
2025-03-23 11:20:25.655,-0.07096464405344155
2025-03-23 11:20:25.656,-8.028828552219489
2025-03-23 11:20:25.656,-8.854162058188729
2025-03-23 11:20:25.656,-1.7551565276846515
2025-03-23 11:20:25.665,6.629493016691312
2025-03-23 11:20:25.665,8.696868594535832
2025-03-23 11:20:25.666,2.976648970957629
2025-03-23 11:20:25.666,-4.712006009353851
2025-03-23 11:20:25.666,-7.24711423170875
2025-03-23 11:20:25.675,-3.210185963854519
2025-03-23 11:20:25.676,2.6093804607510336
2025-03-23 11:20:25.676,5.021860286177123
2025-03-23 11:20:25.676,3.181581297448189
2025-03-23 11:20:25.676,-0.21776947060959015
2025-03-23 11:20:25.685,-2.432320707712222
2025-03-23 11:20:25.685,-2.6520288382548527
2025-03-23 11:20:25.686,-1.761567450575257
2025-03-23 11:20:25.686,-0.8412866067053019
2025-03-23 11:20:25.686,0.29923131013058074
2025-03-23 11:20:25.695,2.527893379851104
2025-03-23 11:20:25.695,4.8254716719245625
2025-03-23 11:20:25.695,3.8873148858016555
2025-03-23 11:20:25.696,-1.7179430854408466
2025-03-23 11:20:25.696,-7.856549016968813
2025-03-23 11:20:25.705,-8.020032657358566
2025-03-23 11:20:25.705,-0.8284203062439135
2025-03-23 11:20:25.705,7.595645186555945
2025-03-23 11:20:25.706,9.818849518941636
2025-03-23 11:20:25.706,4.485349722187037
2025-03-23 11:20:25.713,-3.317429215238021
2025-03-23 11:20:25.714,-7.8217798912631595
2025-03-23 11:20:25.714,-7.24131847763295
2025-03-23 11:20:25.714,-3.257470865454386
2025-03-23 11:20:25.714,1.9916449206743378
2025-03-23 11:20:25.724,6.894957862908713
2025-03-23 11:20:25.724,9.098637144950413
2025-03-23 11:20:25.724,5.792160783766095
2025-03-23 11:20:25.724,-2.9162344643813944
2025-03-23 11:20:25.733,-11.61330876465208
2025-03-23 11:20:25.733,-12.674480337013742
2025-03-23 11:20:25.734,-3.2407632267767332
2025-03-23 11:20:25.734,10.506646195811806
2025-03-23 11:20:25.734,16.91849832641732
2025-03-23 11:20:25.741,8.94168534175208
2025-03-23 11:20:25.742,-7.804417505233065
2025-03-23 11:20:25.742,-18.29604124229622
2025-03-23 11:20:25.742,-12.063043788052704
2025-03-23 11:20:25.751,5.519431088481278
2025-03-23 11:20:25.751,17.4714605038768
2025-03-23 11:20:25.751,12.054421967052496
2025-03-23 11:20:25.752,-4.859595567876651
2025-03-23 11:20:25.752,-15.508191617273944
2025-03-23 11:20:25.761,-9.079921595780993
2025-03-23 11:20:25.761,6.392955815019016
2025-03-23 11:20:25.761,13.134903766914826
2025-03-23 11:20:25.762,4.1333358606404635
2025-03-23 11:20:25.762,-9.049669563514788
2025-03-23 11:20:25.769,-10.671591136953737
2025-03-23 11:20:25.770,0.43789120715253127
2025-03-23 11:20:25.770,10.605376298756886
2025-03-23 11:20:25.770,8.439355471510217
2025-03-23 11:20:25.779,-2.6415131468297464
