timestamp,bandpass_and_notch
2025-03-23 11:31:04.195,-0.4202998201957151
2025-03-23 11:31:04.195,3.2496235011859764
2025-03-23 11:31:04.195,4.028332490593352
2025-03-23 11:31:04.196,-4.933671042452533
2025-03-23 11:31:04.204,-20.321679303912532
2025-03-23 11:31:04.204,-20.8420710841212
2025-03-23 11:31:04.205,7.9431521119883195
2025-03-23 11:31:04.205,43.89756418441043
2025-03-23 11:31:04.205,43.70203840279938
2025-03-23 11:31:04.213,-4.352731522570589
2025-03-23 11:31:04.213,-57.07445836946417
2025-03-23 11:31:04.213,-59.5027320015638
2025-03-23 11:31:04.213,-6.725915324414597
2025-03-23 11:31:04.221,49.65382590068271
2025-03-23 11:31:04.221,57.59308724563934
2025-03-23 11:31:04.221,17.143488098639434
2025-03-23 11:31:04.221,-27.132877031219355
2025-03-23 11:31:04.222,-37.4531991882992
2025-03-23 11:31:04.231,-16.761227483732004
2025-03-23 11:31:04.231,5.904098467611364
2025-03-23 11:31:04.231,11.729041757649238
2025-03-23 11:31:04.231,6.560449498227945
2025-03-23 11:31:04.240,4.446416499286704
2025-03-23 11:31:04.241,7.532044204518421
2025-03-23 11:31:04.241,6.617394000313685
2025-03-23 11:31:04.241,-3.2395830042162963
2025-03-23 11:31:04.241,-14.432894500196431
2025-03-23 11:31:04.250,-15.365851106488556
2025-03-23 11:31:04.250,-3.8862483940411416
2025-03-23 11:31:04.251,10.30544770048448
2025-03-23 11:31:04.251,15.662960344232268
2025-03-23 11:31:04.251,9.293761923880933
2025-03-23 11:31:04.259,-2.1701664169234984
2025-03-23 11:31:04.259,-9.906959070939845
2025-03-23 11:31:04.259,-9.88959452352242
2025-03-23 11:31:04.259,-4.06917757272166
2025-03-23 11:31:04.268,2.772649628251599
2025-03-23 11:31:04.269,6.509145258254032
2025-03-23 11:31:04.269,5.649143433458868
2025-03-23 11:31:04.269,1.7489604884639234
2025-03-23 11:31:04.269,-1.9574802150798256
2025-03-23 11:31:04.278,-3.2073735080127244
2025-03-23 11:31:04.279,-2.3154236134228348
2025-03-23 11:31:04.279,-1.016540490980402
2025-03-23 11:31:04.279,-0.17385342125519612
2025-03-23 11:31:04.279,0.6597038629334073
2025-03-23 11:31:04.288,1.7010155542390246
2025-03-23 11:31:04.288,2.0878352812289553
2025-03-23 11:31:04.289,1.0392396847941323
2025-03-23 11:31:04.289,-0.7986936358058574
2025-03-23 11:31:04.289,-1.8678516304007424
2025-03-23 11:31:04.298,-1.4260311413585613
2025-03-23 11:31:04.299,-0.24753399831753087
2025-03-23 11:31:04.299,0.46902857199124715
2025-03-23 11:31:04.299,0.464664540547294
2025-03-23 11:31:04.299,0.3762699930168424
2025-03-23 11:31:04.308,0.5694371837640713
2025-03-23 11:31:04.309,0.597978917348255
2025-03-23 11:31:04.309,0.058432406752554115
2025-03-23 11:31:04.309,-0.5416309511567489
2025-03-23 11:31:04.309,-0.4486307560264572
2025-03-23 11:31:04.318,0.006259007349705907
2025-03-23 11:31:04.319,-0.28477792017920317
2025-03-23 11:31:04.319,-1.276303520395108
2025-03-23 11:31:04.319,-1.2217692873710668
2025-03-23 11:31:04.319,0.9606088893386168
2025-03-23 11:31:04.328,3.4476691011561553
2025-03-23 11:31:04.328,3.105811480733145
2025-03-23 11:31:04.329,-0.520809102942639
2025-03-23 11:31:04.329,-4.114209317868123
2025-03-23 11:31:04.329,-4.209999755103417
2025-03-23 11:31:04.338,-1.0471399740594465
2025-03-23 11:31:04.338,2.1797260965665886
2025-03-23 11:31:04.339,3.2457035601044515
2025-03-23 11:31:04.339,2.621473935993623
2025-03-23 11:31:04.339,1.4382708223916765
2025-03-23 11:31:04.347,-0.33112073728116453
2025-03-23 11:31:04.347,-2.6727631632358015
2025-03-23 11:31:04.347,-4.024076051510234
2025-03-23 11:31:04.347,-2.7285117803108605
2025-03-23 11:31:04.347,0.5132817331214035
2025-03-23 11:31:04.358,3.1876572521732114
2025-03-23 11:31:04.358,3.797057675242307
2025-03-23 11:31:04.358,2.7785383230227647
2025-03-23 11:31:04.359,0.7809514223709032
2025-03-23 11:31:04.359,-2.1415566979782925
2025-03-23 11:31:04.367,-4.98542850292056
2025-03-23 11:31:04.367,-5.154476061438713
2025-03-23 11:31:04.367,-1.0961779231693005
2025-03-23 11:31:04.367,4.765473353144206
2025-03-23 11:31:04.367,7.315727623943986
2025-03-23 11:31:04.377,3.787712619733368
2025-03-23 11:31:04.377,-2.9169169848234415
2025-03-23 11:31:04.377,-6.7082554502145895
2025-03-23 11:31:04.377,-4.358311932594992
2025-03-23 11:31:04.386,1.2801716379322
2025-03-23 11:31:04.387,4.481219951413584
2025-03-23 11:31:04.387,2.7896029140074274
2025-03-23 11:31:04.387,-0.8124978250318136
2025-03-23 11:31:04.387,-1.9981155454997384
2025-03-23 11:31:04.396,-0.24138448526704678
2025-03-23 11:31:04.397,1.2464145580770831
2025-03-23 11:31:04.397,0.19680298232603194
2025-03-23 11:31:04.397,-1.8391719052128102
2025-03-23 11:31:04.397,-1.9401181808250947
2025-03-23 11:31:04.406,0.22233058243438952
2025-03-23 11:31:04.407,2.2466371492913484
2025-03-23 11:31:04.407,2.247088359164474
2025-03-23 11:31:04.407,0.749643067935316
2025-03-23 11:31:04.407,-0.7118365815457302
2025-03-23 11:31:04.416,-1.526695591679979
2025-03-23 11:31:04.416,-1.8680440557320055
2025-03-23 11:31:04.417,-1.5620160887225432
2025-03-23 11:31:04.417,-0.2229897314523142
2025-03-23 11:31:04.417,1.633360499257069
2025-03-23 11:31:04.426,2.6112919398064847
2025-03-23 11:31:04.426,1.9357055436680062
2025-03-23 11:31:04.427,0.2981706473743582
2025-03-23 11:31:04.427,-1.208763881913441
2025-03-23 11:31:04.427,-2.316980527229554
2025-03-23 11:31:04.436,-2.9869687203815003
2025-03-23 11:31:04.437,-2.2416166826298367
2025-03-23 11:31:04.437,0.8827704112866686
2025-03-23 11:31:04.437,4.909011519358845
2025-03-23 11:31:04.437,5.961733699961148
2025-03-23 11:31:04.446,1.7318793596698525
2025-03-23 11:31:04.447,-4.9332974780308625
2025-03-23 11:31:04.447,-7.928833104170544
2025-03-23 11:31:04.447,-4.094038045432983
2025-03-23 11:31:04.447,3.1750751814833285
2025-03-23 11:31:04.456,7.256531857187257
2025-03-23 11:31:04.456,4.942948099706422
2025-03-23 11:31:04.457,-0.8573009050551902
2025-03-23 11:31:04.457,-4.722249316670421
2025-03-23 11:31:04.457,-4.055106596344625
2025-03-23 11:31:04.466,-0.6800254947678024
2025-03-23 11:31:04.467,1.9080581303861486
2025-03-23 11:31:04.467,2.036715459334484
2025-03-23 11:31:04.467,0.7726803421153631
2025-03-23 11:31:04.467,0.03155856641356805
2025-03-23 11:31:04.476,0.26877184230431617
2025-03-23 11:31:04.476,0.29161340323925145
2025-03-23 11:31:04.477,-0.7560990744805154
2025-03-23 11:31:04.477,-1.9035260934304217
2025-03-23 11:31:04.477,-1.4971232872128817
2025-03-23 11:31:04.486,0.460757436174139
2025-03-23 11:31:04.486,2.0705526603397635
2025-03-23 11:31:04.487,1.8535856571017284
2025-03-23 11:31:04.487,0.4235615833267071
2025-03-23 11:31:04.487,-0.7074557709247681
2025-03-23 11:31:04.495,-1.1365627318224172
2025-03-23 11:31:04.495,-1.3818259106030615
2025-03-23 11:31:04.495,-1.2974446130765096
2025-03-23 11:31:04.495,-0.14225558817968495
2025-03-23 11:31:04.495,1.7103456454167176
2025-03-23 11:31:04.504,2.533878158782554
2025-03-23 11:31:04.505,1.326672195923241
2025-03-23 11:31:04.505,-0.8178192767446535
2025-03-23 11:31:04.505,-2.073970093475218
2025-03-23 11:31:04.515,-1.8936353296633435
2025-03-23 11:31:04.515,-0.9677326975109832
2025-03-23 11:31:04.515,0.17932500506872623
2025-03-23 11:31:04.515,1.5349633221084518
2025-03-23 11:31:04.515,2.6170542487571704
2025-03-23 11:31:04.516,2.172025719989106
2025-03-23 11:31:04.525,-0.40129799619748674
2025-03-23 11:31:04.525,-3.5254861354020113
2025-03-23 11:31:04.525,-4.194952112011974
2025-03-23 11:31:04.525,-0.9942717109135912
2025-03-23 11:31:04.534,3.708210236735753
2025-03-23 11:31:04.535,5.439934518170647
2025-03-23 11:31:04.535,2.1587470703366223
2025-03-23 11:31:04.535,-3.2107207617310713
2025-03-23 11:31:04.535,-5.514529508373657
2025-03-23 11:31:04.544,-2.694926839742235
2025-03-23 11:31:04.545,2.188100513552425
2025-03-23 11:31:04.545,4.377803991780566
2025-03-23 11:31:04.545,2.289262590089941
2025-03-23 11:31:04.545,-1.3537764760828035
2025-03-23 11:31:04.554,-2.780369964370277
2025-03-23 11:31:04.554,-1.0141130212031035
2025-03-23 11:31:04.555,1.5064359250563755
2025-03-23 11:31:04.555,1.7793324844695089
2025-03-23 11:31:04.555,-0.49771268690616727
2025-03-23 11:31:04.564,-2.5972043634889475
2025-03-23 11:31:04.564,-1.7673076815022635
2025-03-23 11:31:04.565,1.5566036844960485
2025-03-23 11:31:04.565,3.900187209870467
2025-03-23 11:31:04.565,2.3552977934955597
2025-03-23 11:31:04.574,-2.059091498288336
2025-03-23 11:31:04.574,-4.985561311726087
2025-03-23 11:31:04.575,-3.0514513494321145
2025-03-23 11:31:04.575,2.3127863578050403
2025-03-23 11:31:04.575,5.81211145383676
2025-03-23 11:31:04.584,3.6059430060700417
2025-03-23 11:31:04.585,-2.381555911466745
2025-03-23 11:31:04.585,-6.1471992037097145
2025-03-23 11:31:04.585,-3.8863087278724118
2025-03-23 11:31:04.585,1.9963899914153402
2025-03-23 11:31:04.593,5.63074677926631
2025-03-23 11:31:04.593,3.892368703519731
2025-03-23 11:31:04.593,-0.9139530386446217
2025-03-23 11:31:04.593,-4.2078810725602045
2025-03-23 11:31:04.593,-3.7452136960963216
2025-03-23 11:31:04.604,-0.7815399801143899
2025-03-23 11:31:04.604,2.134388256046318
2025-03-23 11:31:04.605,3.350147449550472
2025-03-23 11:31:04.605,2.5192052609050037
2025-03-23 11:31:04.605,0.2021767680691064
2025-03-23 11:31:04.613,-2.345200547772061
2025-03-23 11:31:04.613,-3.5518300985398534
2025-03-23 11:31:04.613,-2.416045767575177
2025-03-23 11:31:04.613,0.6630354017319313
2025-03-23 11:31:04.613,3.762838598967955
2025-03-23 11:31:04.623,4.332372950228649
2025-03-23 11:31:04.623,1.1505452742448243
2025-03-23 11:31:04.623,-3.7871237259851345
2025-03-23 11:31:04.623,-5.979669948898127
2025-03-23 11:31:04.632,-2.559093775926002
2025-03-23 11:31:04.633,3.919489478477187
2025-03-23 11:31:04.633,7.129444648415481
2025-03-23 11:31:04.633,3.484332148203836
2025-03-23 11:31:04.633,-3.5805264382674777
2025-03-23 11:31:04.643,-6.997600418313425
2025-03-23 11:31:04.643,-3.6829400198338087
2025-03-23 11:31:04.643,2.3734446328961996
2025-03-23 11:31:04.643,5.00659173576563
2025-03-23 11:31:04.643,2.6495088904201722
2025-03-23 11:31:04.652,-0.9586051376727017
2025-03-23 11:31:04.653,-2.023831447488625
2025-03-23 11:31:04.653,-0.7103287493078261
2025-03-23 11:31:04.653,0.4290802413228974
2025-03-23 11:31:04.653,0.16735092821705666
2025-03-23 11:31:04.663,-0.6630519505788368
2025-03-23 11:31:04.663,-1.11777505442557
2025-03-23 11:31:04.663,-1.0028634342985474
2025-03-23 11:31:04.663,0.017982072419601175
2025-03-23 11:31:04.663,2.2364659102097546
2025-03-23 11:31:04.672,4.134153648384956
2025-03-23 11:31:04.672,2.686727698810363
2025-03-23 11:31:04.673,-2.674377243804464
2025-03-23 11:31:04.673,-7.391612198026591
2025-03-23 11:31:04.673,-5.739450067829992
2025-03-23 11:31:04.682,1.971233870385965
2025-03-23 11:31:04.682,8.387004642672142
2025-03-23 11:31:04.683,6.929492777631767
2025-03-23 11:31:04.683,-0.6571537564388774
2025-03-23 11:31:04.683,-6.4407987167805505
2025-03-23 11:31:04.692,-5.370988412724844
2025-03-23 11:31:04.692,-0.13826266200359133
2025-03-23 11:31:04.693,3.2045922168873755
2025-03-23 11:31:04.693,2.3044248141608845
2025-03-23 11:31:04.693,-0.20274529307766243
2025-03-23 11:31:04.702,-1.0955872251305647
2025-03-23 11:31:04.702,-0.10862137837472871
2025-03-23 11:31:04.703,0.9700175844515619
2025-03-23 11:31:04.703,0.9550588401299569
2025-03-23 11:31:04.703,0.08163697770359735
2025-03-23 11:31:04.711,-0.9089769278239591
2025-03-23 11:31:04.711,-1.4525191815611231
2025-03-23 11:31:04.711,-1.2184861876582995
2025-03-23 11:31:04.711,-0.281701909878449
2025-03-23 11:31:04.711,0.7757710042592406
2025-03-23 11:31:04.722,1.4219107514415725
2025-03-23 11:31:04.722,1.6946770374929858
2025-03-23 11:31:04.723,1.6230738480837916
2025-03-23 11:31:04.723,0.455663587357155
2025-03-23 11:31:04.723,-2.3223597981673145
2025-03-23 11:31:04.732,-4.922850337605193
2025-03-23 11:31:04.733,-3.842643265563036
2025-03-23 11:31:04.733,1.8510496007860604
2025-03-23 11:31:04.733,7.618339031270149
2025-03-23 11:31:04.733,7.14854962039821
2025-03-23 11:31:04.741,-0.36222652857221316
2025-03-23 11:31:04.741,-8.256821938980409
2025-03-23 11:31:04.741,-8.965870580823669
2025-03-23 11:31:04.741,-1.810005550486932
2025-03-23 11:31:04.750,6.562881257558949
2025-03-23 11:31:04.751,8.891869436991993
2025-03-23 11:31:04.751,3.7316915333904284
2025-03-23 11:31:04.751,-3.9947231953201263
2025-03-23 11:31:04.751,-7.634779228976455
2025-03-23 11:31:04.761,-4.352143077214
2025-03-23 11:31:04.761,2.5391940448290784
2025-03-23 11:31:04.761,6.418051653982947
2025-03-23 11:31:04.761,3.552415233600902
2025-03-23 11:31:04.761,-2.9399593050040456
2025-03-23 11:31:04.770,-6.025570173090102
2025-03-23 11:31:04.771,-2.278225165714595
2025-03-23 11:31:04.771,4.197148983916976
2025-03-23 11:31:04.771,6.263304320152804
2025-03-23 11:31:04.771,1.6955526283732416
2025-03-23 11:31:04.780,-4.603701457771654
2025-03-23 11:31:04.781,-6.311144144932147
2025-03-23 11:31:04.781,-2.237169472607749
2025-03-23 11:31:04.781,3.3456721654184
2025-03-23 11:31:04.781,5.615669316728596
2025-03-23 11:31:04.790,3.28920694584352
2025-03-23 11:31:04.791,-1.2890633714702542
2025-03-23 11:31:04.791,-4.464741442913653
2025-03-23 11:31:04.791,-3.7879945629379184
2025-03-23 11:31:04.791,0.13224358379157883
2025-03-23 11:31:04.800,3.6596431052460985
2025-03-23 11:31:04.801,3.221181439772909
2025-03-23 11:31:04.801,-0.7208207842101444
2025-03-23 11:31:04.801,-3.657032336117708
2025-03-23 11:31:04.801,-2.070994887001601
2025-03-23 11:31:04.810,2.1906653063400614
2025-03-23 11:31:04.811,4.01278296880183
2025-03-23 11:31:04.811,1.2286978251809162
2025-03-23 11:31:04.811,-2.9041728706997376
2025-03-23 11:31:04.811,-3.8453500513654983
2025-03-23 11:31:04.820,-0.9211897738434605
2025-03-23 11:31:04.821,2.536118092959334
2025-03-23 11:31:04.821,3.131820986240552
2025-03-23 11:31:04.821,0.5032158125372854
2025-03-23 11:31:04.821,-2.725677973889254
2025-03-23 11:31:04.830,-3.152827342785028
2025-03-23 11:31:04.831,0.3730072903017111
2025-03-23 11:31:04.831,4.8050871389755345
2025-03-23 11:31:04.831,4.938561041040375
2025-03-23 11:31:04.831,-0.865746426734105
2025-03-23 11:31:04.840,-7.4657909749410765
2025-03-23 11:31:04.840,-7.569025807254535
2025-03-23 11:31:04.841,-0.06721227170684901
2025-03-23 11:31:04.841,7.974924127382188
2025-03-23 11:31:04.841,8.72454329739522
2025-03-23 11:31:04.849,1.9167551363808413
2025-03-23 11:31:04.849,-5.404511637479453
2025-03-23 11:31:04.849,-6.844197117130921
2025-03-23 11:31:04.849,-2.8178906643300285
2025-03-23 11:31:04.849,1.4645447342514146
2025-03-23 11:31:04.860,2.5764131074432544
2025-03-23 11:31:04.861,1.7762055640747023
2025-03-23 11:31:04.861,1.6220908771214781
2025-03-23 11:31:04.861,1.8357558166510157
2025-03-23 11:31:04.861,0.22230655003414349
2025-03-23 11:31:04.870,-3.0639230359205243
2025-03-23 11:31:04.871,-4.506043374032586
2025-03-23 11:31:04.871,-1.5501609182040512
2025-03-23 11:31:04.871,3.3828137824382547
2025-03-23 11:31:04.871,5.045002506054848
2025-03-23 11:31:04.879,1.5391652997468728
2025-03-23 11:31:04.879,-3.217089278473734
2025-03-23 11:31:04.879,-4.0690706236821015
2025-03-23 11:31:04.879,-0.6310014783258073
2025-03-23 11:31:04.879,2.708055576264194
2025-03-23 11:31:04.889,2.4326343679296754
2025-03-23 11:31:04.889,-0.2380869453015913
2025-03-23 11:31:04.889,-1.7811105553315856
2025-03-23 11:31:04.889,-1.0311661383176198
2025-03-23 11:31:04.899,0.22607833986328812
2025-03-23 11:31:04.899,0.511443513165164
2025-03-23 11:31:04.899,0.40254144166715194
2025-03-23 11:31:04.899,0.7367086636615415
2025-03-23 11:31:04.899,0.8677285779888987
2025-03-23 11:31:04.900,-0.1751063690083593
2025-03-23 11:31:04.909,-1.7561276449061245
2025-03-23 11:31:04.909,-2.0937404513161715
2025-03-23 11:31:04.909,-0.4623474378347201
2025-03-23 11:31:04.909,1.8562934829695246
2025-03-23 11:31:04.918,2.8669015050829607
2025-03-23 11:31:04.919,1.6925738327198792
2025-03-23 11:31:04.919,-0.8118136423123844
2025-03-23 11:31:04.919,-2.819650616029107
2025-03-23 11:31:04.919,-2.857086856973987
2025-03-23 11:31:04.929,-0.8564378302890295
2025-03-23 11:31:04.929,1.7451616390055098
2025-03-23 11:31:04.929,3.091625355530778
2025-03-23 11:31:04.929,2.3507762022225878
2025-03-23 11:31:04.929,0.15283882535147503
2025-03-23 11:31:04.938,-2.1637968951749076
2025-03-23 11:31:04.939,-3.292553699304779
2025-03-23 11:31:04.939,-2.229344407390902
2025-03-23 11:31:04.939,0.9231782234609289
2025-03-23 11:31:04.939,3.9020295889631864
2025-03-23 11:31:04.948,3.510633811394907
2025-03-23 11:31:04.949,-0.59815941323102
2025-03-23 11:31:04.949,-4.323717113259629
2025-03-23 11:31:04.949,-3.32717702871499
2025-03-23 11:31:04.949,1.4030707253848613
2025-03-23 11:31:04.958,4.325392002140801
2025-03-23 11:31:04.958,2.1094056115687154
2025-03-23 11:31:04.959,-2.355172606874843
2025-03-23 11:31:04.959,-3.7808931408792064
2025-03-23 11:31:04.959,-0.8318379027370363
2025-03-23 11:31:04.968,2.812646164806645
2025-03-23 11:31:04.968,3.054435751220314
2025-03-23 11:31:04.969,-0.25225642999460696
2025-03-23 11:31:04.969,-3.4396995922857445
2025-03-23 11:31:04.969,-2.8563864192615087
2025-03-23 11:31:04.978,1.3297394451578954
2025-03-23 11:31:04.978,4.874400981953707
2025-03-23 11:31:04.979,3.538506141063555
2025-03-23 11:31:04.979,-2.048724717262758
2025-03-23 11:31:04.979,-6.27200980019597
2025-03-23 11:31:04.988,-4.335363694855688
2025-03-23 11:31:04.988,2.0620414645980714
2025-03-23 11:31:04.989,6.1981162136454735
2025-03-23 11:31:04.989,3.861237474271317
2025-03-23 11:31:04.989,-1.8879618794728592
2025-03-23 11:31:04.997,-4.532763875023875
2025-03-23 11:31:04.997,-1.7555621204081433
2025-03-23 11:31:04.997,2.3544026469116384
2025-03-23 11:31:04.997,2.7076819782340293
2025-03-23 11:31:04.998,-0.7932032743083028
2025-03-23 11:31:05.007,-3.5980027296903283
2025-03-23 11:31:05.007,-2.0779959436795283
2025-03-23 11:31:05.007,2.359564599539555
2025-03-23 11:31:05.007,4.885157654790669
2025-03-23 11:31:05.007,2.5139051404499755
2025-03-23 11:31:05.017,-2.583656834901986
2025-03-23 11:31:05.017,-5.220252093300238
2025-03-23 11:31:05.017,-2.692902143243623
2025-03-23 11:31:05.017,2.2058759207294827
2025-03-23 11:31:05.026,4.212006932008967
2025-03-23 11:31:05.027,1.5147936658583643
2025-03-23 11:31:05.027,-2.256282725096003
2025-03-23 11:31:05.027,-2.5126273620590696
2025-03-23 11:31:05.027,0.7112547620733307
2025-03-23 11:31:05.036,3.043805939658167
2025-03-23 11:31:05.037,1.4606990037116936
2025-03-23 11:31:05.037,-2.12036792773067
2025-03-23 11:31:05.037,-3.715228538571379
2025-03-23 11:31:05.037,-2.1103681892014245
2025-03-23 11:31:05.047,0.7355325449057389
2025-03-23 11:31:05.047,2.9296366604504116
2025-03-23 11:31:05.047,4.0146814774535216
2025-03-23 11:31:05.047,3.388894525291014
2025-03-23 11:31:05.047,0.00664201571199911
2025-03-23 11:31:05.057,-5.087866380881847
2025-03-23 11:31:05.057,-7.7131693712536
2025-03-23 11:31:05.057,-4.280464573163084
2025-03-23 11:31:05.057,3.4690776925298814
2025-03-23 11:31:05.057,9.100244154031035
2025-03-23 11:31:05.066,7.644151200328562
2025-03-23 11:31:05.067,0.47776321238913905
2025-03-23 11:31:05.067,-6.368572239424987
2025-03-23 11:31:05.067,-8.028335938806066
2025-03-23 11:31:05.067,-4.358109249858576
2025-03-23 11:31:05.076,1.3044454436035948
2025-03-23 11:31:05.077,5.359283985471634
2025-03-23 11:31:05.077,5.8788506857334655
2025-03-23 11:31:05.077,2.964159078304146
2025-03-23 11:31:05.077,-1.4912086427923732
2025-03-23 11:31:05.086,-4.677758287379678
2025-03-23 11:31:05.087,-4.6162138492070435
2025-03-23 11:31:05.087,-1.5977720454173006
2025-03-23 11:31:05.087,2.1520746512110485
2025-03-23 11:31:05.087,4.211396433919465
2025-03-23 11:31:05.096,3.386272384080814
2025-03-23 11:31:05.097,0.12454708801487888
2025-03-23 11:31:05.097,-3.534725771026091
2025-03-23 11:31:05.097,-4.665935470667228
2025-03-23 11:31:05.097,-1.6399288695138956
2025-03-23 11:31:05.106,3.5221883810907397
2025-03-23 11:31:05.107,6.0010222177779085
2025-03-23 11:31:05.107,2.820270750455423
2025-03-23 11:31:05.107,-3.477977634597723
2025-03-23 11:31:05.107,-6.9054833658815
2025-03-23 11:31:05.117,-4.040184981924744
2025-03-23 11:31:05.117,2.5762702935153827
2025-03-23 11:31:05.117,6.991887947286463
2025-03-23 11:31:05.117,5.2580399651460485
2025-03-23 11:31:05.117,-1.2891573580888729
2025-03-23 11:31:05.127,-7.037744451427316
2025-03-23 11:31:05.127,-6.528945836543445
2025-03-23 11:31:05.127,0.5113461040943101
2025-03-23 11:31:05.127,7.863842055862716
2025-03-23 11:31:05.127,7.962250997910554
2025-03-23 11:31:05.136,-0.18530472562788441
2025-03-23 11:31:05.137,-8.870770455211295
2025-03-23 11:31:05.137,-9.111380445228201
2025-03-23 11:31:05.137,-0.33116754504044577
2025-03-23 11:31:05.137,8.697101042062187
2025-03-23 11:31:05.145,9.123119090950263
2025-03-23 11:31:05.145,1.1867193234677509
2025-03-23 11:31:05.145,-6.755465285587967
2025-03-23 11:31:05.145,-7.534589983192766
2025-03-23 11:31:05.145,-1.979067012853256
2025-03-23 11:31:05.155,3.5770337602687317
2025-03-23 11:31:05.155,4.726908586240014
2025-03-23 11:31:05.155,2.4131267578073303
2025-03-23 11:31:05.155,-0.1766198383576556
2025-03-23 11:31:05.155,-1.6822817446130627
2025-03-23 11:31:05.165,-2.5396174096701825
2025-03-23 11:31:05.165,-2.583549179938522
2025-03-23 11:31:05.165,-0.8402434590859081
2025-03-23 11:31:05.165,2.316552917011281
2025-03-23 11:31:05.174,4.425792662228187
2025-03-23 11:31:05.174,3.13224971994251
2025-03-23 11:31:05.175,-1.3004476107832053
2025-03-23 11:31:05.175,-5.72784774257192
2025-03-23 11:31:05.175,-6.136067383072744
2025-03-23 11:31:05.184,-0.8854615461832114
2025-03-23 11:31:05.185,6.676268117635276
2025-03-23 11:31:05.185,9.623285454155912
2025-03-23 11:31:05.185,3.870482534447811
2025-03-23 11:31:05.185,-6.348667686231692
2025-03-23 11:31:05.195,-11.51435897096495
2025-03-23 11:31:05.195,-6.5389733124100164
2025-03-23 11:31:05.195,3.784650872429886
2025-03-23 11:31:05.195,10.0181248042786
2025-03-23 11:31:05.195,7.605987681206629
2025-03-23 11:31:05.204,0.1242607333573581
2025-03-23 11:31:05.205,-5.723632975037428
2025-03-23 11:31:05.205,-6.412538943764306
2025-03-23 11:31:05.205,-3.1128702541414697
2025-03-23 11:31:05.205,0.9823245870815102
2025-03-23 11:31:05.214,3.4968600228377724
2025-03-23 11:31:05.215,3.729728291412769
2025-03-23 11:31:05.215,2.155370290051951
2025-03-23 11:31:05.215,-0.24107332556359368
2025-03-23 11:31:05.215,-2.3638555828837857
2025-03-23 11:31:05.224,-3.2216149497478876
2025-03-23 11:31:05.225,-2.186911814372587
2025-03-23 11:31:05.225,0.479515334210653
2025-03-23 11:31:05.225,3.165810959707503
2025-03-23 11:31:05.225,3.5476088744831182
2025-03-23 11:31:05.233,0.6952703525024377
2025-03-23 11:31:05.233,-3.2104179051207735
2025-03-23 11:31:05.233,-4.256090443590469
2025-03-23 11:31:05.233,-0.9070540541805678
2025-03-23 11:31:05.234,3.6356459143742854
2025-03-23 11:31:05.243,4.46668734661858
2025-03-23 11:31:05.243,0.6169871778078111
2025-03-23 11:31:05.243,-3.5967390985741776
2025-03-23 11:31:05.243,-3.670233359144927
2025-03-23 11:31:05.253,-0.21230451596863004
2025-03-23 11:31:05.253,2.3337585126025107
2025-03-23 11:31:05.253,1.571243628901386
2025-03-23 11:31:05.253,-0.3587205005852264
2025-03-23 11:31:05.253,-0.47377018489472494
2025-03-23 11:31:05.262,0.9459661120415869
2025-03-23 11:31:05.263,1.3206635021558588
2025-03-23 11:31:05.263,-0.37885086294520864
2025-03-23 11:31:05.263,-2.4086513212165075
2025-03-23 11:31:05.263,-2.5868489802220207
2025-03-23 11:31:05.272,-0.5922680445240849
2025-03-23 11:31:05.273,2.0854358799482062
2025-03-23 11:31:05.273,3.521806547760373
2025-03-23 11:31:05.273,2.5773400775118533
2025-03-23 11:31:05.273,-0.33143277005533456
2025-03-23 11:31:05.283,-3.2460728487028994
2025-03-23 11:31:05.283,-3.9986265162444417
2025-03-23 11:31:05.283,-2.001844057934375
2025-03-23 11:31:05.283,1.3340445611125378
2025-03-23 11:31:05.283,3.836877213313046
2025-03-23 11:31:05.292,3.9610238157506776
2025-03-23 11:31:05.292,1.4863501952712062
2025-03-23 11:31:05.293,-2.1690006442391847
2025-03-23 11:31:05.293,-4.4357697993846745
2025-03-23 11:31:05.293,-3.5363950801837465
2025-03-23 11:31:05.303,-0.3030490440794962
2025-03-23 11:31:05.303,2.6491703042447714
2025-03-23 11:31:05.303,3.598063009727402
2025-03-23 11:31:05.303,2.7224129749507275
2025-03-23 11:31:05.303,0.7207979855685287
2025-03-23 11:31:05.312,-1.9391178657092851
2025-03-23 11:31:05.313,-4.006828436734252
2025-03-23 11:31:05.313,-3.517062293760909
2025-03-23 11:31:05.313,-0.2055731687022937
2025-03-23 11:31:05.313,3.247446247327218
2025-03-23 11:31:05.321,3.8658109512481214
2025-03-23 11:31:05.321,1.7081543034405515
2025-03-23 11:31:05.321,-0.7135128184295757
2025-03-23 11:31:05.321,-1.7828737705524376
2025-03-23 11:31:05.322,-1.9839620688684017
2025-03-23 11:31:05.331,-1.9565110343999663
2025-03-23 11:31:05.331,-1.1716264923271067
2025-03-23 11:31:05.331,0.8006137391672276
2025-03-23 11:31:05.331,2.9237148420320724
2025-03-23 11:31:05.331,3.4560006919214037
2025-03-23 11:31:05.341,1.6213223246364763
2025-03-23 11:31:05.341,-1.691844581301046
2025-03-23 11:31:05.341,-4.325378603026539
2025-03-23 11:31:05.341,-4.079638710761934
2025-03-23 11:31:05.351,-0.6284840128150591
2025-03-23 11:31:05.351,3.5156488829057517
2025-03-23 11:31:05.351,4.9056938444769855
2025-03-23 11:31:05.351,2.5361223212644384
2025-03-23 11:31:05.351,-1.2505515065616981
2025-03-23 11:31:05.360,-3.4426132277078967
2025-03-23 11:31:05.361,-3.1613036720844208
2025-03-23 11:31:05.361,-1.4565746412266358
2025-03-23 11:31:05.361,0.5969811980505547
2025-03-23 11:31:05.361,2.4492730342804663
2025-03-23 11:31:05.370,3.235046953996395
2025-03-23 11:31:05.371,1.9506192605655006
2025-03-23 11:31:05.371,-0.9716654588771257
2025-03-23 11:31:05.371,-3.25073536744854
2025-03-23 11:31:05.371,-2.89688519069715
2025-03-23 11:31:05.380,-0.47966053960047633
2025-03-23 11:31:05.381,1.5820661330613142
2025-03-23 11:31:05.381,1.9212195165255368
2025-03-23 11:31:05.381,1.4158377640955009
2025-03-23 11:31:05.381,1.1562544817579024
2025-03-23 11:31:05.390,0.45079745763863677
2025-03-23 11:31:05.391,-1.787371813587554
2025-03-23 11:31:05.391,-4.187309103702254
2025-03-23 11:31:05.391,-3.4365030996562247
2025-03-23 11:31:05.391,1.424257684346948
2025-03-23 11:31:05.400,6.484854848968951
2025-03-23 11:31:05.401,6.3899301837394065
2025-03-23 11:31:05.401,0.27377688834055086
2025-03-23 11:31:05.401,-6.796600994489235
2025-03-23 11:31:05.401,-8.58999138874374
2025-03-23 11:31:05.410,-3.431500555247739
2025-03-23 11:31:05.411,4.586550220246077
2025-03-23 11:31:05.411,9.161900233954029
2025-03-23 11:31:05.411,6.67103623600809
2025-03-23 11:31:05.411,-1.008928797298354
2025-03-23 11:31:05.420,-7.707644404388111
2025-03-23 11:31:05.421,-7.921251795291702
2025-03-23 11:31:05.421,-1.806146608896676
2025-03-23 11:31:05.421,4.853989786041165
2025-03-23 11:31:05.421,6.3492339894557945
2025-03-23 11:31:05.429,2.5439129468162247
2025-03-23 11:31:05.429,-1.8718496046689896
2025-03-23 11:31:05.429,-3.0526225001823732
2025-03-23 11:31:05.429,-1.5546723371028617
2025-03-23 11:31:05.430,-0.15180317529613022
2025-03-23 11:31:05.440,0.12105385353581018
2025-03-23 11:31:05.441,0.3186085840959695
2025-03-23 11:31:05.441,0.9076908363219331
2025-03-23 11:31:05.441,0.8294038184323906
2025-03-23 11:31:05.441,-0.33173911751764185
2025-03-23 11:31:05.450,-0.9938462260836511
2025-03-23 11:31:05.451,0.21986979597484674
2025-03-23 11:31:05.451,1.8968085054238308
2025-03-23 11:31:05.451,1.2928175911195552
2025-03-23 11:31:05.451,-1.6837691690528365
2025-03-23 11:31:05.460,-3.723392196560876
2025-03-23 11:31:05.461,-2.091406183789235
2025-03-23 11:31:05.461,1.8677847311082858
2025-03-23 11:31:05.461,4.231931033076652
2025-03-23 11:31:05.461,2.8615114018590533
2025-03-23 11:31:05.469,-0.6591865729703401
2025-03-23 11:31:05.469,-3.0872840605309526
2025-03-23 11:31:05.469,-2.7075457526077877
2025-03-23 11:31:05.469,-0.5272512482309316
2025-03-23 11:31:05.480,1.1271691423114139
2025-03-23 11:31:05.480,1.0654475853432892
2025-03-23 11:31:05.481,0.33475932549337695
2025-03-23 11:31:05.481,0.6285955375542881
2025-03-23 11:31:05.481,1.7069181479766777
2025-03-23 11:31:05.481,1.3458658710886267
2025-03-23 11:31:05.489,-1.501342101767139
2025-03-23 11:31:05.489,-4.378893103616753
2025-03-23 11:31:05.489,-3.6169763581347225
2025-03-23 11:31:05.489,1.0410136968606296
2025-03-23 11:31:05.490,5.4786545345412865
2025-03-23 11:31:05.499,5.494415326203098
2025-03-23 11:31:05.499,1.1147328778977972
2025-03-23 11:31:05.499,-3.9784596531829166
2025-03-23 11:31:05.499,-6.274776254906379
2025-03-23 11:31:05.509,-4.689723060464605
2025-03-23 11:31:05.509,-0.09669327419921367
2025-03-23 11:31:05.509,5.333636912042655
2025-03-23 11:31:05.509,8.186374500980483
2025-03-23 11:31:05.509,5.38589084006091
2025-03-23 11:31:05.519,-2.413753580771146
2025-03-23 11:31:05.519,-9.587771764756852
2025-03-23 11:31:05.519,-9.665103619688873
2025-03-23 11:31:05.519,-1.7169746985471568
2025-03-23 11:31:05.519,7.911611596128958
2025-03-23 11:31:05.528,11.076364385927677
2025-03-23 11:31:05.529,5.295885945574826
2025-03-23 11:31:05.529,-4.147154261729457
2025-03-23 11:31:05.529,-9.274307179506847
2025-03-23 11:31:05.529,-6.552975836097875
2025-03-23 11:31:05.539,0.5453531986732116
2025-03-23 11:31:05.539,5.531651749627048
2025-03-23 11:31:05.539,5.0893913285713905
2025-03-23 11:31:05.539,1.288013428927779
2025-03-23 11:31:05.539,-1.7532347743383547
2025-03-23 11:31:05.548,-2.2769661859574626
2025-03-23 11:31:05.549,-1.482376133770468
2025-03-23 11:31:05.549,-0.782077034478963
2025-03-23 11:31:05.549,-0.05706638106238247
2025-03-23 11:31:05.549,1.1349198725050482
2025-03-23 11:31:05.557,1.9518105366757605
2025-03-23 11:31:05.557,1.0702768612766755
2025-03-23 11:31:05.557,-1.11280681407611
2025-03-23 11:31:05.557,-2.2464070547571584
2025-03-23 11:31:05.558,-0.7524092363590303
2025-03-23 11:31:05.567,1.736581977824376
2025-03-23 11:31:05.567,1.9347148436597794
2025-03-23 11:31:05.567,-0.7628785692817991
2025-03-23 11:31:05.567,-2.8647313145819053
2025-03-23 11:31:05.576,-1.0634859552850147
2025-03-23 11:31:05.577,2.897463570163949
2025-03-23 11:31:05.577,3.8372095137584994
2025-03-23 11:31:05.577,-0.0331130616307031
2025-03-23 11:31:05.577,-4.229834966303685
2025-03-23 11:31:05.587,-3.6251572205339944
2025-03-23 11:31:05.587,0.7629293297816435
2025-03-23 11:31:05.587,3.324443447285751
2025-03-23 11:31:05.587,1.6085321836513895
2025-03-23 11:31:05.587,-0.8066190640856632
2025-03-23 11:31:05.597,-0.2046499058422045
2025-03-23 11:31:05.597,1.6444010053618776
2025-03-23 11:31:05.597,0.5221559278342476
2025-03-23 11:31:05.597,-3.2714493746901336
2025-03-23 11:31:05.598,-4.626653156864711
2025-03-23 11:31:05.606,-0.6815493879722005
2025-03-23 11:31:05.607,4.814852780196177
2025-03-23 11:31:05.607,5.923365351004958
2025-03-23 11:31:05.607,1.6131877682909885
2025-03-23 11:31:05.607,-3.566229633835429
2025-03-23 11:31:05.617,-5.11957717533488
2025-03-23 11:31:05.617,-2.816220177804333
2025-03-23 11:31:05.617,0.6733387251177975
2025-03-23 11:31:05.617,3.10260948763554
2025-03-23 11:31:05.617,3.5520500745433603
2025-03-23 11:31:05.626,1.757286804305057
2025-03-23 11:31:05.627,-1.4557485834221235
2025-03-23 11:31:05.627,-3.588620671782942
2025-03-23 11:31:05.627,-2.352989868049091
2025-03-23 11:31:05.627,1.298924814601414
2025-03-23 11:31:05.637,3.4057135789158113
2025-03-23 11:31:05.637,1.3460054013527367
2025-03-23 11:31:05.637,-2.6725857554015153
2025-03-23 11:31:05.637,-3.7233229179317826
2025-03-23 11:31:05.637,0.06334315842702035
2025-03-23 11:31:05.646,4.8043611766211685
2025-03-23 11:31:05.647,4.803394878882846
2025-03-23 11:31:05.647,-0.9226084552643895
2025-03-23 11:31:05.647,-6.836293516571296
2025-03-23 11:31:05.647,-6.297005014365119
2025-03-23 11:31:05.657,1.1156673585090187
2025-03-23 11:31:05.657,8.309831737352113
2025-03-23 11:31:05.657,7.579368502111485
2025-03-23 11:31:05.657,-1.0063714364419878
2025-03-23 11:31:05.657,-8.951924587617842
2025-03-23 11:31:05.667,-7.996861729886061
2025-03-23 11:31:05.667,0.8743359863155464
2025-03-23 11:31:05.667,8.337741314234002
2025-03-23 11:31:05.667,6.976949418348062
2025-03-23 11:31:05.667,-0.7874921451492191
2025-03-23 11:31:05.676,-6.2086206547007405
2025-03-23 11:31:05.677,-4.474978392084418
2025-03-23 11:31:05.677,0.773788360227119
2025-03-23 11:31:05.677,3.16500776201173
2025-03-23 11:31:05.677,1.2720123751191974
2025-03-23 11:31:05.687,-1.040775200438358
2025-03-23 11:31:05.687,-0.5190902607161664
2025-03-23 11:31:05.687,1.580698057046977
2025-03-23 11:31:05.687,1.8142449237923202
2025-03-23 11:31:05.687,-0.7557006301328296
2025-03-23 11:31:05.697,-3.3629409759685434
2025-03-23 11:31:05.697,-2.845686362392256
2025-03-23 11:31:05.697,0.6547688719757048
2025-03-23 11:31:05.697,3.7562152089298144
2025-03-23 11:31:05.697,3.4349824874277006
2025-03-23 11:31:05.706,0.12824170157396012
2025-03-23 11:31:05.707,-2.917453424174401
2025-03-23 11:31:05.707,-3.079672795813166
2025-03-23 11:31:05.707,-0.7847374869706314
2025-03-23 11:31:05.707,1.4170786401714885
2025-03-23 11:31:05.716,1.7621360197009222
2025-03-23 11:31:05.717,0.8547693324705874
2025-03-23 11:31:05.717,0.28909906317847694
2025-03-23 11:31:05.717,0.27481141380730334
2025-03-23 11:31:05.717,-0.39199299901478035
2025-03-23 11:31:05.726,-1.873576887896039
2025-03-23 11:31:05.727,-2.2377007726201676
2025-03-23 11:31:05.727,-0.12658012717693928
2025-03-23 11:31:05.727,2.529860137897286
2025-03-23 11:31:05.727,2.5169883663857213
2025-03-23 11:31:05.735,-0.10230864365527365
2025-03-23 11:31:05.735,-1.7042041373352386
2025-03-23 11:31:05.735,-0.15224255311004004
2025-03-23 11:31:05.736,1.923993527339033
2025-03-23 11:31:05.736,0.6365344658964476
2025-03-23 11:31:05.745,-3.460290324583772
2025-03-23 11:31:05.745,-5.3189905175045356
2025-03-23 11:31:05.745,-1.4096371190378572
2025-03-23 11:31:05.745,5.526742968280931
2025-03-23 11:31:05.755,8.720627386640837
2025-03-23 11:31:05.755,4.285585075336326
2025-03-23 11:31:05.755,-4.498783957127336
2025-03-23 11:31:05.755,-9.963252507350497
2025-03-23 11:31:05.755,-7.214909863929435
2025-03-23 11:31:05.765,1.2702606145047275
2025-03-23 11:31:05.765,8.084516918809632
2025-03-23 11:31:05.765,7.871151556819337
2025-03-23 11:31:05.765,1.8736218497144526
2025-03-23 11:31:05.765,-4.1465775759712775
2025-03-23 11:31:05.774,-5.732244392572534
2025-03-23 11:31:05.775,-3.0659304453666967
2025-03-23 11:31:05.775,0.615149194182961
2025-03-23 11:31:05.775,2.5130978282248364
2025-03-23 11:31:05.775,2.0245378023520217
2025-03-23 11:31:05.785,0.32730125622876405
2025-03-23 11:31:05.785,-0.7795047182768081
2025-03-23 11:31:05.785,-0.147891429497379
2025-03-23 11:31:05.785,1.5390908334799844
2025-03-23 11:31:05.785,1.9057891727721668
2025-03-23 11:31:05.795,-0.6804313008822533
2025-03-23 11:31:05.795,-4.378120460370345
2025-03-23 11:31:05.795,-4.806416837341355
2025-03-23 11:31:05.795,-0.05766184989271039
2025-03-23 11:31:05.795,5.872380435894872
2025-03-23 11:31:05.805,6.632771301721333
2025-03-23 11:31:05.805,0.9644237168470244
2025-03-23 11:31:05.805,-5.164268829052217
2025-03-23 11:31:05.805,-5.262775859904476
2025-03-23 11:31:05.805,-0.06945338962002412
2025-03-23 11:31:05.814,3.4858736714101353
2025-03-23 11:31:05.815,1.126637869828191
2025-03-23 11:31:05.815,-3.273532218934044
2025-03-23 11:31:05.815,-2.770546298013084
2025-03-23 11:31:05.815,3.2863818833302387
2025-03-23 11:31:05.823,7.671742949381777
2025-03-23 11:31:05.823,3.887447529779159
2025-03-23 11:31:05.823,-5.472037016494155
2025-03-23 11:31:05.824,-10.860875684998085
2025-03-23 11:31:05.824,-6.134804901573206
2025-03-23 11:31:05.833,4.6275336472556665
2025-03-23 11:31:05.833,11.274474010118627
2025-03-23 11:31:05.833,7.910089159810819
2025-03-23 11:31:05.833,-1.6742943184198313
2025-03-23 11:31:05.843,-8.619397402254142
2025-03-23 11:31:05.843,-7.882699360423848
2025-03-23 11:31:05.843,-1.8507134563803707
2025-03-23 11:31:05.843,3.821953145543285
2025-03-23 11:31:05.843,5.916246898822104
2025-03-23 11:31:05.853,4.698390434701241
2025-03-23 11:31:05.853,1.3911224353604763
2025-03-23 11:31:05.853,-2.964498708759317
2025-03-23 11:31:05.853,-6.260271609950931
2025-03-23 11:31:05.853,-5.428496276691022
2025-03-23 11:31:05.863,0.26171227954723564
2025-03-23 11:31:05.863,6.622327099192736
2025-03-23 11:31:05.863,7.450530150554346
2025-03-23 11:31:05.863,1.212586254959154
2025-03-23 11:31:05.863,-6.233748187214552
2025-03-23 11:31:05.873,-7.333958805701044
2025-03-23 11:31:05.873,-1.1968946831122205
2025-03-23 11:31:05.873,5.387691448510163
2025-03-23 11:31:05.873,5.75633492960525
2025-03-23 11:31:05.873,0.5252819241814123
2025-03-23 11:31:05.883,-4.164747391504476
2025-03-23 11:31:05.883,-4.047102656135069
2025-03-23 11:31:05.883,-0.4472657401162237
2025-03-23 11:31:05.883,2.700075733206916
2025-03-23 11:31:05.883,3.2186324245716484
2025-03-23 11:31:05.893,1.509395941940378
2025-03-23 11:31:05.893,-1.1311454376249772
2025-03-23 11:31:05.893,-3.368003975449699
2025-03-23 11:31:05.893,-3.565135164960519
2025-03-23 11:31:05.893,-0.5531082423141975
2025-03-23 11:31:05.903,4.264886339575724
2025-03-23 11:31:05.903,6.47418472303039
2025-03-23 11:31:05.903,2.4042935408018034
2025-03-23 11:31:05.903,-5.707813146868296
2025-03-23 11:31:05.903,-9.921133844756016
2025-03-23 11:31:05.912,-4.409374371686678
2025-03-23 11:31:05.913,6.843099079368929
2025-03-23 11:31:05.913,12.620419862974376
2025-03-23 11:31:05.913,6.317872272716264
2025-03-23 11:31:05.913,-6.203608522147162
2025-03-23 11:31:05.921,-12.611715435754743
2025-03-23 11:31:05.921,-7.368507077818104
2025-03-23 11:31:05.921,3.1648164966385597
2025-03-23 11:31:05.921,8.907806371735601
2025-03-23 11:31:05.922,6.670464163331095
2025-03-23 11:31:05.931,1.0855163624438973
2025-03-23 11:31:05.931,-2.7480081687576337
2025-03-23 11:31:05.931,-4.150027218810279
2025-03-23 11:31:05.931,-4.409322779299515
2025-03-23 11:31:05.940,-3.001267063158289
2025-03-23 11:31:05.941,1.0704890108521128
2025-03-23 11:31:05.941,5.50490029271825
2025-03-23 11:31:05.941,5.685954394794665
2025-03-23 11:31:05.941,0.5651141437713876
2025-03-23 11:31:05.951,-4.719579679985033
2025-03-23 11:31:05.951,-4.437257842075474
2025-03-23 11:31:05.951,0.4210735948797011
2025-03-23 11:31:05.951,3.212457362229816
2025-03-23 11:31:05.952,0.4810850573376121
2025-03-23 11:31:05.961,-3.2232699174515926
2025-03-23 11:31:05.961,-1.6649139042937076
2025-03-23 11:31:05.961,3.8903730952151587
2025-03-23 11:31:05.961,5.657030214188117
2025-03-23 11:31:05.961,-0.0510898799806947
2025-03-23 11:31:05.971,-6.868376825135002
2025-03-23 11:31:05.971,-5.936445340699751
2025-03-23 11:31:05.971,2.3105087620263167
2025-03-23 11:31:05.971,7.907261240698812
2025-03-23 11:31:05.971,3.8063911968683652
2025-03-23 11:31:05.980,-4.886807986736343
2025-03-23 11:31:05.981,-7.2601651266227325
2025-03-23 11:31:05.981,-0.5302712746669871
2025-03-23 11:31:05.981,6.619879477205007
2025-03-23 11:31:05.981,5.426235749098928
2025-03-23 11:31:05.991,-2.08276765948537
2025-03-23 11:31:05.991,-6.479168483555533
2025-03-23 11:31:05.991,-3.0620036970657187
2025-03-23 11:31:05.991,3.1890836155673132
2025-03-23 11:31:05.991,4.824417359378536
2025-03-23 11:31:06.001,0.8437794451158734
2025-03-23 11:31:06.001,-3.314324356440597
2025-03-23 11:31:06.001,-3.0051915489366365
2025-03-23 11:31:06.001,0.6663334599789146
2025-03-23 11:31:06.001,3.1331611828668553
2025-03-23 11:31:06.010,1.941863411371728
2025-03-23 11:31:06.011,-1.0409883685193648
2025-03-23 11:31:06.011,-2.5080519737144322
2025-03-23 11:31:06.011,-1.5354195977558625
2025-03-23 11:31:06.011,0.1437009308168416
2025-03-23 11:31:06.020,0.9921854775561214
2025-03-23 11:31:06.021,1.3171086637065774
2025-03-23 11:31:06.021,1.6416140814757505
2025-03-23 11:31:06.021,1.0344306609375176
2025-03-23 11:31:06.021,-1.223419738578587
2025-03-23 11:31:06.031,-3.1937994995389514
2025-03-23 11:31:06.031,-2.047725847739355
2025-03-23 11:31:06.031,1.4589322239337312
2025-03-23 11:31:06.031,3.0087056628268845
2025-03-23 11:31:06.031,0.6233346820275389
2025-03-23 11:31:06.040,-1.9927930498360193
2025-03-23 11:31:06.041,-0.5977693358406957
2025-03-23 11:31:06.041,2.90170072186998
2025-03-23 11:31:06.041,2.6233500111266346
2025-03-23 11:31:06.041,-2.5817718686925333
2025-03-23 11:31:06.050,-6.477302313588304
2025-03-23 11:31:06.051,-3.303272810729514
2025-03-23 11:31:06.051,4.338824185433153
2025-03-23 11:31:06.051,8.20423905004238
2025-03-23 11:31:06.051,4.067870103374945
2025-03-23 11:31:06.061,-3.7675820719068818
2025-03-23 11:31:06.061,-7.690707174248582
2025-03-23 11:31:06.061,-4.662239158533939
2025-03-23 11:31:06.061,1.6894562750256856
2025-03-23 11:31:06.061,5.526129949149695
2025-03-23 11:31:06.069,4.343563113067526
2025-03-23 11:31:06.069,0.46163512218791064
2025-03-23 11:31:06.069,-2.222613610049956
2025-03-23 11:31:06.069,-2.4057529377287943
2025-03-23 11:31:06.070,-1.8015527675408634
2025-03-23 11:31:06.079,-1.6795666943755139
2025-03-23 11:31:06.079,-0.7196358122221003
2025-03-23 11:31:06.079,2.2930983793339035
2025-03-23 11:31:06.079,4.993943563465085
2025-03-23 11:31:06.080,3.4173669605295034
2025-03-23 11:31:06.089,-2.2448006259272835
2025-03-23 11:31:06.089,-6.443658319576323
2025-03-23 11:31:06.089,-4.445632445147398
2025-03-23 11:31:06.089,1.789919770347003
2025-03-23 11:31:06.098,5.790765646109675
2025-03-23 11:31:06.099,3.9750908776084763
2025-03-23 11:31:06.099,-0.9236909563647686
2025-03-23 11:31:06.099,-3.780928964553775
2025-03-23 11:31:06.099,-2.737713517043343
2025-03-23 11:31:06.109,-0.1560538993455964
2025-03-23 11:31:06.109,1.102230022692419
2025-03-23 11:31:06.109,0.9584471106516541
2025-03-23 11:31:06.109,1.162779859758953
2025-03-23 11:31:06.109,1.898241108428649
2025-03-23 11:31:06.119,1.1050834037496182
2025-03-23 11:31:06.119,-2.0029645510296628
2025-03-23 11:31:06.119,-4.418644584486808
2025-03-23 11:31:06.119,-2.562673092751064
2025-03-23 11:31:06.119,2.4672416310439824
2025-03-23 11:31:06.128,5.361598294576935
2025-03-23 11:31:06.129,2.8951557961270766
2025-03-23 11:31:06.129,-2.212295568817024
2025-03-23 11:31:06.129,-4.71138843474435
2025-03-23 11:31:06.129,-2.629773082791835
2025-03-23 11:31:06.139,1.4208812182418722
2025-03-23 11:31:06.139,3.6244532804981673
2025-03-23 11:31:06.139,2.428091813999146
2025-03-23 11:31:06.139,-0.7312594648968846
2025-03-23 11:31:06.139,-2.982394046989211
2025-03-23 11:31:06.149,-2.395994985289321
2025-03-23 11:31:06.149,0.3746309676284463
2025-03-23 11:31:06.149,2.666351188494411
2025-03-23 11:31:06.149,2.3865275610372096
2025-03-23 11:31:06.149,0.03529161177885673
2025-03-23 11:31:06.158,-2.0603988787543868
2025-03-23 11:31:06.159,-2.259257320695884
2025-03-23 11:31:06.159,-0.8664313994677194
2025-03-23 11:31:06.159,0.8327420814151746
2025-03-23 11:31:06.159,1.8738692896445577
2025-03-23 11:31:06.169,1.7851303146285298
2025-03-23 11:31:06.169,0.5002448425487555
2025-03-23 11:31:06.169,-1.1770683108729167
2025-03-23 11:31:06.169,-1.7703102791140257
2025-03-23 11:31:06.169,-0.7673850362005019
2025-03-23 11:31:06.179,0.40889091178965364
2025-03-23 11:31:06.179,0.18023675735406963
2025-03-23 11:31:06.179,-0.7356404677506071
2025-03-23 11:31:06.179,-0.13199919897248477
2025-03-23 11:31:06.179,2.161701790936662
2025-03-23 11:31:06.188,3.212557233036819
2025-03-23 11:31:06.189,0.6782138482307819
2025-03-23 11:31:06.189,-3.4765058700475344
2025-03-23 11:31:06.189,-4.763450118502335
2025-03-23 11:31:06.189,-1.608602952292179
2025-03-23 11:31:06.198,2.69527960875806
2025-03-23 11:31:06.199,4.093171812113054
2025-03-23 11:31:06.199,2.3062947680151233
2025-03-23 11:31:06.199,-0.034331082779071126
2025-03-23 11:31:06.199,-1.5197352731764007
2025-03-23 11:31:06.207,-2.8520794569519303
2025-03-23 11:31:06.207,-3.729079207815629
2025-03-23 11:31:06.207,-1.810144661523957
2025-03-23 11:31:06.207,3.3654890986989705
2025-03-23 11:31:06.208,7.394170169841994
2025-03-23 11:31:06.217,4.991282165097741
2025-03-23 11:31:06.217,-3.024376299958457
2025-03-23 11:31:06.217,-9.240223876842913
2025-03-23 11:31:06.217,-7.3245445971878445
2025-03-23 11:31:06.227,1.0809714792583502
2025-03-23 11:31:06.227,8.192446116525844
2025-03-23 11:31:06.227,8.02343961519334
2025-03-23 11:31:06.227,1.6141713352662692
2025-03-23 11:31:06.227,-4.97192339032872
2025-03-23 11:31:06.237,-6.645086793065486
2025-03-23 11:31:06.237,-3.2542030548190963
2025-03-23 11:31:06.237,1.4144936191453936
2025-03-23 11:31:06.237,3.7215762902971297
2025-03-23 11:31:06.238,3.040909087263021
2025-03-23 11:31:06.238,1.0206598749078357
2025-03-23 11:31:06.247,-0.858469517281467
2025-03-23 11:31:06.247,-2.0292342348941843
2025-03-23 11:31:06.247,-1.8638892742162336
2025-03-23 11:31:06.247,0.05781249066140057
2025-03-23 11:31:06.257,2.1761694848752557
2025-03-23 11:31:06.257,1.5261051422044707
2025-03-23 11:31:06.257,-2.159763855976665
2025-03-23 11:31:06.257,-4.449008997519431
2025-03-23 11:31:06.257,-1.0785680329764142
2025-03-23 11:31:06.267,5.503056732145409
2025-03-23 11:31:06.267,7.603272165960814
2025-03-23 11:31:06.267,1.527742495436187
2025-03-23 11:31:06.267,-7.048455095217651
2025-03-23 11:31:06.267,-9.130529934346558
2025-03-23 11:31:06.276,-2.656697306622997
2025-03-23 11:31:06.277,5.520849015212099
2025-03-23 11:31:06.277,7.643392788971165
2025-03-23 11:31:06.277,3.0007451429389826
2025-03-23 11:31:06.277,-2.6652134423767837
2025-03-23 11:31:06.287,-4.1019539249926655
2025-03-23 11:31:06.287,-1.4977499397220893
2025-03-23 11:31:06.287,1.062230446851064
2025-03-23 11:31:06.287,0.7258368530245966
2025-03-23 11:31:06.287,-1.2549912538824548
2025-03-23 11:31:06.297,-1.5425455251227516
2025-03-23 11:31:06.297,1.0113317277264338
2025-03-23 11:31:06.297,3.7042664719451213
2025-03-23 11:31:06.297,2.962363178399333
2025-03-23 11:31:06.297,-1.251493986541678
2025-03-23 11:31:06.306,-4.821711845436567
2025-03-23 11:31:06.307,-3.8313042299339295
2025-03-23 11:31:06.307,0.9037084932341677
2025-03-23 11:31:06.307,4.548967555804256
2025-03-23 11:31:06.307,3.599823733100071
2025-03-23 11:31:06.315,-0.4108389985960424
2025-03-23 11:31:06.315,-3.143706562792162
2025-03-23 11:31:06.315,-2.530539649677557
2025-03-23 11:31:06.315,-0.3522591848344616
2025-03-23 11:31:06.316,0.9140145034590963
2025-03-23 11:31:06.327,1.0453774570099523
2025-03-23 11:31:06.327,1.169378616580358
2025-03-23 11:31:06.327,1.3581334234009548
2025-03-23 11:31:06.327,0.6103660509630263
2025-03-23 11:31:06.327,-1.198196945735069
2025-03-23 11:31:06.335,-2.6404494719972718
2025-03-23 11:31:06.335,-2.244488832684623
2025-03-23 11:31:06.335,-0.06392324080363922
2025-03-23 11:31:06.336,2.3839308850120506
2025-03-23 11:31:06.336,3.358826319536231
2025-03-23 11:31:06.345,2.0744871636489277
2025-03-23 11:31:06.345,-0.8069546962274402
2025-03-23 11:31:06.345,-3.4270043727077724
2025-03-23 11:31:06.345,-3.7527870191011
2025-03-23 11:31:06.355,-1.150063884154777
2025-03-23 11:31:06.355,2.599958357724758
2025-03-23 11:31:06.355,4.329282076708082
2025-03-23 11:31:06.355,2.348904430863006
2025-03-23 11:31:06.355,-1.5930465698579839
2025-03-23 11:31:06.365,-3.7747401834199854
2025-03-23 11:31:06.365,-2.2518004000494054
2025-03-23 11:31:06.365,1.0983446821723666
2025-03-23 11:31:06.365,2.633918043968831
2025-03-23 11:31:06.365,1.0141479741135913
2025-03-23 11:31:06.375,-1.3320178812674166
2025-03-23 11:31:06.375,-1.311972642059318
2025-03-23 11:31:06.375,0.7736018064640114
2025-03-23 11:31:06.375,1.650868551776472
2025-03-23 11:31:06.375,-0.23153506324398776
2025-03-23 11:31:06.385,-2.2513284367997817
2025-03-23 11:31:06.385,-1.2419577926145542
2025-03-23 11:31:06.385,1.8238655825518815
2025-03-23 11:31:06.385,2.9652091030337466
2025-03-23 11:31:06.385,0.5586893893606177
2025-03-23 11:31:06.395,-2.6637669301312763
2025-03-23 11:31:06.395,-3.2955604662917923
2025-03-23 11:31:06.395,-1.0174992705539923
2025-03-23 11:31:06.395,1.998320901936202
2025-03-23 11:31:06.395,3.691656587739073
2025-03-23 11:31:06.404,3.026048600769423
2025-03-23 11:31:06.405,-0.0856227426590158
2025-03-23 11:31:06.405,-3.96335673847056
2025-03-23 11:31:06.405,-5.216460533796676
2025-03-23 11:31:06.405,-1.8490304072400716
2025-03-23 11:31:06.415,3.585506293498737
2025-03-23 11:31:06.415,5.831897030837152
2025-03-23 11:31:06.415,2.7030480705741886
2025-03-23 11:31:06.415,-2.30803444725652
2025-03-23 11:31:06.415,-4.1620392053212365
2025-03-23 11:31:06.424,-2.024948003825436
2025-03-23 11:31:06.425,0.5206597354597264
2025-03-23 11:31:06.425,0.6390529184266326
2025-03-23 11:31:06.425,-0.2555285681995969
2025-03-23 11:31:06.425,0.8021403601313223
2025-03-23 11:31:06.433,3.356392381931066
2025-03-23 11:31:06.433,3.4667089343475372
2025-03-23 11:31:06.433,-0.8250058494968238
2025-03-23 11:31:06.434,-5.794496880523826
2025-03-23 11:31:06.434,-5.768924767103648
2025-03-23 11:31:06.443,-0.18554191026412908
2025-03-23 11:31:06.443,5.223914264794438
2025-03-23 11:31:06.443,5.1950007984354984
2025-03-23 11:31:06.443,1.0741903043767984
2025-03-23 11:31:06.444,-1.7804444848239958
2025-03-23 11:31:06.453,-1.520528658027622
2025-03-23 11:31:06.453,-1.3565550723016755
2025-03-23 11:31:06.453,-3.0892233243167126
2025-03-23 11:31:06.453,-3.135026213499467
2025-03-23 11:31:06.463,1.7476310728400097
2025-03-23 11:31:06.463,7.400210010461698
2025-03-23 11:31:06.463,6.038872861958944
2025-03-23 11:31:06.463,-2.7217114030179457
2025-03-23 11:31:06.463,-9.469245058793504
2025-03-23 11:31:06.473,-6.151833080068863
2025-03-23 11:31:06.473,3.5776988153416722
2025-03-23 11:31:06.473,8.733738373198964
2025-03-23 11:31:06.473,4.302521354721034
2025-03-23 11:31:06.473,-3.5386560787867927
2025-03-23 11:31:06.483,-5.847761495912946
2025-03-23 11:31:06.483,-1.4369377767505869
2025-03-23 11:31:06.483,3.0343960999040016
2025-03-23 11:31:06.483,2.078205273983077
2025-03-23 11:31:06.483,-2.131199676266268
2025-03-23 11:31:06.492,-3.1789065467737045
2025-03-23 11:31:06.493,1.095361517930613
2025-03-23 11:31:06.493,5.6217761020299815
2025-03-23 11:31:06.493,4.2726767191722335
2025-03-23 11:31:06.493,-2.4073125266728432
2025-03-23 11:31:06.503,-7.429936119134366
2025-03-23 11:31:06.503,-5.325103204132746
2025-03-23 11:31:06.503,1.7261565673631074
2025-03-23 11:31:06.503,6.610617601006885
2025-03-23 11:31:06.503,5.111419283239881
2025-03-23 11:31:06.513,-0.2948691344377697
2025-03-23 11:31:06.513,-4.056916345438034
2025-03-23 11:31:06.513,-3.432727666007991
2025-03-23 11:31:06.513,-0.31751488604359573
2025-03-23 11:31:06.513,1.6960739716619908
2025-03-23 11:31:06.523,1.0962434310739568
2025-03-23 11:31:06.523,-0.5359700334394932
2025-03-23 11:31:06.523,-0.7216043332254608
2025-03-23 11:31:06.523,0.9344822884806885
2025-03-23 11:31:06.523,2.173212784676853
2025-03-23 11:31:06.531,0.8334979160532929
2025-03-23 11:31:06.531,-2.0975256419184505
2025-03-23 11:31:06.531,-3.1978642143874985
2025-03-23 11:31:06.532,-0.8182920934849521
2025-03-23 11:31:06.532,2.4439642280434515
2025-03-23 11:31:06.541,2.6973273503139894
2025-03-23 11:31:06.541,-0.2598625958228512
2025-03-23 11:31:06.541,-2.5347373399643924
2025-03-23 11:31:06.541,-1.1473317792749718
2025-03-23 11:31:06.551,2.066559625437332
2025-03-23 11:31:06.551,2.8371626060008626
2025-03-23 11:31:06.551,-0.053305046444333204
2025-03-23 11:31:06.551,-3.2940838572784243
2025-03-23 11:31:06.551,-3.1783778209350952
2025-03-23 11:31:06.561,0.1111853512018412
2025-03-23 11:31:06.561,3.0706319836848985
2025-03-23 11:31:06.561,2.981264354475688
2025-03-23 11:31:06.561,0.5008714454222847
2025-03-23 11:31:06.561,-1.7052713112912357
2025-03-23 11:31:06.571,-2.0017760338100876
2025-03-23 11:31:06.571,-0.9489840443640938
2025-03-23 11:31:06.571,0.09586035749290603
2025-03-23 11:31:06.571,0.6430901567622838
2025-03-23 11:31:06.572,0.9916041595979844
2025-03-23 11:31:06.581,1.1083764030090697
2025-03-23 11:31:06.581,0.49224583097763935
2025-03-23 11:31:06.581,-0.7555775702032602
2025-03-23 11:31:06.581,-1.5492617243139009
2025-03-23 11:31:06.581,-1.074358175746939
2025-03-23 11:31:06.591,0.07306142628561318
2025-03-23 11:31:06.591,0.7451803103845008
2025-03-23 11:31:06.591,0.908644451770591
2025-03-23 11:31:06.592,1.357155121599518
2025-03-23 11:31:06.592,1.6938386238091456
2025-03-23 11:31:06.592,0.16438677844574126
2025-03-23 11:31:06.601,-3.320320030710288
2025-03-23 11:31:06.601,-5.243015583134406
2025-03-23 11:31:06.601,-1.920105312388876
2025-03-23 11:31:06.602,4.913154976498902
2025-03-23 11:31:06.611,8.33304129339012
2025-03-23 11:31:06.611,3.7265292268581525
2025-03-23 11:31:06.611,-5.11313173385413
2025-03-23 11:31:06.611,-9.408926678959789
2025-03-23 11:31:06.611,-4.901318959049845
2025-03-23 11:31:06.621,3.6616549625531305
2025-03-23 11:31:06.621,8.023242867144361
2025-03-23 11:31:06.621,5.045773240556543
2025-03-23 11:31:06.621,-1.2215007398244042
2025-03-23 11:31:06.621,-5.008631807997831
2025-03-23 11:31:06.631,-4.365552472709894
2025-03-23 11:31:06.631,-1.205128332724809
2025-03-23 11:31:06.631,1.9072116122515204
2025-03-23 11:31:06.631,3.4325037569838632
2025-03-23 11:31:06.632,2.643303515946047
2025-03-23 11:31:06.641,-0.04418200622154492
2025-03-23 11:31:06.641,-2.5292020633287637
2025-03-23 11:31:06.641,-2.5664184604529314
2025-03-23 11:31:06.641,-0.3458720226075249
2025-03-23 11:31:06.641,1.6425511436632279
2025-03-23 11:31:06.651,1.6448728585883905
2025-03-23 11:31:06.651,0.32117923817362937
2025-03-23 11:31:06.651,-0.8927704178785197
2025-03-23 11:31:06.651,-1.4869665182072387
2025-03-23 11:31:06.651,-1.200425656889014
2025-03-23 11:31:06.661,0.5267345531248183
2025-03-23 11:31:06.661,2.8771487443085184
2025-03-23 11:31:06.661,2.9928228481471484
2025-03-23 11:31:06.661,-0.6279773787422785
2025-03-23 11:31:06.661,-4.762407691515594
2025-03-23 11:31:06.671,-4.287440276907926
2025-03-23 11:31:06.671,1.108414378031498
2025-03-23 11:31:06.671,5.551002730379164
2025-03-23 11:31:06.671,3.881683871434314
2025-03-23 11:31:06.671,-1.809353927366161
2025-03-23 11:31:06.680,-4.776438571907664
2025-03-23 11:31:06.681,-2.015762308697947
2025-03-23 11:31:06.681,2.4377125826208252
2025-03-23 11:31:06.681,3.117601874951887
2025-03-23 11:31:06.681,-0.13263087876828317
2025-03-23 11:31:06.691,-2.700445051836231
2025-03-23 11:31:06.691,-1.4520666150239048
2025-03-23 11:31:06.691,1.6713050807810872
2025-03-23 11:31:06.691,2.6486315058308865
2025-03-23 11:31:06.691,0.3861221695327973
2025-03-23 11:31:06.699,-2.416015022350908
2025-03-23 11:31:06.699,-2.723402034732241
2025-03-23 11:31:06.699,-0.308422796680046
2025-03-23 11:31:06.700,2.495953265810462
2025-03-23 11:31:06.700,3.219306162306774
2025-03-23 11:31:06.709,1.209540377788632
2025-03-23 11:31:06.709,-2.001516855094251
2025-03-23 11:31:06.709,-3.7567281100493695
2025-03-23 11:31:06.709,-2.3352714829966534
2025-03-23 11:31:06.719,1.2042897901900615
2025-03-23 11:31:06.719,3.5348649959284284
2025-03-23 11:31:06.719,2.3760960496591723
2025-03-23 11:31:06.719,-0.7379219094413811
2025-03-23 11:31:06.719,-2.1147174526344346
2025-03-23 11:31:06.729,-0.5528622661390774
2025-03-23 11:31:06.729,1.0970384971852927
2025-03-23 11:31:06.729,-0.008837753735658899
2025-03-23 11:31:06.729,-2.421307470933888
2025-03-23 11:31:06.729,-2.1410096482173335
2025-03-23 11:31:06.739,1.6507936836912924
2025-03-23 11:31:06.739,4.822171098055146
2025-03-23 11:31:06.739,3.2385956700577174
2025-03-23 11:31:06.739,-1.9487092509746533
2025-03-23 11:31:06.739,-5.449799791111804
2025-03-23 11:31:06.749,-3.780462591724777
2025-03-23 11:31:06.749,1.1963603468358075
2025-03-23 11:31:06.749,4.630837578807533
2025-03-23 11:31:06.749,3.6101741834350616
2025-03-23 11:31:06.749,-0.45446479446258436
2025-03-23 11:31:06.759,-3.5941604393358655
2025-03-23 11:31:06.759,-3.0457161368337817
2025-03-23 11:31:06.759,0.32256394362266744
2025-03-23 11:31:06.759,2.991017956164454
2025-03-23 11:31:06.759,2.365744591415952
2025-03-23 11:31:06.769,-0.5490948311148827
2025-03-23 11:31:06.769,-2.395041273340757
2025-03-23 11:31:06.769,-1.3882114584558567
2025-03-23 11:31:06.769,0.7380532361833612
2025-03-23 11:31:06.769,1.2164010684057966
2025-03-23 11:31:06.779,-0.10850549618693855
2025-03-23 11:31:06.779,-0.8402937193280279
2025-03-23 11:31:06.779,0.3696187347621546
2025-03-23 11:31:06.779,1.7634168069999
2025-03-23 11:31:06.779,0.9177802717607673
2025-03-23 11:31:06.789,-1.6565699324555863
2025-03-23 11:31:06.789,-2.8232358587161626
2025-03-23 11:31:06.789,-0.837575291933794
2025-03-23 11:31:06.789,2.2044358930813295
2025-03-23 11:31:06.789,2.812489179366127
2025-03-23 11:31:06.799,0.40342164627309574
2025-03-23 11:31:06.799,-2.023291309978833
2025-03-23 11:31:06.799,-1.7100420158154708
2025-03-23 11:31:06.799,0.4279802680252185
2025-03-23 11:31:06.799,1.226248894577027
2025-03-23 11:31:06.809,-0.28754927586102463
2025-03-23 11:31:06.809,-1.4778761344970273
2025-03-23 11:31:06.809,0.05869697761910105
2025-03-23 11:31:06.809,2.5875066623602367
2025-03-23 11:31:06.809,2.190393586398086
2025-03-23 11:31:06.819,-1.5325305985451312
2025-03-23 11:31:06.819,-4.1106876235893735
2025-03-23 11:31:06.819,-1.8599702865940404
2025-03-23 11:31:06.819,2.841637133886908
2025-03-23 11:31:06.819,4.1988598271152995
2025-03-23 11:31:06.829,0.43582730256309943
2025-03-23 11:31:06.829,-3.8064103941235254
2025-03-23 11:31:06.829,-3.310647776508499
2025-03-23 11:31:06.829,1.235552598303152
2025-03-23 11:31:06.829,4.282205657147516
2025-03-23 11:31:06.837,2.317231564169414
2025-03-23 11:31:06.837,-2.1368861036375475
2025-03-23 11:31:06.837,-3.967411208011643
2025-03-23 11:31:06.838,-1.5541064919145284
2025-03-23 11:31:06.838,1.905494515616657
2025-03-23 11:31:06.847,2.704136852466679
2025-03-23 11:31:06.847,0.7630874064708796
2025-03-23 11:31:06.847,-1.0827780520212142
2025-03-23 11:31:06.848,-0.9290279901473467
2025-03-23 11:31:06.848,0.2682094073969005
2025-03-23 11:31:06.857,0.5493306814589255
2025-03-23 11:31:06.857,-0.39228636321248334
2025-03-23 11:31:06.857,-1.1572085387485502
2025-03-23 11:31:06.858,-0.7132389579345311
2025-03-23 11:31:06.867,0.4566852587004815
2025-03-23 11:31:06.867,1.2945218612354366
2025-03-23 11:31:06.867,1.3589639917459884
2025-03-23 11:31:06.867,0.7173650054842682
2025-03-23 11:31:06.867,-0.5591895691809382
2025-03-23 11:31:06.877,-2.021886718372456
2025-03-23 11:31:06.877,-2.407225719615091
2025-03-23 11:31:06.877,-0.6621007106068851
2025-03-23 11:31:06.877,2.3133024499449633
2025-03-23 11:31:06.877,3.7748516760595248
2025-03-23 11:31:06.887,1.8182572421345187
2025-03-23 11:31:06.887,-2.141868996121676
2025-03-23 11:31:06.887,-4.311522911085872
2025-03-23 11:31:06.887,-2.3869912319460282
2025-03-23 11:31:06.887,1.7850466522535937
2025-03-23 11:31:06.897,3.9758963066036475
2025-03-23 11:31:06.897,2.101911430183678
2025-03-23 11:31:06.897,-1.5432281018568397
2025-03-23 11:31:06.897,-3.0041108041810287
2025-03-23 11:31:06.897,-1.1700906672761933
2025-03-23 11:31:06.907,1.311406344034932
2025-03-23 11:31:06.907,1.626886738535285
2025-03-23 11:31:06.907,0.1251834529643694
2025-03-23 11:31:06.907,-0.7679137979204288
2025-03-23 11:31:06.907,-0.1069304022693186
2025-03-23 11:31:06.917,0.5958078783791871
2025-03-23 11:31:06.917,-0.023764430329581077
2025-03-23 11:31:06.917,-1.0891871828218669
2025-03-23 11:31:06.917,-0.8750534257720581
2025-03-23 11:31:06.917,0.5879422592074234
2025-03-23 11:31:06.927,1.5119917948708752
2025-03-23 11:31:06.927,0.7968879013639871
2025-03-23 11:31:06.927,-0.6058487605307243
2025-03-23 11:31:06.927,-1.1108376103201065
2025-03-23 11:31:06.927,-0.4938633533657629
2025-03-23 11:31:06.937,0.18668306948759986
2025-03-23 11:31:06.937,0.24324496379422952
2025-03-23 11:31:06.937,0.09123927379008999
2025-03-23 11:31:06.937,0.2831131314227187
2025-03-23 11:31:06.937,0.577855044037685
2025-03-23 11:31:06.947,0.38679281243508157
2025-03-23 11:31:06.947,-0.32342113891464724
2025-03-23 11:31:06.947,-1.011294748808947
2025-03-23 11:31:06.947,-1.11668140029328
2025-03-23 11:31:06.947,-0.3298986103968505
2025-03-23 11:31:06.956,1.1661057398005261
2025-03-23 11:31:06.957,2.249624753409103
2025-03-23 11:31:06.957,1.3891531797106857
2025-03-23 11:31:06.957,-1.375211021875019
2025-03-23 11:31:06.957,-3.4671825259838114
2025-03-23 11:31:06.967,-2.232641562549993
2025-03-23 11:31:06.967,1.528852684693794
2025-03-23 11:31:06.967,3.9424318664507565
2025-03-23 11:31:06.967,2.557114191148233
2025-03-23 11:31:06.967,-0.842071163223153
2025-03-23 11:31:06.975,-2.8330375992507375
2025-03-23 11:31:06.975,-2.4656781842801903
2025-03-23 11:31:06.975,-1.2528169801361961
2025-03-23 11:31:06.976,-0.04117762760365802
2025-03-23 11:31:06.985,1.7969449788478673
2025-03-23 11:31:06.985,3.8606502320782274
2025-03-23 11:31:06.985,3.701901640117848
2025-03-23 11:31:06.985,-0.12391161217711444
2025-03-23 11:31:06.986,-5.028735566140858
2025-03-23 11:31:06.995,-6.259683420018749
2025-03-23 11:31:06.995,-2.0987491051680776
2025-03-23 11:31:06.995,3.8386524908321293
2025-03-23 11:31:06.995,6.171040793493035
2025-03-23 11:31:06.996,3.2628226740390924
2025-03-23 11:31:07.005,-1.4367327370702296
2025-03-23 11:31:07.005,-3.5147791352268363
2025-03-23 11:31:07.005,-2.2420438670421565
2025-03-23 11:31:07.005,-0.40314268050817886
2025-03-23 11:31:07.005,-0.04987936931350743
2025-03-23 11:31:07.015,-0.08224883143053321
2025-03-23 11:31:07.015,1.1787894243471524
2025-03-23 11:31:07.015,2.5864071772530415
2025-03-23 11:31:07.015,1.5113281126893106
2025-03-23 11:31:07.015,-1.715116110619199
2025-03-23 11:31:07.025,-3.2648513624938715
2025-03-23 11:31:07.025,-0.8517068302732707
2025-03-23 11:31:07.025,2.667558306557167
2025-03-23 11:31:07.025,2.7361890544258802
2025-03-23 11:31:07.025,-0.8569788624487221
2025-03-23 11:31:07.035,-3.642419770394964
2025-03-23 11:31:07.035,-2.1951559648393624
2025-03-23 11:31:07.035,1.7809299137040477
2025-03-23 11:31:07.035,3.8692278616066518
2025-03-23 11:31:07.035,2.11724301758023
2025-03-23 11:31:07.043,-1.312916694176114
2025-03-23 11:31:07.043,-3.0585834631775377
2025-03-23 11:31:07.043,-2.010621094350958
2025-03-23 11:31:07.043,0.20721544731218064
2025-03-23 11:31:07.044,1.4379991865067545
2025-03-23 11:31:07.055,1.136645864817314
2025-03-23 11:31:07.055,0.42400060687977936
2025-03-23 11:31:07.055,0.40053179768920427
2025-03-23 11:31:07.055,0.7391190011241514
2025-03-23 11:31:07.055,0.16095961539964254
2025-03-23 11:31:07.065,-1.6568774825294168
2025-03-23 11:31:07.065,-3.015435857086424
2025-03-23 11:31:07.065,-1.7442688373316932
2025-03-23 11:31:07.065,1.8776436749642338
2025-03-23 11:31:07.065,4.496804801161774
2025-03-23 11:31:07.073,3.0426308277599494
2025-03-23 11:31:07.073,-1.3966255919809911
2025-03-23 11:31:07.073,-4.289337624625522
2025-03-23 11:31:07.074,-2.768333180140961
2025-03-23 11:31:07.074,1.0324214121810589
2025-03-23 11:31:07.083,2.711723680683694
2025-03-23 11:31:07.083,0.9307908117640435
2025-03-23 11:31:07.083,-1.3731279770447422
2025-03-23 11:31:07.084,-1.0704810047125095
2025-03-23 11:31:07.084,1.2324558799439858
2025-03-23 11:31:07.093,2.213753832646931
2025-03-23 11:31:07.093,0.22938029085471529
2025-03-23 11:31:07.093,-2.483326870302019
2025-03-23 11:31:07.094,-2.5533824640050944
2025-03-23 11:31:07.094,0.19235615032048645
2025-03-23 11:31:07.103,2.3834008003848024
2025-03-23 11:31:07.103,1.4511847490265635
2025-03-23 11:31:07.104,-0.9555466866145179
2025-03-23 11:31:07.104,-1.2752405136272593
2025-03-23 11:31:07.104,0.9031327477285671
2025-03-23 11:31:07.113,2.136715088505408
2025-03-23 11:31:07.113,0.01109351847989809
2025-03-23 11:31:07.113,-3.1688952788170766
2025-03-23 11:31:07.114,-3.1829013784477564
2025-03-23 11:31:07.114,0.5401900286476674
2025-03-23 11:31:07.123,4.06124058537882
2025-03-23 11:31:07.123,3.668988361100463
2025-03-23 11:31:07.123,-0.07284755348398861
2025-03-23 11:31:07.124,-3.4849354880117924
2025-03-23 11:31:07.133,-3.738113221559042
2025-03-23 11:31:07.133,-0.9779431530234572
2025-03-23 11:31:07.133,2.4300539247238544
2025-03-23 11:31:07.134,3.7662382759073494
2025-03-23 11:31:07.134,1.8140979992242918
2025-03-23 11:31:07.143,-1.8942171540593125
2025-03-23 11:31:07.143,-3.8929296940406783
2025-03-23 11:31:07.143,-2.004299614361013
2025-03-23 11:31:07.143,2.0233867462618536
2025-03-23 11:31:07.144,3.979895925299125
2025-03-23 11:31:07.153,1.74758975280765
2025-03-23 11:31:07.153,-2.23787859581062
2025-03-23 11:31:07.153,-3.6910041821876955
2025-03-23 11:31:07.153,-1.266403590415612
2025-03-23 11:31:07.154,2.1105921726011356
2025-03-23 11:31:07.163,2.7419629561889254
2025-03-23 11:31:07.163,0.3126386697002998
2025-03-23 11:31:07.163,-1.967775364043161
2025-03-23 11:31:07.163,-1.2618141855552367
2025-03-23 11:31:07.164,1.4280608187111277
2025-03-23 11:31:07.173,2.339394499725516
2025-03-23 11:31:07.173,-0.33216665375161025
2025-03-23 11:31:07.173,-3.6279406126785996
2025-03-23 11:31:07.173,-2.9923737883827917
2025-03-23 11:31:07.173,1.7561441461755107
2025-03-23 11:31:07.183,5.322809425796238
2025-03-23 11:31:07.183,3.0705669840968253
2025-03-23 11:31:07.183,-2.885929493556173
2025-03-23 11:31:07.183,-5.775906652048332
2025-03-23 11:31:07.183,-2.279733336233749
2025-03-23 11:31:07.192,3.5267260853690385
2025-03-23 11:31:07.193,5.193743373801748
2025-03-23 11:31:07.193,1.3226019366725794
2025-03-23 11:31:07.193,-3.4665007727670645
2025-03-23 11:31:07.193,-4.25174315958057
2025-03-23 11:31:07.203,-0.907834276217318
2025-03-23 11:31:07.203,2.669530963677864
2025-03-23 11:31:07.203,3.194965228672257
2025-03-23 11:31:07.203,0.9657922171017053
2025-03-23 11:31:07.203,-1.37001677674978
2025-03-23 11:31:07.213,-1.9442454271963137
2025-03-23 11:31:07.213,-1.0473127349577473
2025-03-23 11:31:07.213,0.06587424131861049
2025-03-23 11:31:07.213,0.7363985957214394
2025-03-23 11:31:07.213,0.9723433937026437
2025-03-23 11:31:07.223,0.7299515067963711
2025-03-23 11:31:07.223,-0.05915392233478689
2025-03-23 11:31:07.223,-0.9044783685818875
2025-03-23 11:31:07.223,-0.9459638622361245
2025-03-23 11:31:07.223,0.020390679008751647
2025-03-23 11:31:07.231,1.0786247117721597
2025-03-23 11:31:07.231,1.0573470204434803
2025-03-23 11:31:07.232,-0.1900003629555718
2025-03-23 11:31:07.232,-1.4998568669310164
2025-03-23 11:31:07.232,-1.4797611482224982
2025-03-23 11:31:07.243,0.052118638732911934
2025-03-23 11:31:07.243,1.7522170276044287
2025-03-23 11:31:07.243,2.017608773539719
2025-03-23 11:31:07.243,0.5722790928035318
2025-03-23 11:31:07.243,-1.3112940892878735
2025-03-23 11:31:07.253,-2.1006134443081064
2025-03-23 11:31:07.253,-1.3467993660794966
2025-03-23 11:31:07.253,0.1684529704158349
2025-03-23 11:31:07.253,1.3344436381556042
2025-03-23 11:31:07.253,1.6172731825731903
2025-03-23 11:31:07.261,1.164561979645318
2025-03-23 11:31:07.261,0.2526834497792755
2025-03-23 11:31:07.261,-1.0098383630294188
2025-03-23 11:31:07.262,-2.209821770375873
2025-03-23 11:31:07.262,-2.2446140789141866
2025-03-23 11:31:07.271,-0.25062023667492017
2025-03-23 11:31:07.271,2.7608250814048825
2025-03-23 11:31:07.271,3.9856784816870667
2025-03-23 11:31:07.272,1.584743135526872
2025-03-23 11:31:07.272,-2.70491548641591
2025-03-23 11:31:07.281,-4.772031762767766
2025-03-23 11:31:07.281,-2.4642917358125174
2025-03-23 11:31:07.282,1.9478854806873915
2025-03-23 11:31:07.282,4.251767497087644
2025-03-23 11:31:07.282,2.718243825339018
2025-03-23 11:31:07.291,-0.6627349649283029
2025-03-23 11:31:07.291,-2.869413608308267
2025-03-23 11:31:07.291,-2.644998252497861
2025-03-23 11:31:07.291,-0.6787390132918758
2025-03-23 11:31:07.301,1.612447870864157
2025-03-23 11:31:07.301,2.739020940619702
2025-03-23 11:31:07.301,1.6430591845198164
2025-03-23 11:31:07.301,-1.0995702944760373
2025-03-23 11:31:07.301,-2.960858428745077
2025-03-23 11:31:07.311,-1.830012178897348
2025-03-23 11:31:07.311,1.1303000749090346
2025-03-23 11:31:07.311,2.4646161402399143
2025-03-23 11:31:07.311,0.8276407440584189
2025-03-23 11:31:07.311,-1.1598110816872138
2025-03-23 11:31:07.321,-0.6639730981100138
2025-03-23 11:31:07.321,1.1908789995472373
2025-03-23 11:31:07.321,0.9878130285360238
2025-03-23 11:31:07.321,-1.7187431014879029
2025-03-23 11:31:07.321,-3.273550787467622
2025-03-23 11:31:07.331,-0.8188079530407864
2025-03-23 11:31:07.331,3.4630846388750403
2025-03-23 11:31:07.331,4.588216019446835
2025-03-23 11:31:07.331,0.7587016487640273
2025-03-23 11:31:07.331,-4.250391244565702
2025-03-23 11:31:07.341,-5.110072694747365
2025-03-23 11:31:07.341,-0.7483960893079336
2025-03-23 11:31:07.341,4.445586680967753
2025-03-23 11:31:07.341,5.221101544964264
2025-03-23 11:31:07.341,0.878193767933366
2025-03-23 11:31:07.351,-4.155906231501951
2025-03-23 11:31:07.351,-4.983925530923468
2025-03-23 11:31:07.351,-1.135745244603632
2025-03-23 11:31:07.351,3.278785729239876
2025-03-23 11:31:07.351,4.051544437640478
2025-03-23 11:31:07.361,1.0964020524810802
2025-03-23 11:31:07.361,-2.0005915310978506
2025-03-23 11:31:07.361,-2.2488916456655654
2025-03-23 11:31:07.361,-0.31096941906123515
2025-03-23 11:31:07.361,0.9203919774784922
2025-03-23 11:31:07.371,0.0648770839872004
2025-03-23 11:31:07.371,-1.2673746951155989
2025-03-23 11:31:07.371,-0.7389363838761037
2025-03-23 11:31:07.371,1.6296130833295541
2025-03-23 11:31:07.371,3.1818042588718582
2025-03-23 11:31:07.379,1.5645651216541132
2025-03-23 11:31:07.379,-2.2805509198875864
2025-03-23 11:31:07.379,-4.5836750886530515
2025-03-23 11:31:07.380,-2.6379787939750874
2025-03-23 11:31:07.380,1.98065769154977
2025-03-23 11:31:07.389,4.7533467039538815
2025-03-23 11:31:07.389,2.987372759405603
2025-03-23 11:31:07.389,-1.3044897658925094
2025-03-23 11:31:07.390,-3.7162081077657434
2025-03-23 11:31:07.399,-2.228384478170014
2025-03-23 11:31:07.399,0.9594073151345218
2025-03-23 11:31:07.399,2.2785739132771643
2025-03-23 11:31:07.400,0.7606852589398079
2025-03-23 11:31:07.400,-1.287709684391729
2025-03-23 11:31:07.409,-1.3019143841545613
2025-03-23 11:31:07.409,0.5476637632890091
2025-03-23 11:31:07.409,1.8296985592497763
2025-03-23 11:31:07.410,0.9728837368565606
2025-03-23 11:31:07.410,-0.9501416140214903
2025-03-23 11:31:07.419,-1.8008208097801974
2025-03-23 11:31:07.419,-0.9219738097750072
2025-03-23 11:31:07.419,0.530666350143367
2025-03-23 11:31:07.420,1.2218273008765694
2025-03-23 11:31:07.420,0.799826339611229
2025-03-23 11:31:07.429,-0.22549683070183263
2025-03-23 11:31:07.429,-0.9518904910794583
2025-03-23 11:31:07.429,-0.606411259500946
2025-03-23 11:31:07.429,0.640700728118346
2025-03-23 11:31:07.430,1.4559081341757207
2025-03-23 11:31:07.439,0.6574929493535236
2025-03-23 11:31:07.439,-1.201832094211395
2025-03-23 11:31:07.439,-2.2024096480781736
2025-03-23 11:31:07.439,-1.167422673892144
2025-03-23 11:31:07.440,1.0421902909361795
2025-03-23 11:31:07.449,2.451936945571022
2025-03-23 11:31:07.449,1.8473216473304246
2025-03-23 11:31:07.449,-0.261055460377714
2025-03-23 11:31:07.449,-2.115536840615886
2025-03-23 11:31:07.449,-2.121145179176939
2025-03-23 11:31:07.459,-0.2536293864322886
2025-03-23 11:31:07.459,1.7290397388245369
2025-03-23 11:31:07.459,1.8281201920356636
2025-03-23 11:31:07.459,-0.1077239540802272
2025-03-23 11:31:07.459,-1.97630307048138
2025-03-23 11:31:07.469,-1.5028478308975761
2025-03-23 11:31:07.469,1.1368209883907683
2025-03-23 11:31:07.469,3.1087659143015443
2025-03-23 11:31:07.469,1.7984206444213617
2025-03-23 11:31:07.469,-2.0600353075553883
2025-03-23 11:31:07.479,-4.617733159632714
2025-03-23 11:31:07.479,-2.783124823644753
2025-03-23 11:31:07.479,2.186289325475624
2025-03-23 11:31:07.479,5.519577487795184
2025-03-23 11:31:07.479,3.7685853340205173
2025-03-23 11:31:07.489,-1.4195903228801061
2025-03-23 11:31:07.489,-4.9247133755904215
2025-03-23 11:31:07.489,-3.6375263491522905
2025-03-23 11:31:07.489,0.3407102705268879
2025-03-23 11:31:07.489,2.553130438211226
2025-03-23 11:31:07.499,1.6007816880319405
2025-03-23 11:31:07.499,0.24683436658046784
2025-03-23 11:31:07.499,0.8863397473059833
2025-03-23 11:31:07.499,1.8422732289510668
2025-03-23 11:31:07.499,0.004779766139518107
2025-03-23 11:31:07.509,-3.8344505165181557
2025-03-23 11:31:07.509,-4.983811370992643
2025-03-23 11:31:07.509,-0.8731393237203751
2025-03-23 11:31:07.509,4.971063329169544
2025-03-23 11:31:07.509,6.523415624051707
2025-03-23 11:31:07.519,1.9740196571851445
2025-03-23 11:31:07.519,-4.39322139379065
2025-03-23 11:31:07.519,-6.672788593914605
2025-03-23 11:31:07.519,-2.9386094054826897
2025-03-23 11:31:07.519,3.2139326759949483
2025-03-23 11:31:07.527,6.1164384160864165
2025-03-23 11:31:07.527,3.361137753582876
2025-03-23 11:31:07.528,-1.95616081946014
2025-03-23 11:31:07.528,-4.664967081396922
2025-03-23 11:31:07.528,-3.0173146153922463
2025-03-23 11:31:07.539,0.22519123441538402
2025-03-23 11:31:07.539,1.97290632574723
2025-03-23 11:31:07.539,2.12119611861566
2025-03-23 11:31:07.539,1.9096772480114697
2025-03-23 11:31:07.539,1.0900338020361788
2025-03-23 11:31:07.549,-1.1475581629364755
2025-03-23 11:31:07.549,-3.448185098394809
2025-03-23 11:31:07.549,-3.0347671055845957
2025-03-23 11:31:07.549,0.4523271508376801
2025-03-23 11:31:07.549,3.7026315678718404
2025-03-23 11:31:07.557,3.3489240012391646
2025-03-23 11:31:07.557,-0.10713365123808682
2025-03-23 11:31:07.557,-2.992421690435906
2025-03-23 11:31:07.558,-2.6575901059559657
2025-03-23 11:31:07.567,-0.026341221095350142
2025-03-23 11:31:07.567,2.001171592231294
2025-03-23 11:31:07.567,1.7781944953710362
2025-03-23 11:31:07.568,0.11009962910540189
2025-03-23 11:31:07.568,-1.181764554996756
2025-03-23 11:31:07.577,-1.1505424038856003
2025-03-23 11:31:07.577,-0.20752685989426223
2025-03-23 11:31:07.577,0.6795509382649045
2025-03-23 11:31:07.577,0.8788428828763493
2025-03-23 11:31:07.578,0.3572352098166488
2025-03-23 11:31:07.587,-0.4797013368602189
2025-03-23 11:31:07.587,-0.9818098463332403
2025-03-23 11:31:07.587,-0.6030184188131028
2025-03-23 11:31:07.587,0.4984909390086476
2025-03-23 11:31:07.588,1.3176598712284442
2025-03-23 11:31:07.597,0.9375004205075059
2025-03-23 11:31:07.597,-0.38088150453600295
2025-03-23 11:31:07.597,-1.4379294607507302
2025-03-23 11:31:07.597,-1.3682174518913268
2025-03-23 11:31:07.597,-0.2874943867987477
2025-03-23 11:31:07.607,1.0819382259237775
2025-03-23 11:31:07.607,1.8239288237709674
2025-03-23 11:31:07.607,1.1709059037577763
2025-03-23 11:31:07.607,-0.6339491508616969
2025-03-23 11:31:07.607,-1.9220835141773835
2025-03-23 11:31:07.617,-1.1798402011967712
2025-03-23 11:31:07.617,0.7528967234855548
2025-03-23 11:31:07.617,1.3065297898675021
2025-03-23 11:31:07.617,-0.3544415621510182
2025-03-23 11:31:07.617,-1.7371597087023272
2025-03-23 11:31:07.627,-0.24226003652330402
2025-03-23 11:31:07.627,2.775033545775581
2025-03-23 11:31:07.627,3.140773694144684
2025-03-23 11:31:07.627,-0.5909289724763401
2025-03-23 11:31:07.627,-4.5651396586805895
2025-03-23 11:31:07.637,-3.9986427047156257
2025-03-23 11:31:07.637,0.8371214148908632
2025-03-23 11:31:07.637,4.749522841045973
2025-03-23 11:31:07.637,3.711915058964889
2025-03-23 11:31:07.637,-0.7099720247313485
2025-03-23 11:31:07.647,-3.642554703189504
2025-03-23 11:31:07.647,-2.5288299681338167
2025-03-23 11:31:07.647,0.6155498183454622
2025-03-23 11:31:07.647,2.1826480140646916
2025-03-23 11:31:07.647,1.0425574446168104
2025-03-23 11:31:07.657,-0.7967061323131024
2025-03-23 11:31:07.657,-0.9945758694395129
2025-03-23 11:31:07.657,0.41602209419846514
2025-03-23 11:31:07.657,1.3331501944256066
2025-03-23 11:31:07.657,0.2813725534985194
2025-03-23 11:31:07.665,-1.6868117340900106
2025-03-23 11:31:07.665,-2.1230042185771603
2025-03-23 11:31:07.666,-0.1202856451904808
2025-03-23 11:31:07.666,2.3945687081607265
2025-03-23 11:31:07.666,2.702459870491981
2025-03-23 11:31:07.675,0.3917171127342727
2025-03-23 11:31:07.675,-2.153932216054058
2025-03-23 11:31:07.675,-2.4588870812337733
2025-03-23 11:31:07.676,-0.606553821389662
2025-03-23 11:31:07.685,1.1866205116254436
2025-03-23 11:31:07.685,1.2723073233410935
2025-03-23 11:31:07.685,0.21735852033864306
2025-03-23 11:31:07.686,-0.30620108841094945
2025-03-23 11:31:07.686,0.27197572157971606
2025-03-23 11:31:07.686,0.8289531382617576
2025-03-23 11:31:07.695,0.14840400001567353
2025-03-23 11:31:07.695,-1.3484656653864093
2025-03-23 11:31:07.695,-1.936959314394443
2025-03-23 11:31:07.696,-0.6592119915704377
2025-03-23 11:31:07.705,1.4104278316908494
2025-03-23 11:31:07.705,2.3140062475087437
2025-03-23 11:31:07.705,1.3448200724392918
2025-03-23 11:31:07.705,-0.431361770281691
2025-03-23 11:31:07.706,-1.614356313707456
2025-03-23 11:31:07.715,-1.7503510187287528
2025-03-23 11:31:07.715,-1.0700753534334881
2025-03-23 11:31:07.715,0.2155748464331417
2025-03-23 11:31:07.715,1.6776587932577858
2025-03-23 11:31:07.716,2.240951672589241
2025-03-23 11:31:07.725,1.0434537378834323
2025-03-23 11:31:07.725,-1.1649294785147934
2025-03-23 11:31:07.725,-2.3798235587708523
2025-03-23 11:31:07.726,-1.536897091929049
2025-03-23 11:31:07.726,0.3129232301019599
2025-03-23 11:31:07.735,1.4750128836633016
2025-03-23 11:31:07.735,1.4845214660138695
2025-03-23 11:31:07.735,0.819594980783815
2025-03-23 11:31:07.735,-0.3262833456056328
2025-03-23 11:31:07.736,-1.6896928795903523
2025-03-23 11:31:07.745,-1.9881595577376436
2025-03-23 11:31:07.745,-0.13449731393598235
2025-03-23 11:31:07.745,2.4888658487297826
2025-03-23 11:31:07.745,2.773324302090546
2025-03-23 11:31:07.745,-0.2196222927456487
2025-03-23 11:31:07.755,-3.3958517490716598
2025-03-23 11:31:07.755,-2.989279072071421
2025-03-23 11:31:07.755,0.7658458428442033
2025-03-23 11:31:07.755,3.710313711070231
2025-03-23 11:31:07.756,2.653194409478519
2025-03-23 11:31:07.765,-0.9901213299582245
2025-03-23 11:31:07.765,-3.1454581245229316
2025-03-23 11:31:07.765,-1.8536687921874433
2025-03-23 11:31:07.765,0.9620223618679051
2025-03-23 11:31:07.766,2.193887038555106
2025-03-23 11:31:07.775,0.9023811984191106
2025-03-23 11:31:07.775,-1.1800834692635704
2025-03-23 11:31:07.775,-1.69767232287476
2025-03-23 11:31:07.775,-0.01683018788675894
2025-03-23 11:31:07.776,1.9922465623097783
2025-03-23 11:31:07.783,1.710367018571664
2025-03-23 11:31:07.783,-1.03056468719872
2025-03-23 11:31:07.784,-3.03802415083889
2025-03-23 11:31:07.784,-1.3859883217888518
2025-03-23 11:31:07.784,2.3506579318935747
2025-03-23 11:31:07.793,3.4600250241387247
2025-03-23 11:31:07.793,0.21137775386295996
2025-03-23 11:31:07.793,-3.4494661604320953
2025-03-23 11:31:07.794,-2.835967320674253
2025-03-23 11:31:07.794,1.3172115260524757
2025-03-23 11:31:07.803,3.8275916155171794
2025-03-23 11:31:07.803,1.7622659354543664
2025-03-23 11:31:07.803,-2.1545017107370423
2025-03-23 11:31:07.804,-3.4664610791237815
2025-03-23 11:31:07.813,-1.3783872816850793
2025-03-23 11:31:07.813,1.3063342322192488
2025-03-23 11:31:07.813,2.4105725274449004
2025-03-23 11:31:07.814,2.280354569233955
2025-03-23 11:31:07.814,1.5124878102705606
2025-03-23 11:31:07.814,-0.6433500702115533
2025-03-23 11:31:07.823,-3.98017958093142
2025-03-23 11:31:07.823,-5.217106173844259
2025-03-23 11:31:07.824,-1.2351098562256768
2025-03-23 11:31:07.824,5.45598534506132
2025-03-23 11:31:07.833,7.659808790711259
2025-03-23 11:31:07.833,1.942149289727877
2025-03-23 11:31:07.833,-5.949187364959972
2025-03-23 11:31:07.834,-7.198094481077201
2025-03-23 11:31:07.834,-0.7733974189879829
2025-03-23 11:31:07.843,5.26779987774797
2025-03-23 11:31:07.843,4.103618199569498
2025-03-23 11:31:07.843,-1.5244312490080474
2025-03-23 11:31:07.843,-3.754773118960781
2025-03-23 11:31:07.844,-0.20653678578463264
2025-03-23 11:31:07.853,3.5578870962222604
2025-03-23 11:31:07.853,2.1346014323609204
2025-03-23 11:31:07.853,-2.629766202569849
2025-03-23 11:31:07.853,-4.538518570727182
2025-03-23 11:31:07.854,-1.1301552181288383
2025-03-23 11:31:07.863,3.619366463923331
2025-03-23 11:31:07.863,4.453866367166565
2025-03-23 11:31:07.863,0.7977069754942597
2025-03-23 11:31:07.863,-3.1734390733615356
2025-03-23 11:31:07.863,-3.4904171467685243
2025-03-23 11:31:07.873,-0.4383327539666656
2025-03-23 11:31:07.873,2.3130785698081144
2025-03-23 11:31:07.873,1.9394199586035343
2025-03-23 11:31:07.873,-0.6546453299530699
2025-03-23 11:31:07.873,-2.098796585508785
2025-03-23 11:31:07.881,-0.3978487969985065
2025-03-23 11:31:07.881,2.669922430717913
2025-03-23 11:31:07.882,3.2081871053394773
2025-03-23 11:31:07.882,-0.4344380840630286
2025-03-23 11:31:07.882,-5.113718709828743
2025-03-23 11:31:07.891,-5.533368742523654
2025-03-23 11:31:07.891,-0.018054941361002497
2025-03-23 11:31:07.892,6.836218207575484
2025-03-23 11:31:07.892,8.201498909542842
2025-03-23 11:31:07.892,1.9767001490319178
2025-03-23 11:31:07.901,-6.664902161492094
2025-03-23 11:31:07.901,-9.956844334237612
2025-03-23 11:31:07.901,-4.801025638691715
2025-03-23 11:31:07.902,4.393548137711158
2025-03-23 11:31:07.911,9.728138493371077
2025-03-23 11:31:07.911,6.8321958636291065
2025-03-23 11:31:07.911,-1.3486528474597612
2025-03-23 11:31:07.911,-7.360311225054009
2025-03-23 11:31:07.912,-6.27460558997322
2025-03-23 11:31:07.921,-0.3055296667042706
2025-03-23 11:31:07.921,3.923746859831207
2025-03-23 11:31:07.921,2.7760965072895556
2025-03-23 11:31:07.921,-0.7217078405222073
2025-03-23 11:31:07.922,-1.2499865238329035
2025-03-23 11:31:07.931,1.883504970918997
2025-03-23 11:31:07.931,3.9116930776651597
2025-03-23 11:31:07.931,0.7982819148896737
2025-03-23 11:31:07.931,-5.204867586129949
2025-03-23 11:31:07.932,-7.43151970494748
2025-03-23 11:31:07.941,-2.297248561543892
2025-03-23 11:31:07.941,5.947776483655792
2025-03-23 11:31:07.941,9.084893358926161
2025-03-23 11:31:07.941,3.7944984151557395
2025-03-23 11:31:07.942,-4.490699411992569
2025-03-23 11:31:07.951,-7.5927046917655865
2025-03-23 11:31:07.951,-3.5258265407899207
2025-03-23 11:31:07.951,2.185256515869911
2025-03-23 11:31:07.951,3.7191870423612667
2025-03-23 11:31:07.952,1.2955457521025793
2025-03-23 11:31:07.961,-0.6292997496103602
2025-03-23 11:31:07.961,0.22852776770821895
2025-03-23 11:31:07.961,1.6279210698765894
2025-03-23 11:31:07.961,0.7753315385622167
2025-03-23 11:31:07.961,-1.7416107191066375
2025-03-23 11:31:07.971,-3.3660230515462284
2025-03-23 11:31:07.971,-3.002653115041051
2025-03-23 11:31:07.971,-0.9048691713789508
2025-03-23 11:31:07.971,2.965555989130409
2025-03-23 11:31:07.972,7.166384114276705
2025-03-23 11:31:07.979,6.959969025993037
2025-03-23 11:31:07.979,-0.7967591429534967
2025-03-23 11:31:07.979,-10.779356817733634
2025-03-23 11:31:07.980,-12.491746733303653
2025-03-23 11:31:07.989,-2.6648438662336233
2025-03-23 11:31:07.989,9.620535823150796
2025-03-23 11:31:07.989,13.063437816136593
2025-03-23 11:31:07.990,6.386904194890772
2025-03-23 11:31:07.990,-2.602941743532803
2025-03-23 11:31:07.999,-7.427615540835122
2025-03-23 11:31:07.999,-7.9490517720943865
2025-03-23 11:31:07.999,-6.0160741516922345
2025-03-23 11:31:07.999,-1.40520102911164
2025-03-23 11:31:07.999,5.615411054954061
2025-03-23 11:31:08.007,10.824943314519878
2025-03-23 11:31:08.007,8.871018788884339
2025-03-23 11:31:08.007,-0.3496674978313042
2025-03-23 11:31:08.008,-10.11026673806528
2025-03-23 11:31:08.017,-12.503085602161555
2025-03-23 11:31:08.017,-5.422777589188163
2025-03-23 11:31:08.017,5.704526178985321
2025-03-23 11:31:08.017,12.405297972772543
2025-03-23 11:31:08.018,9.803447403980291
2025-03-23 11:31:08.027,0.21656662599592974
2025-03-23 11:31:08.027,-9.076534554876162
2025-03-23 11:31:08.027,-11.783399763659778
2025-03-23 11:31:08.027,-6.723947085825577
2025-03-23 11:31:08.028,2.7192965083173823
2025-03-23 11:31:08.035,11.10780790356166
2025-03-23 11:31:08.035,12.805312799018859
2025-03-23 11:31:08.036,5.003504675902396
2025-03-23 11:31:08.036,-8.023181000330304
2025-03-23 11:31:08.045,-15.78966598958953
2025-03-23 11:31:08.045,-10.802095776844238
2025-03-23 11:31:08.045,2.9922661776837574
2025-03-23 11:31:08.046,13.527359967065367
2025-03-23 11:31:08.046,12.515130712206918
2025-03-23 11:31:08.055,2.3851465559532263
2025-03-23 11:31:08.055,-7.763372882794002
2025-03-23 11:31:08.055,-10.627796100980918
2025-03-23 11:31:08.055,-5.480392307293247
2025-03-23 11:31:08.055,2.5828055975358173
2025-03-23 11:31:08.063,7.038501132005507
2025-03-23 11:31:08.063,5.13571298005827
2025-03-23 11:31:08.064,-0.12055795098909178
2025-03-23 11:31:08.064,-3.43938234512265
2025-03-23 11:31:08.064,-2.6745829290520873
2025-03-23 11:31:08.073,-0.22080599911818288
2025-03-23 11:31:08.073,0.6936799149257596
2025-03-23 11:31:08.074,-0.10423878347649068
2025-03-23 11:31:08.074,-0.25071119629708244
2025-03-23 11:31:08.083,1.2701175593009333
2025-03-23 11:31:08.083,2.215906229531718
2025-03-23 11:31:08.083,0.24413361282092713
2025-03-23 11:31:08.084,-2.8927805316631767
2025-03-23 11:31:08.084,-2.826657832895162
2025-03-23 11:31:08.093,1.1336434736226368
2025-03-23 11:31:08.093,3.986970309727372
2025-03-23 11:31:08.093,1.5195992434354697
2025-03-23 11:31:08.094,-3.3051945421950077
2025-03-23 11:31:08.094,-3.8266702010606863
2025-03-23 11:31:08.103,1.0661217008514954
2025-03-23 11:31:08.103,4.887546159727082
2025-03-23 11:31:08.103,2.040416282090012
2025-03-23 11:31:08.104,-4.342076027738486
2025-03-23 11:31:08.104,-5.724209262883348
2025-03-23 11:31:08.113,1.0263827120855606
2025-03-23 11:31:08.113,8.545760109089269
2025-03-23 11:31:08.113,6.714336132121982
2025-03-23 11:31:08.114,-4.5958988377927845
2025-03-23 11:31:08.114,-13.187932570336082
2025-03-23 11:31:08.123,-7.718919824435657
2025-03-23 11:31:08.123,7.736033828892619
2025-03-23 11:31:08.123,16.352296079622068
2025-03-23 11:31:08.123,7.5640890549279804
2025-03-23 11:31:08.124,-9.693552324481514
2025-03-23 11:31:08.133,-16.484151814451458
2025-03-23 11:31:08.133,-5.744398318665894
2025-03-23 11:31:08.133,9.761162693987602
2025-03-23 11:31:08.133,13.119171650666743
2025-03-23 11:31:08.133,2.953228596647143
2025-03-23 11:31:08.141,-7.080347270475237
2025-03-23 11:31:08.141,-6.633185839113467
2025-03-23 11:31:08.142,-0.09558019444838117
2025-03-23 11:31:08.142,2.2523181211869048
2025-03-23 11:31:08.142,-1.133771345828437
2025-03-23 11:31:08.151,-2.744191991697161
2025-03-23 11:31:08.152,1.7560148099316892
2025-03-23 11:31:08.152,7.0628900216154875
2025-03-23 11:31:08.152,5.6413790465595355
2025-03-23 11:31:08.152,-2.247335363478733
2025-03-23 11:31:08.161,-8.822025821789424
2025-03-23 11:31:08.161,-7.643459076563341
2025-03-23 11:31:08.162,-0.036275561255072086
2025-03-23 11:31:08.162,6.871638309374405
2025-03-23 11:31:08.171,7.21050341664155
2025-03-23 11:31:08.171,1.6775796772656948
2025-03-23 11:31:08.171,-3.6110822920860604
2025-03-23 11:31:08.172,-3.808859941387818
2025-03-23 11:31:08.172,-0.5545919431002702
2025-03-23 11:31:08.181,0.7585197842780036
2025-03-23 11:31:08.181,-1.4135556376219793
2025-03-23 11:31:08.181,-2.5503462985784524
2025-03-23 11:31:08.181,1.1901235461496458
2025-03-23 11:31:08.182,6.44370083067939
2025-03-23 11:31:08.191,6.009305824355823
2025-03-23 11:31:08.191,-1.613491136015697
2025-03-23 11:31:08.191,-9.159085743385528
2025-03-23 11:31:08.191,-8.564986473043504
2025-03-23 11:31:08.192,-0.22220419562205546
2025-03-23 11:31:08.201,7.801645127714607
2025-03-23 11:31:08.201,8.908936059344486
2025-03-23 11:31:08.201,3.8378947364853304
2025-03-23 11:31:08.201,-2.4897664605444483
2025-03-23 11:31:08.201,-6.5821289114275
2025-03-23 11:31:08.211,-7.140199839198706
2025-03-23 11:31:08.211,-3.497643735271668
2025-03-23 11:31:08.211,2.957281128002293
2025-03-23 11:31:08.211,7.3827534738260745
2025-03-23 11:31:08.211,5.7069828510914205
2025-03-23 11:31:08.219,0.14335311187486488
2025-03-23 11:31:08.219,-3.209110346691066
2025-03-23 11:31:08.220,-2.53753159121164
2025-03-23 11:31:08.220,-2.001812324629607
2025-03-23 11:31:08.220,-3.8606391162138363
2025-03-23 11:31:08.229,-3.5280059704948443
2025-03-23 11:31:08.229,3.1610620602217336
2025-03-23 11:31:08.230,10.565416618706575
2025-03-23 11:31:08.230,8.012157042924756
2025-03-23 11:31:08.239,-4.7840878616521145
2025-03-23 11:31:08.239,-13.829965839453266
2025-03-23 11:31:08.239,-7.529776054063384
2025-03-23 11:31:08.239,7.090286090136244
2025-03-23 11:31:08.240,12.217066207475265
2025-03-23 11:31:08.249,2.2679919549207166
2025-03-23 11:31:08.249,-8.989410846199075
2025-03-23 11:31:08.249,-7.055900201352578
2025-03-23 11:31:08.249,4.431147579127095
2025-03-23 11:31:08.249,9.611974658529899
2025-03-23 11:31:08.259,1.7337736398583534
2025-03-23 11:31:08.259,-8.91467282187537
2025-03-23 11:31:08.259,-9.165216632588054
2025-03-23 11:31:08.260,0.886098112668164
2025-03-23 11:31:08.260,9.48498532089868
2025-03-23 11:31:08.269,7.980514485955508
2025-03-23 11:31:08.269,-0.40483522901653923
2025-03-23 11:31:08.269,-6.461033588682774
2025-03-23 11:31:08.269,-5.839593054384842
2025-03-23 11:31:08.270,-1.7036772574356696
2025-03-23 11:31:08.279,1.4516795376478289
2025-03-23 11:31:08.279,2.8914089710091666
2025-03-23 11:31:08.279,3.7725774551716613
2025-03-23 11:31:08.279,3.2981638175046135
2025-03-23 11:31:08.279,-0.19737634700928725
2025-03-23 11:31:08.289,-4.999964781931647
2025-03-23 11:31:08.289,-6.088045590634593
2025-03-23 11:31:08.289,-1.0611494624990998
2025-03-23 11:31:08.289,5.634271483378814
2025-03-23 11:31:08.289,6.714148015412663
2025-03-23 11:31:08.299,0.460400656720522
2025-03-23 11:31:08.299,-6.515769883426964
2025-03-23 11:31:08.299,-6.169892110181402
2025-03-23 11:31:08.299,1.631234893240976
2025-03-23 11:31:08.299,8.154969745727879
2025-03-23 11:31:08.307,5.38132515812646
2025-03-23 11:31:08.307,-4.242036117580764
2025-03-23 11:31:08.308,-9.867750407870068
2025-03-23 11:31:08.308,-4.686755326367351
2025-03-23 11:31:08.317,5.9473018058443134
2025-03-23 11:31:08.317,10.590381179734248
2025-03-23 11:31:08.317,4.437262347735041
2025-03-23 11:31:08.317,-6.057478042508001
2025-03-23 11:31:08.318,-10.525029771626688
2025-03-23 11:31:08.327,-4.863744531270318
2025-03-23 11:31:08.327,5.466377570014287
2025-03-23 11:31:08.327,10.738940333545175
2025-03-23 11:31:08.327,5.745775171122781
2025-03-23 11:31:08.328,-5.213791686800258
2025-03-23 11:31:08.335,-11.768992260012455
2025-03-23 11:31:08.335,-7.036808346359328
2025-03-23 11:31:08.336,5.214502131494655
2025-03-23 11:31:08.336,13.24216435541051
2025-03-23 11:31:08.336,8.53996623173341
2025-03-23 11:31:08.345,-4.908331790745245
2025-03-23 11:31:08.345,-13.78692523165309
2025-03-23 11:31:08.345,-9.189414779493896
2025-03-23 11:31:08.346,3.8062070262594645
2025-03-23 11:31:08.355,11.98283391889491
2025-03-23 11:31:08.355,8.344735714147602
2025-03-23 11:31:08.355,-1.747509576587801
2025-03-23 11:31:08.355,-8.17127496211392
2025-03-23 11:31:08.356,-6.61918932131308
2025-03-23 11:31:08.365,-0.6987118648562793
2025-03-23 11:31:08.365,3.854615901581764
2025-03-23 11:31:08.365,4.600180705345883
2025-03-23 11:31:08.365,2.669870730067003
2025-03-23 11:31:08.365,0.008596000104183654
2025-03-23 11:31:08.375,-2.2915469076091837
2025-03-23 11:31:08.375,-3.5086823302870904
2025-03-23 11:31:08.375,-2.7517138269260446
2025-03-23 11:31:08.375,0.07517370149501233
2025-03-23 11:31:08.375,3.142575819659981
2025-03-23 11:31:08.383,3.6979541160980998
2025-03-23 11:31:08.383,0.9186933404766013
2025-03-23 11:31:08.384,-2.579529462612391
2025-03-23 11:31:08.384,-3.0664532034778977
2025-03-23 11:31:08.384,0.005465945910622605
2025-03-23 11:31:08.393,2.89042360652573
2025-03-23 11:31:08.393,1.8985548869356041
2025-03-23 11:31:08.394,-1.7559214375147685
2025-03-23 11:31:08.394,-3.390275193237778
2025-03-23 11:31:08.405,-1.1237733514827508
2025-03-23 11:31:08.405,1.8667127047499366
2025-03-23 11:31:08.405,2.3179674256947838
2025-03-23 11:31:08.405,1.2307046880558958
2025-03-23 11:31:08.405,1.004503254468733
2025-03-23 11:31:08.405,0.7689109473198563
2025-03-23 11:31:08.413,-1.7736120824464883
2025-03-23 11:31:08.413,-5.026046466647705
2025-03-23 11:31:08.414,-4.318965260872119
2025-03-23 11:31:08.414,1.2386168800400805
2025-03-23 11:31:08.414,6.380775355128521
2025-03-23 11:31:08.423,6.023555177024534
2025-03-23 11:31:08.423,1.3088104022119946
2025-03-23 11:31:08.424,-2.9447931928428157
2025-03-23 11:31:08.424,-4.5445480281761785
2025-03-23 11:31:08.433,-4.585440942056846
2025-03-23 11:31:08.433,-3.321068161628058
2025-03-23 11:31:08.434,0.5286826278443494
2025-03-23 11:31:08.434,5.872954416427547
2025-03-23 11:31:08.434,8.183000759465369
2025-03-23 11:31:08.434,4.299920646251241
2025-03-23 11:31:08.443,-3.3998466693637646
2025-03-23 11:31:08.443,-9.111165713214492
2025-03-23 11:31:08.444,-8.741630279431336
2025-03-23 11:31:08.444,-2.2917707455795693
2025-03-23 11:31:08.453,6.703417859261218
2025-03-23 11:31:08.453,12.255786479643104
2025-03-23 11:31:08.453,8.760044423081611
2025-03-23 11:31:08.453,-3.2255290525212366
2025-03-23 11:31:08.454,-14.169346520905762
2025-03-23 11:31:08.461,-12.946882571551766
2025-03-23 11:31:08.461,0.6746979698753958
2025-03-23 11:31:08.462,13.744411100570542
2025-03-23 11:31:08.462,13.282342380620438
2025-03-23 11:31:08.462,0.4070891366300494
2025-03-23 11:31:08.471,-11.287322565676474
2025-03-23 11:31:08.471,-10.78453362053798
2025-03-23 11:31:08.471,-0.4923920293623102
2025-03-23 11:31:08.472,8.139353068031172
2025-03-23 11:31:08.481,7.396295650653871
2025-03-23 11:31:08.481,0.08836015909194672
2025-03-23 11:31:08.481,-5.343476655051701
2025-03-23 11:31:08.481,-4.286895238688213
2025-03-23 11:31:08.481,0.4098745588519467
2025-03-23 11:31:08.491,3.147403671390499
2025-03-23 11:31:08.491,1.9668366670374893
2025-03-23 11:31:08.491,-0.5356544011627671
2025-03-23 11:31:08.491,-1.4255712038402553
2025-03-23 11:31:08.492,-0.7021373226319698
2025-03-23 11:31:08.501,-0.0836531924139188
2025-03-23 11:31:08.501,-0.0767538389697118
2025-03-23 11:31:08.501,0.33102359536176945
2025-03-23 11:31:08.501,1.410725603517661
2025-03-23 11:31:08.502,1.6442249458174225
2025-03-23 11:31:08.509,-0.24560283685169587
2025-03-23 11:31:08.510,-2.9183997381725004
2025-03-23 11:31:08.510,-3.2861561658320464
2025-03-23 11:31:08.510,-0.10979063878113021
2025-03-23 11:31:08.510,3.9379724367066222
2025-03-23 11:31:08.519,4.60709059855866
2025-03-23 11:31:08.519,0.6851441932481154
2025-03-23 11:31:08.520,-4.19655326817463
2025-03-23 11:31:08.520,-5.070916457222164
2025-03-23 11:31:08.529,-1.0138451284404404
2025-03-23 11:31:08.529,3.7508769774171977
2025-03-23 11:31:08.530,4.537758779245955
2025-03-23 11:31:08.530,1.1662509642411367
2025-03-23 11:31:08.530,-2.5631917258356487
2025-03-23 11:31:08.539,-3.51591873883939
2025-03-23 11:31:08.539,-1.8638335119807683
2025-03-23 11:31:08.540,0.5775015002870858
2025-03-23 11:31:08.540,2.6013676925982194
2025-03-23 11:31:08.540,3.3865425794248156
2025-03-23 11:31:08.540,1.8233860166385463
2025-03-23 11:31:08.549,-1.9744184390188928
2025-03-23 11:31:08.549,-5.078821816332772
2025-03-23 11:31:08.550,-3.852084093842241
2025-03-23 11:31:08.550,1.5751633886958318
2025-03-23 11:31:08.559,6.228415179364332
2025-03-23 11:31:08.559,5.040723844085521
2025-03-23 11:31:08.559,-1.4052534250474322
2025-03-23 11:31:08.560,-6.812722827200235
2025-03-23 11:31:08.560,-5.445947959058965
2025-03-23 11:31:08.569,1.6369350814073895
2025-03-23 11:31:08.569,7.19514027935358
2025-03-23 11:31:08.569,5.19224464764096
2025-03-23 11:31:08.570,-2.51782304490047
2025-03-23 11:31:08.570,-7.693322579430868
2025-03-23 11:31:08.579,-4.47315817593691
2025-03-23 11:31:08.579,3.9001672865104293
2025-03-23 11:31:08.579,8.248152591490078
2025-03-23 11:31:08.579,3.590598670786269
2025-03-23 11:31:08.580,-5.008079602066681
2025-03-23 11:31:08.589,-7.975361231440314
2025-03-23 11:31:08.589,-2.26658120699448
2025-03-23 11:31:08.589,5.093681434235708
2025-03-23 11:31:08.590,5.622708137466956
2025-03-23 11:31:08.590,-0.2548857749053309
2025-03-23 11:31:08.599,-4.231559065858676
2025-03-23 11:31:08.599,-1.25034925693918
2025-03-23 11:31:08.599,3.88688987019555
2025-03-23 11:31:08.599,3.229167283502925
2025-03-23 11:31:08.600,-3.244111001861808
2025-03-23 11:31:08.609,-7.118199806787046
2025-03-23 11:31:08.609,-2.5826512092086182
2025-03-23 11:31:08.609,5.56981120629539
2025-03-23 11:31:08.609,7.829682254993172
2025-03-23 11:31:08.609,2.0501418115767707
2025-03-23 11:31:08.617,-4.412619490109502
2025-03-23 11:31:08.617,-4.91814826391624
2025-03-23 11:31:08.618,-1.4717372114588854
2025-03-23 11:31:08.618,0.1972259174277369
2025-03-23 11:31:08.618,-0.29316486128947855
2025-03-23 11:31:08.627,1.1421445176157934
2025-03-23 11:31:08.627,4.589735048655012
2025-03-23 11:31:08.628,4.607854216945295
2025-03-23 11:31:08.628,-1.22133139658098
2025-03-23 11:31:08.628,-7.044034501309382
2025-03-23 11:31:08.637,-5.666321588423681
2025-03-23 11:31:08.638,1.7253075001278995
2025-03-23 11:31:08.638,6.656144306956915
2025-03-23 11:31:08.638,3.7708111456148035
2025-03-23 11:31:08.638,-2.9620325545817776
2025-03-23 11:31:08.647,-5.414231436587834
2025-03-23 11:31:08.647,-0.8618336878437952
2025-03-23 11:31:08.648,5.139653060764669
2025-03-23 11:31:08.648,5.199169757759751
2025-03-23 11:31:08.657,-1.4897809208449853
2025-03-23 11:31:08.657,-7.798717675475932
2025-03-23 11:31:08.658,-6.1540377497966885
2025-03-23 11:31:08.658,2.7579344763618217
2025-03-23 11:31:08.658,9.876864698191904
2025-03-23 11:31:08.667,7.297391445031027
2025-03-23 11:31:08.667,-2.804446733423889
2025-03-23 11:31:08.667,-10.251982817917686
2025-03-23 11:31:08.668,-7.80291978596607
2025-03-23 11:31:08.668,1.530147312769873
2025-03-23 11:31:08.677,8.507175279614124
2025-03-23 11:31:08.677,7.426927212814168
2025-03-23 11:31:08.677,0.6803859215261923
2025-03-23 11:31:08.677,-5.261512771793554
2025-03-23 11:31:08.678,-6.28857233548921
2025-03-23 11:31:08.687,-2.906999934860814
2025-03-23 11:31:08.687,1.8163231883458368
2025-03-23 11:31:08.687,4.797274827113492
2025-03-23 11:31:08.688,4.223892285449578
2025-03-23 11:31:08.688,0.5086572599560824
2025-03-23 11:31:08.697,-3.390852884674568
2025-03-23 11:31:08.697,-4.07937760624724
2025-03-23 11:31:08.697,-1.222317105285695
2025-03-23 11:31:08.698,1.9649114207734872
2025-03-23 11:31:08.698,2.579129311635913
2025-03-23 11:31:08.707,1.1861263769925812
2025-03-23 11:31:08.707,-0.06153460211402775
2025-03-23 11:31:08.707,-0.8209556128761438
2025-03-23 11:31:08.708,-1.8036843663663664
2025-03-23 11:31:08.708,-1.9461263180981914
2025-03-23 11:31:08.717,0.33354484109249094
2025-03-23 11:31:08.717,3.2686601729963303
2025-03-23 11:31:08.717,2.7983409436561053
2025-03-23 11:31:08.717,-1.4438806241489914
2025-03-23 11:31:08.717,-4.42173418235871
2025-03-23 11:31:08.727,-2.066928519495129
2025-03-23 11:31:08.727,2.922477466282269
2025-03-23 11:31:08.727,4.364766421097943
2025-03-23 11:31:08.727,0.6423779081359009
2025-03-23 11:31:08.728,-3.4103617697250885
2025-03-23 11:31:08.737,-3.0392180123509265
2025-03-23 11:31:08.737,0.5252963612991112
2025-03-23 11:31:08.737,2.4367380441455113
2025-03-23 11:31:08.737,0.9534439002192339
2025-03-23 11:31:08.738,-0.9529689324183709
2025-03-23 11:31:08.745,-0.6124731107001629
2025-03-23 11:31:08.745,0.7060256740211205
2025-03-23 11:31:08.746,0.5571995839897838
2025-03-23 11:31:08.746,-0.682483470265326
2025-03-23 11:31:08.746,-0.9039196835317698
2025-03-23 11:31:08.755,0.07225398052531777
2025-03-23 11:31:08.755,0.5149642184497143
2025-03-23 11:31:08.756,-0.05094024268787733
2025-03-23 11:31:08.756,-0.16670910114718981
2025-03-23 11:31:08.756,0.7895057928712181
2025-03-23 11:31:08.765,1.223377122517499
2025-03-23 11:31:08.765,-0.2742269920639614
2025-03-23 11:31:08.766,-2.39417411968969
2025-03-23 11:31:08.766,-2.32727826004885
2025-03-23 11:31:08.775,0.6402920285337331
2025-03-23 11:31:08.775,3.71660699618641
2025-03-23 11:31:08.775,3.3889667825454093
2025-03-23 11:31:08.776,-0.5115288960427908
2025-03-23 11:31:08.776,-4.194803050787682
2025-03-23 11:31:08.785,-3.89189546993785
2025-03-23 11:31:08.785,-0.07098070493420369
2025-03-23 11:31:08.785,3.222052088154091
2025-03-23 11:31:08.786,3.139212338169505
2025-03-23 11:31:08.786,0.8438996564173489
2025-03-23 11:31:08.795,-0.89779839958862
2025-03-23 11:31:08.795,-1.3369811407203724
2025-03-23 11:31:08.795,-1.5022787318089847
2025-03-23 11:31:08.796,-1.5115483828652994
2025-03-23 11:31:08.796,-0.3661129151380658
2025-03-23 11:31:08.805,1.6642395636146818
2025-03-23 11:31:08.805,2.5762965756893315
2025-03-23 11:31:08.805,1.2231303167679477
2025-03-23 11:31:08.805,-1.1238605302865103
2025-03-23 11:31:08.806,-2.4353621148403026
2025-03-23 11:31:08.815,-1.8599865529750244
2025-03-23 11:31:08.815,0.34347884081572116
2025-03-23 11:31:08.815,2.999613787751626
2025-03-23 11:31:08.815,3.5308260128778666
2025-03-23 11:31:08.815,-0.17447908670673942
2025-03-23 11:31:08.825,-5.674747045938896
2025-03-23 11:31:08.825,-6.4096435613156135
2025-03-23 11:31:08.825,0.5691178858106052
2025-03-23 11:31:08.825,8.940137390143917
2025-03-23 11:31:08.826,9.136079684709314
2025-03-23 11:31:08.833,-0.09708064084236029
2025-03-23 11:31:08.833,-9.644306830353472
2025-03-23 11:31:08.834,-10.242458045926597
2025-03-23 11:31:08.834,-2.0474474304481833
2025-03-23 11:31:08.843,6.894182102423584
2025-03-23 11:31:08.843,9.29831435107327
2025-03-23 11:31:08.843,4.402284667435885
2025-03-23 11:31:08.844,-2.9569661711813606
2025-03-23 11:31:08.844,-6.9250597500021485
2025-03-23 11:31:08.853,-4.950339331248601
2025-03-23 11:31:08.853,0.5549438031330745
2025-03-23 11:31:08.853,4.378996864371346
2025-03-23 11:31:08.854,3.292631362679523
2025-03-23 11:31:08.854,-0.7509023158339871
2025-03-23 11:31:08.863,-2.724905707472812
2025-03-23 11:31:08.863,-0.3323351999717402
2025-03-23 11:31:08.863,3.0021353156920405
2025-03-23 11:31:08.864,2.1507138549366718
2025-03-23 11:31:08.864,-2.8773257402430708
2025-03-23 11:31:08.873,-5.995416990192743
2025-03-23 11:31:08.873,-2.245119718066519
2025-03-23 11:31:08.873,5.323719197552598
2025-03-23 11:31:08.874,8.317781966336902
2025-03-23 11:31:08.874,2.7517634574337535
2025-03-23 11:31:08.883,-5.9568444203259
2025-03-23 11:31:08.883,-8.941535873131553
2025-03-23 11:31:08.883,-3.5442905989869002
2025-03-23 11:31:08.883,4.429701570551585
2025-03-23 11:31:08.884,7.4581632517739544
2025-03-23 11:31:08.893,3.7904338432255873
2025-03-23 11:31:08.893,-1.8992144810830844
2025-03-23 11:31:08.893,-4.167577007246332
2025-03-23 11:31:08.894,-2.231665894168743
2025-03-23 11:31:08.894,0.26883526041592964
2025-03-23 11:31:08.903,0.2770697445344012
2025-03-23 11:31:08.903,-1.0481124348870006
2025-03-23 11:31:08.903,-0.448772342549427
2025-03-23 11:31:08.904,2.4751230959205226
2025-03-23 11:31:08.904,4.184455365711234
2025-03-23 11:31:08.913,1.6825508022224505
2025-03-23 11:31:08.913,-3.194002508856855
2025-03-23 11:31:08.913,-5.378444549082082
2025-03-23 11:31:08.913,-2.3728289099504205
2025-03-23 11:31:08.914,2.682559427958605
2025-03-23 11:31:08.923,4.418843848728046
2025-03-23 11:31:08.923,1.3311708342582065
2025-03-23 11:31:08.923,-2.4931583639137096
2025-03-23 11:31:08.923,-2.2906217413079104
2025-03-23 11:31:08.924,1.3859256040318002
2025-03-23 11:31:08.931,3.1463859891733637
2025-03-23 11:31:08.932,-0.13169051996876355
2025-03-23 11:31:08.932,-4.441401966985338
2025-03-23 11:31:08.932,-3.3720957607780178
2025-03-23 11:31:08.932,2.7604968287200684
2025-03-23 11:31:08.941,6.119044877353857
2025-03-23 11:31:08.942,1.5479853671878443
2025-03-23 11:31:08.942,-5.586521024461832
2025-03-23 11:31:08.942,-5.752115693350903
2025-03-23 11:31:08.942,1.8592930616484526
2025-03-23 11:31:08.951,7.71540585874633
2025-03-23 11:31:08.951,4.296852658206366
2025-03-23 11:31:08.952,-4.27750280449122
2025-03-23 11:31:08.952,-7.930906436739153
2025-03-23 11:31:08.961,-3.153806202133847
2025-03-23 11:31:08.961,3.9472383351860563
2025-03-23 11:31:08.962,6.106923412301415
2025-03-23 11:31:08.962,2.643823870881786
2025-03-23 11:31:08.962,-1.817426280506465
2025-03-23 11:31:08.971,-3.363666514628357
2025-03-23 11:31:08.971,-1.8688545734104793
2025-03-23 11:31:08.971,0.2984179438157545
2025-03-23 11:31:08.972,0.9060324428578203
2025-03-23 11:31:08.972,-0.25247334207002803
2025-03-23 11:31:08.981,-1.0980849899776677
2025-03-23 11:31:08.981,0.5608904503725514
2025-03-23 11:31:08.981,3.8149702473902534
2025-03-23 11:31:08.982,4.4849040768111985
2025-03-23 11:31:08.982,-0.30290310431671696
2025-03-23 11:31:08.991,-7.463124068557719
2025-03-23 11:31:08.991,-9.593278330488042
2025-03-23 11:31:08.991,-2.5333298064486924
2025-03-23 11:31:08.992,9.05098373002765
2025-03-23 11:31:08.992,14.751351777041808
2025-03-23 11:31:08.999,7.956561637125137
2025-03-23 11:31:08.999,-7.1421066967531015
2025-03-23 11:31:09.000,-18.018649380513338
2025-03-23 11:31:09.000,-14.335757987445037
2025-03-23 11:31:09.000,2.207678279929697
2025-03-23 11:31:09.009,17.934074832478245
2025-03-23 11:31:09.009,18.713748782566807
2025-03-23 11:31:09.010,3.467188338374444
2025-03-23 11:31:09.010,-13.96240229709675
2025-03-23 11:31:09.019,-18.076377563304874
2025-03-23 11:31:09.019,-7.0429458717810265
2025-03-23 11:31:09.019,6.778275933357843
2025-03-23 11:31:09.019,11.364813823580423
2025-03-23 11:31:09.020,6.867694697596522
2025-03-23 11:31:09.027,1.4042663067872194
2025-03-23 11:31:09.028,-1.069829822473117
2025-03-23 11:31:09.028,-3.568928175212715
2025-03-23 11:31:09.028,-7.569312628403953
2025-03-23 11:31:09.028,-7.955948993837085
2025-03-23 11:31:09.037,-0.3020786251099279
2025-03-23 11:31:09.037,10.024010321213197
2025-03-23 11:31:09.038,11.780712550161107
2025-03-23 11:31:09.038,1.8276683972360401
2025-03-23 11:31:09.047,-9.350588236133387
2025-03-23 11:31:09.047,-9.555644157675308
2025-03-23 11:31:09.047,0.16396745273293112
2025-03-23 11:31:09.048,7.172877743806648
2025-03-23 11:31:09.048,3.613056321532907
2025-03-23 11:31:09.057,-4.126130192393947
2025-03-23 11:31:09.057,-4.904973510057459
2025-03-23 11:31:09.058,2.189982901246805
2025-03-23 11:31:09.058,7.30095833469705
2025-03-23 11:31:09.058,3.308047294392171
2025-03-23 11:31:09.067,-5.118227311517481
2025-03-23 11:31:09.067,-7.978616443220536
2025-03-23 11:31:09.068,-2.3566894913526215
2025-03-23 11:31:09.068,4.926653844171764
2025-03-23 11:31:09.068,6.245771538090864
2025-03-23 11:31:09.077,1.5776768074465086
2025-03-23 11:31:09.077,-3.0566380639547033
2025-03-23 11:31:09.077,-3.3599293536688175
2025-03-23 11:31:09.078,-0.701899148596854
2025-03-23 11:31:09.078,1.1413051247671848
2025-03-23 11:31:09.087,0.7875845920208228
2025-03-23 11:31:09.087,-0.2134653385811762
2025-03-23 11:31:09.087,-0.2132427187843283
2025-03-23 11:31:09.088,0.6993273660322313
2025-03-23 11:31:09.088,1.3146303599679563
2025-03-23 11:31:09.097,0.6267148555922576
2025-03-23 11:31:09.097,-1.302598021114976
2025-03-23 11:31:09.097,-2.937146945035857
2025-03-23 11:31:09.097,-2.0972419184839484
2025-03-23 11:31:09.098,1.5455194785180608
2025-03-23 11:31:09.107,4.8716542348494585
2025-03-23 11:31:09.107,3.815173311729613
2025-03-23 11:31:09.107,-1.6931795395913096
2025-03-23 11:31:09.108,-6.393877263893394
2025-03-23 11:31:09.108,-4.8379512575977435
2025-03-23 11:31:09.117,2.0803393696033354
2025-03-23 11:31:09.117,7.111072458042254
2025-03-23 11:31:09.117,4.378346476112135
2025-03-23 11:31:09.118,-3.3726206184712852
2025-03-23 11:31:09.118,-7.1444913162952535
2025-03-23 11:31:09.125,-2.174862033354879
2025-03-23 11:31:09.126,5.730914281294312
2025-03-23 11:31:09.126,6.716169746130468
2025-03-23 11:31:09.126,-0.8893177386329686
2025-03-23 11:31:09.126,-8.032291220417003
2025-03-23 11:31:09.135,-5.929189064783967
2025-03-23 11:31:09.136,3.066639431072431
2025-03-23 11:31:09.136,8.49638105646622
2025-03-23 11:31:09.136,4.657947528199202
2025-03-23 11:31:09.136,-3.101063363447261
2025-03-23 11:31:09.145,-5.9887240432697135
2025-03-23 11:31:09.146,-2.587808881430981
2025-03-23 11:31:09.146,1.0533325434541323
2025-03-23 11:31:09.146,0.8300520279354225
2025-03-23 11:31:09.155,-0.31469743059032834
2025-03-23 11:31:09.155,1.750486319986042
2025-03-23 11:31:09.156,4.992202371167623
2025-03-23 11:31:09.156,3.6018502034566526
2025-03-23 11:31:09.156,-3.218239397560393
2025-03-23 11:31:09.165,-8.745073956149502
2025-03-23 11:31:09.165,-6.388704637915428
2025-03-23 11:31:09.166,2.237704380387912
2025-03-23 11:31:09.166,8.782928383302027
2025-03-23 11:31:09.166,7.174461725665205
2025-03-23 11:31:09.175,-0.22943696095560123
2025-03-23 11:31:09.175,-5.785648015226251
2025-03-23 11:31:09.175,-4.911361008308744
2025-03-23 11:31:09.176,-0.25011442863957883
2025-03-23 11:31:09.176,2.4073936886966205
2025-03-23 11:31:09.185,0.9483820972578669
2025-03-23 11:31:09.185,-1.526368951429849
2025-03-23 11:31:09.185,-1.3080519380660134
2025-03-23 11:31:09.186,1.546042357830364
2025-03-23 11:31:09.186,3.8293988834479507
2025-03-23 11:31:09.195,2.904132040200477
2025-03-23 11:31:09.195,-0.8498095469837652
2025-03-23 11:31:09.195,-4.489524367640227
2025-03-23 11:31:09.196,-4.937217543071365
2025-03-23 11:31:09.196,-1.6726914429837416
2025-03-23 11:31:09.205,2.605329680374848
2025-03-23 11:31:09.205,4.570016112552453
2025-03-23 11:31:09.205,3.5243502281597183
2025-03-23 11:31:09.206,1.2401211777126584
2025-03-23 11:31:09.206,-1.0542362345095764
2025-03-23 11:31:09.215,-3.56785824511461
2025-03-23 11:31:09.215,-5.405498619186509
2025-03-23 11:31:09.215,-3.7341402007733064
2025-03-23 11:31:09.216,2.2455130663914686
2025-03-23 11:31:09.216,7.9274595315943825
2025-03-23 11:31:09.223,7.053873629660647
2025-03-23 11:31:09.224,-0.59609461226518
2025-03-23 11:31:09.224,-7.650189959596571
2025-03-23 11:31:09.224,-7.006516834303231
2025-03-23 11:31:09.224,-0.09887351341054451
2025-03-23 11:31:09.233,4.9019399308573295
2025-03-23 11:31:09.234,3.1531169465536837
2025-03-23 11:31:09.234,-1.177390833913445
2025-03-23 11:31:09.234,-1.1219051150918082
2025-03-23 11:31:09.234,3.099827187116755
2025-03-23 11:31:09.243,4.095877569516761
2025-03-23 11:31:09.243,-2.0220057219665275
2025-03-23 11:31:09.244,-8.807475241030408
2025-03-23 11:31:09.244,-6.855859529094848
2025-03-23 11:31:09.253,3.4877775638140833
2025-03-23 11:31:09.253,11.197560657888733
2025-03-23 11:31:09.254,7.531364831902974
2025-03-23 11:31:09.254,-3.3921388907095023
2025-03-23 11:31:09.254,-9.657380559449399
2025-03-23 11:31:09.263,-5.512000878760036
2025-03-23 11:31:09.263,2.92647064286922
2025-03-23 11:31:09.263,6.015497657543478
2025-03-23 11:31:09.263,1.7651258989418266
2025-03-23 11:31:09.264,-3.2357521430249476
2025-03-23 11:31:09.273,-2.774286437996192
2025-03-23 11:31:09.273,1.795940307463023
2025-03-23 11:31:09.274,4.196508606173047
2025-03-23 11:31:09.274,1.3125467248040745
2025-03-23 11:31:09.274,-3.418742105313868
2025-03-23 11:31:09.283,-4.649975625388992
2025-03-23 11:31:09.283,-1.3584552283306421
2025-03-23 11:31:09.283,2.653883520342425
2025-03-23 11:31:09.284,3.6030357269512616
2025-03-23 11:31:09.284,1.5537490046970754
2025-03-23 11:31:09.293,-0.6808280030431269
2025-03-23 11:31:09.293,-1.1586696852208205
2025-03-23 11:31:09.293,-0.4888085556932079
2025-03-23 11:31:09.294,-0.42671745642967757
2025-03-23 11:31:09.294,-1.5476640134661834
2025-03-23 11:31:09.303,-2.3521971654021194
2025-03-23 11:31:09.303,-0.7183241639666964
2025-03-23 11:31:09.303,3.248889609821573
2025-03-23 11:31:09.303,5.991242160697779
2025-03-23 11:31:09.304,3.545467842160639
2025-03-23 11:31:09.312,-3.3312585234968988
2025-03-23 11:31:09.312,-8.39529279865864
2025-03-23 11:31:09.312,-6.07570645056136
2025-03-23 11:31:09.312,1.9455159187321724
2025-03-23 11:31:09.312,8.060519072037668
2025-03-23 11:31:09.321,6.839558553869746
2025-03-23 11:31:09.321,0.31102060618466715
2025-03-23 11:31:09.322,-5.187442075600738
2025-03-23 11:31:09.322,-5.7593622487340745
2025-03-23 11:31:09.333,-2.5346905779486613
2025-03-23 11:31:09.333,1.1472778936550438
2025-03-23 11:31:09.333,3.2648644385321743
2025-03-23 11:31:09.333,3.710306046863595
2025-03-23 11:31:09.333,2.7513802320663565
2025-03-23 11:31:09.334,0.21603660338609937
2025-03-23 11:31:09.341,-3.386741102344307
2025-03-23 11:31:09.342,-5.648830826392219
2025-03-23 11:31:09.342,-3.717369818463077
2025-03-23 11:31:09.342,2.04677834554194
2025-03-23 11:31:09.342,6.836902337264957
2025-03-23 11:31:09.351,5.731905199391427
2025-03-23 11:31:09.352,-0.51530418259191
2025-03-23 11:31:09.352,-5.722568907145881
2025-03-23 11:31:09.352,-5.136184078183633
2025-03-23 11:31:09.361,-0.5807644000253569
2025-03-23 11:31:09.362,2.5282473601686823
2025-03-23 11:31:09.362,2.0046108936036733
2025-03-23 11:31:09.362,0.5620700264602962
2025-03-23 11:31:09.362,0.9938555446608154
2025-03-23 11:31:09.362,2.197372661300264
2025-03-23 11:31:09.371,1.2245684100306726
2025-03-23 11:31:09.372,-2.2267134694392112
2025-03-23 11:31:09.372,-5.126927367211434
2025-03-23 11:31:09.372,-4.516798218685512
2025-03-23 11:31:09.381,-0.30465856122118196
2025-03-23 11:31:09.381,4.9830574084812485
2025-03-23 11:31:09.382,7.817462624943325
2025-03-23 11:31:09.382,5.387828877833857
2025-03-23 11:31:09.382,-1.9775210895856823
2025-03-23 11:31:09.391,-9.23811416533368
2025-03-23 11:31:09.391,-9.703831915554897
2025-03-23 11:31:09.392,-1.8668255303097931
2025-03-23 11:31:09.392,7.705389551666862
2025-03-23 11:31:09.392,10.40659107317993
2025-03-23 11:31:09.401,4.4328978159114225
2025-03-23 11:31:09.401,-3.900356339783583
2025-03-23 11:31:09.401,-7.38554915871299
2025-03-23 11:31:09.402,-4.690515132641277
2025-03-23 11:31:09.402,0.14140311771903974
2025-03-23 11:31:09.411,2.8820355552032977
2025-03-23 11:31:09.411,2.6474428679828486
2025-03-23 11:31:09.412,1.3131444128948737
2025-03-23 11:31:09.412,0.746981535711422
2025-03-23 11:31:09.412,0.8053287903587185
2025-03-23 11:31:09.421,-0.08185384532896234
2025-03-23 11:31:09.421,-2.345744217433844
2025-03-23 11:31:09.421,-3.90984948839233
2025-03-23 11:31:09.422,-2.3497075898193924
2025-03-23 11:31:09.422,1.7435038659703572
2025-03-23 11:31:09.431,4.813568072504461
2025-03-23 11:31:09.431,4.140242479283178
2025-03-23 11:31:09.431,0.5665017102595504
2025-03-23 11:31:09.432,-2.975208187217363
2025-03-23 11:31:09.432,-4.426639683664583
2025-03-23 11:31:09.441,-3.362100254481737
2025-03-23 11:31:09.441,-0.24380248754954373
2025-03-23 11:31:09.441,3.4474540003159597
2025-03-23 11:31:09.442,5.077849178954794
2025-03-23 11:31:09.442,2.8279668021323916
2025-03-23 11:31:09.451,-1.824389916694045
2025-03-23 11:31:09.451,-4.869656745492887
2025-03-23 11:31:09.451,-3.750850514435761
2025-03-23 11:31:09.452,0.04503620472588585
2025-03-23 11:31:09.452,2.950702210030784
2025-03-23 11:31:09.459,3.1954255756070267
2025-03-23 11:31:09.460,1.737152084275835
2025-03-23 11:31:09.460,-0.10520212687658036
2025-03-23 11:31:09.460,-2.0603662864210777
2025-03-23 11:31:09.460,-3.444980787763774
2025-03-23 11:31:09.469,-2.4127938497698316
2025-03-23 11:31:09.470,1.3837428435990884
2025-03-23 11:31:09.470,4.568105183165014
2025-03-23 11:31:09.470,3.1860307852308036
2025-03-23 11:31:09.470,-1.7250594366009477
2025-03-23 11:31:09.479,-4.3596598206382735
2025-03-23 11:31:09.480,-1.4129019413762813
2025-03-23 11:31:09.480,3.0070568183147164
2025-03-23 11:31:09.480,2.4987098293480736
2025-03-23 11:31:09.489,-2.538802839008494
2025-03-23 11:31:09.490,-4.700425763197458
2025-03-23 11:31:09.490,0.33068079867633027
2025-03-23 11:31:09.490,6.936698534694431
2025-03-23 11:31:09.490,6.160543754445076
2025-03-23 11:31:09.499,-2.4117762553246878
2025-03-23 11:31:09.499,-9.41559054273262
2025-03-23 11:31:09.500,-6.957531310437059
2025-03-23 11:31:09.500,2.198246838981556
2025-03-23 11:31:09.500,8.56974725085638
2025-03-23 11:31:09.509,6.858458441133291
2025-03-23 11:31:09.509,0.3042525789246955
2025-03-23 11:31:09.509,-4.794757202543644
2025-03-23 11:31:09.510,-5.7103146514812995
2025-03-23 11:31:09.510,-3.63616999498509
2025-03-23 11:31:09.519,-0.1885490469402983
2025-03-23 11:31:09.519,3.6733465408691512
2025-03-23 11:31:09.519,5.963091151244187
2025-03-23 11:31:09.520,4.100371379453213
2025-03-23 11:31:09.520,-1.4720866746751893
2025-03-23 11:31:09.529,-6.012644691257261
2025-03-23 11:31:09.529,-5.110584609136667
2025-03-23 11:31:09.530,0.001356229947019949
2025-03-23 11:31:09.530,3.838693460896234
2025-03-23 11:31:09.530,3.249960093103041
2025-03-23 11:31:09.539,0.44992070916855664
2025-03-23 11:31:09.539,-0.9514444354305056
2025-03-23 11:31:09.539,-0.5759306413250314
2025-03-23 11:31:09.539,-0.3709125889965008
2025-03-23 11:31:09.540,-0.8428342583128897
2025-03-23 11:31:09.549,-0.6663286461651365
2025-03-23 11:31:09.549,0.4146622405512455
2025-03-23 11:31:09.549,0.7999361589175003
2025-03-23 11:31:09.550,-0.18647370806765468
2025-03-23 11:31:09.550,-0.7542503838562579
2025-03-23 11:31:09.559,0.6278355649445718
2025-03-23 11:31:09.559,2.256458187899193
2025-03-23 11:31:09.559,1.0753037350602357
2025-03-23 11:31:09.560,-2.5567944686859305
2025-03-23 11:31:09.560,-4.210640079722651
2025-03-23 11:31:09.567,-0.902231038902594
2025-03-23 11:31:09.568,4.1535159876128285
2025-03-23 11:31:09.568,4.796582673849405
2025-03-23 11:31:09.568,-0.06927533152446269
2025-03-23 11:31:09.568,-4.530043727242083
2025-03-23 11:31:09.577,-3.2265325878689435
2025-03-23 11:31:09.578,1.5530432398491465
2025-03-23 11:31:09.578,3.205200072781705
2025-03-23 11:31:09.578,-0.029741326442356997
2025-03-23 11:31:09.587,-2.936266869939847
2025-03-23 11:31:09.587,-0.951962169679774
2025-03-23 11:31:09.588,3.3949339126258966
2025-03-23 11:31:09.588,3.99797459492084
2025-03-23 11:31:09.588,-0.6033240509520233
2025-03-23 11:31:09.597,-5.3201383794133354
2025-03-23 11:31:09.598,-4.8041693049894025
2025-03-23 11:31:09.598,0.46286249863135365
2025-03-23 11:31:09.598,5.157668240059633
2025-03-23 11:31:09.598,5.010103779569897
2025-03-23 11:31:09.607,0.7627962543372724
2025-03-23 11:31:09.607,-3.3045374923453004
2025-03-23 11:31:09.608,-3.9151301781865957
2025-03-23 11:31:09.608,-1.560159671066199
2025-03-23 11:31:09.608,0.8823078386456951
2025-03-23 11:31:09.617,1.5442479119720822
2025-03-23 11:31:09.617,1.05576358038542
2025-03-23 11:31:09.618,0.8693352467536641
2025-03-23 11:31:09.618,0.9894744597288524
2025-03-23 11:31:09.618,0.19482957501554296
2025-03-23 11:31:09.627,-1.591070973340894
2025-03-23 11:31:09.628,-2.397756208159216
2025-03-23 11:31:09.628,-0.7176496730955645
2025-03-23 11:31:09.628,1.8800970275459923
2025-03-23 11:31:09.628,2.328735627245363
2025-03-23 11:31:09.637,0.09212655003642806
2025-03-23 11:31:09.637,-2.1784358669866912
2025-03-23 11:31:09.638,-2.1593205721876925
2025-03-23 11:31:09.638,-0.15438832324695856
2025-03-23 11:31:09.638,2.343467895223713
2025-03-23 11:31:09.647,4.03874823332409
2025-03-23 11:31:09.647,3.0794825552492053
2025-03-23 11:31:09.647,-2.013987721076848
2025-03-23 11:31:09.648,-8.365804574531506
2025-03-23 11:31:09.648,-8.532219475296753
2025-03-23 11:31:09.655,1.2067352921032126
2025-03-23 11:31:09.656,13.004793140862274
2025-03-23 11:31:09.656,13.362369784967088
2025-03-23 11:31:09.656,-0.6536990381548284
2025-03-23 11:31:09.656,-15.252074443803782
2025-03-23 11:31:09.665,-14.451821491075089
2025-03-23 11:31:09.665,1.012509180495528
2025-03-23 11:31:09.665,14.182162994891165
2025-03-23 11:31:09.666,11.55818256501159
2025-03-23 11:31:09.675,-2.1554992498598162
2025-03-23 11:31:09.675,-11.11228350595894
2025-03-23 11:31:09.675,-6.849192321675165
2025-03-23 11:31:09.676,3.7994341823451196
2025-03-23 11:31:09.676,8.284680481238585
2025-03-23 11:31:09.685,2.4388353620897263
2025-03-23 11:31:09.685,-6.120878747158782
2025-03-23 11:31:09.685,-7.204651426055715
2025-03-23 11:31:09.686,0.7267900201999449
2025-03-23 11:31:09.686,8.912016902068904
2025-03-23 11:31:09.693,7.821825881912363
2025-03-23 11:31:09.694,-2.1874327821850974
2025-03-23 11:31:09.694,-10.833854995996745
2025-03-23 11:31:09.694,-8.921112468488541
2025-03-23 11:31:09.694,1.7030629825649917
2025-03-23 11:31:09.703,10.356809895021176
2025-03-23 11:31:09.704,9.064785903247948
2025-03-23 11:31:09.704,0.24018485667703748
2025-03-23 11:31:09.704,-7.224406358311564
2025-03-23 11:31:09.713,-7.5369714259014335
2025-03-23 11:31:09.714,-2.3896600940413073
2025-03-23 11:31:09.714,2.785865962216842
2025-03-23 11:31:09.714,4.589726929593943
2025-03-23 11:31:09.714,3.4051912547602967
2025-03-23 11:31:09.714,1.1912147079043789
2025-03-23 11:31:09.723,-0.9333760179629349
2025-03-23 11:31:09.723,-2.832678785538169
2025-03-23 11:31:09.724,-3.8925112946571057
2025-03-23 11:31:09.724,-2.574018317784271
2025-03-23 11:31:09.733,1.5002575169893242
2025-03-23 11:31:09.733,5.35764592454229
2025-03-23 11:31:09.734,4.689053602716782
2025-03-23 11:31:09.734,-0.6843284595906216
2025-03-23 11:31:09.734,-5.219358816730299
2025-03-23 11:31:09.743,-3.9362887241295064
2025-03-23 11:31:09.743,0.9166646765589599
2025-03-23 11:31:09.744,2.7708285914402184
2025-03-23 11:31:09.744,-0.009009427704986861
2025-03-23 11:31:09.744,-1.931488685878776
2025-03-23 11:31:09.753,1.1075000404779216
2025-03-23 11:31:09.753,5.118792919940462
2025-03-23 11:31:09.753,3.3519629007075133
2025-03-23 11:31:09.754,-3.7852666465112406
2025-03-23 11:31:09.754,-8.336005527926298
