timestamp,bandpass_and_notch
2025-03-25 11:13:28.724,-0.40421227679517024
2025-03-25 11:13:28.725,3.0543656000237114
2025-03-25 11:13:28.725,3.86883424843511
2025-03-25 11:13:28.725,-4.53895318154537
2025-03-25 11:13:28.733,-19.27477863173108
2025-03-25 11:13:28.734,-20.1612945138543
2025-03-25 11:13:28.734,6.9782061911993
2025-03-25 11:13:28.734,41.54344692694233
2025-03-25 11:13:28.734,42.0000597477911
2025-03-25 11:13:28.742,-3.5515313722462034
2025-03-25 11:13:28.742,-54.06745243559116
2025-03-25 11:13:28.742,-56.575118224657714
2025-03-25 11:13:28.743,-6.218282532712301
2025-03-25 11:13:28.750,47.24985463018377
2025-03-25 11:13:28.750,54.068457416493885
2025-03-25 11:13:28.751,15.202129957062176
2025-03-25 11:13:28.751,-26.076762438075484
2025-03-25 11:13:28.751,-34.506397107668604
2025-03-25 11:13:28.760,-14.635453051181091
2025-03-25 11:13:28.760,5.343091208524437
2025-03-25 11:13:28.760,9.381736921366574
2025-03-25 11:13:28.761,5.422065084380234
2025-03-25 11:13:28.761,6.32366213359226
2025-03-25 11:13:28.770,10.402365710387276
2025-03-25 11:13:28.770,6.491611448540455
2025-03-25 11:13:28.770,-7.145679009168321
2025-03-25 11:13:28.770,-17.883692322298806
2025-03-25 11:13:28.780,-14.137048717684
2025-03-25 11:13:28.780,0.48806255924140307
2025-03-25 11:13:28.780,12.332982681242271
2025-03-25 11:13:28.780,13.310785652371806
2025-03-25 11:13:28.780,6.7522905466951535
2025-03-25 11:13:28.788,-0.41916699412459457
2025-03-25 11:13:28.788,-5.6418904982425
2025-03-25 11:13:28.788,-9.394452336368085
2025-03-25 11:13:28.788,-10.131379821089187
2025-03-25 11:13:28.798,-4.735139478363181
2025-03-25 11:13:28.798,5.887110582894862
2025-03-25 11:13:28.798,14.434688674421558
2025-03-25 11:13:28.798,12.8987415391553
2025-03-25 11:13:28.798,1.0519410793803066
2025-03-25 11:13:28.806,-11.938279082714418
2025-03-25 11:13:28.806,-15.484617931954327
2025-03-25 11:13:28.807,-7.16414709474607
2025-03-25 11:13:28.807,5.699621882184356
2025-03-25 11:13:28.807,13.055818342484104
2025-03-25 11:13:28.816,10.209955363059851
2025-03-25 11:13:28.816,0.4829124968316931
2025-03-25 11:13:28.816,-8.186578898845212
2025-03-25 11:13:28.817,-9.563869022358265
2025-03-25 11:13:28.826,-3.8733214209472315
2025-03-25 11:13:28.826,3.0445243636633808
2025-03-25 11:13:28.826,5.721325680739463
2025-03-25 11:13:28.826,3.9494094850607175
2025-03-25 11:13:28.827,1.281109205677311
2025-03-25 11:13:28.836,-0.16567684112363867
2025-03-25 11:13:28.836,-1.5356676102588516
2025-03-25 11:13:28.836,-3.9232465181263803
2025-03-25 11:13:28.836,-5.325335001617208
2025-03-25 11:13:28.836,-2.5872402089475246
2025-03-25 11:13:28.846,3.9014118419227897
2025-03-25 11:13:28.846,8.942561380450488
2025-03-25 11:13:28.846,7.09966923934332
2025-03-25 11:13:28.846,-1.333512553492403
2025-03-25 11:13:28.846,-9.516160463887719
2025-03-25 11:13:28.856,-9.990129689450368
2025-03-25 11:13:28.856,-1.96404925733809
2025-03-25 11:13:28.856,7.4160334062457585
2025-03-25 11:13:28.856,9.71138422883532
2025-03-25 11:13:28.856,3.479854668493457
2025-03-25 11:13:28.866,-4.473090324994121
2025-03-25 11:13:28.866,-6.482361264853168
2025-03-25 11:13:28.866,-2.001189688203846
2025-03-25 11:13:28.866,2.728181217507998
2025-03-25 11:13:28.866,2.4831364472969932
2025-03-25 11:13:28.876,-1.2199721459121173
2025-03-25 11:13:28.876,-2.9326619520176056
2025-03-25 11:13:28.876,-0.280920738428056
2025-03-25 11:13:28.876,3.6048328609171283
2025-03-25 11:13:28.876,4.280475887620736
2025-03-25 11:13:28.884,0.8811266358609582
2025-03-25 11:13:28.884,-3.5527546140083346
2025-03-25 11:13:28.884,-5.333014095411608
2025-03-25 11:13:28.885,-3.0470493080240466
2025-03-25 11:13:28.885,1.6702917914523316
2025-03-25 11:13:28.894,5.209381137779913
2025-03-25 11:13:28.894,4.524949784168812
2025-03-25 11:13:28.895,0.013053223874443132
2025-03-25 11:13:28.895,-4.175877910162353
2025-03-25 11:13:28.895,-3.9940240891583625
2025-03-25 11:13:28.904,-0.04587897472931496
2025-03-25 11:13:28.904,2.8925561840135816
2025-03-25 11:13:28.905,1.6372628125615565
2025-03-25 11:13:28.905,-1.3358430013305451
2025-03-25 11:13:28.914,-1.2690259910455632
2025-03-25 11:13:28.914,1.9444815032353364
2025-03-25 11:13:28.914,2.952173678371811
2025-03-25 11:13:28.914,-1.4235701002862786
2025-03-25 11:13:28.914,-6.230106913911365
2025-03-25 11:13:28.924,-3.8642037311172728
2025-03-25 11:13:28.924,4.87866170730186
2025-03-25 11:13:28.924,9.842922848052458
2025-03-25 11:13:28.924,3.9135997024624385
2025-03-25 11:13:28.925,-7.051821250411198
2025-03-25 11:13:28.934,-10.684742438123179
2025-03-25 11:13:28.934,-3.1826947543336623
2025-03-25 11:13:28.934,6.39617480330581
2025-03-25 11:13:28.934,7.706309432996687
2025-03-25 11:13:28.935,1.2580048355317983
2025-03-25 11:13:28.944,-3.8040439645300825
2025-03-25 11:13:28.944,-2.0773915886692578
2025-03-25 11:13:28.944,2.011509316395103
2025-03-25 11:13:28.944,1.4206655329689
2025-03-25 11:13:28.944,-3.4708084046500414
2025-03-25 11:13:28.954,-5.4087703051738885
2025-03-25 11:13:28.954,-0.35738365309640713
2025-03-25 11:13:28.954,6.480030313162795
2025-03-25 11:13:28.954,6.890042243557098
2025-03-25 11:13:28.954,0.11299319729516172
2025-03-25 11:13:28.964,-6.144075036933049
2025-03-25 11:13:28.964,-5.379416146042328
2025-03-25 11:13:28.964,0.12778944974828754
2025-03-25 11:13:28.964,3.3448251523887675
2025-03-25 11:13:28.965,1.825770508437869
2025-03-25 11:13:28.974,-0.3612633056054962
2025-03-25 11:13:28.974,0.33806187470720334
2025-03-25 11:13:28.974,1.787025466472231
2025-03-25 11:13:28.974,0.0704996938176545
2025-03-25 11:13:28.975,-3.7278021953233105
2025-03-25 11:13:28.984,-4.1595895223774555
2025-03-25 11:13:28.984,0.9263993247637616
2025-03-25 11:13:28.984,6.311323696729402
2025-03-25 11:13:28.984,5.180525305902179
2025-03-25 11:13:28.984,-2.138144685623899
2025-03-25 11:13:28.994,-7.767735168563703
2025-03-25 11:13:28.994,-5.265365575836615
2025-03-25 11:13:28.994,2.7613310078698996
2025-03-25 11:13:28.994,7.636328268227938
2025-03-25 11:13:28.994,4.556546309297204
2025-03-25 11:13:29.004,-2.3881291345584468
2025-03-25 11:13:29.004,-5.648265074493944
2025-03-25 11:13:29.004,-2.908831061155664
2025-03-25 11:13:29.004,1.3896444342362793
2025-03-25 11:13:29.004,2.4491148634756073
2025-03-25 11:13:29.014,0.5782886704185751
2025-03-25 11:13:29.014,-0.6092958512888518
2025-03-25 11:13:29.014,0.4312366831450901
2025-03-25 11:13:29.014,1.6273608270109656
2025-03-25 11:13:29.014,0.6794517656243773
2025-03-25 11:13:29.024,-1.8116040825773159
2025-03-25 11:13:29.024,-3.140541000057083
2025-03-25 11:13:29.024,-1.543032407328281
2025-03-25 11:13:29.024,1.9389829484513745
2025-03-25 11:13:29.024,4.157470202099529
2025-03-25 11:13:29.034,2.5434654693281704
2025-03-25 11:13:29.034,-2.0261972247543802
2025-03-25 11:13:29.034,-5.134529182966492
2025-03-25 11:13:29.034,-2.9958725309469143
2025-03-25 11:13:29.034,2.767944432510668
2025-03-25 11:13:29.042,5.9906215988536875
2025-03-25 11:13:29.042,2.790763714573265
2025-03-25 11:13:29.042,-3.543677096154077
2025-03-25 11:13:29.043,-6.116808537175695
2025-03-25 11:13:29.043,-2.376864491523838
2025-03-25 11:13:29.052,3.2764635832225384
2025-03-25 11:13:29.052,5.0277414453302205
2025-03-25 11:13:29.052,2.0528168827047764
2025-03-25 11:13:29.053,-1.6666913601612225
2025-03-25 11:13:29.053,-2.729494752009883
2025-03-25 11:13:29.062,-1.6430924437960126
2025-03-25 11:13:29.062,-0.6913580122072556
2025-03-25 11:13:29.062,-0.31654970336128696
2025-03-25 11:13:29.063,0.8446532930660422
2025-03-25 11:13:29.072,2.865926180961913
2025-03-25 11:13:29.072,3.3585312572146666
2025-03-25 11:13:29.072,0.4206467200922622
2025-03-25 11:13:29.073,-4.07222252777469
2025-03-25 11:13:29.073,-5.618724971745225
2025-03-25 11:13:29.082,-1.9488422717387373
2025-03-25 11:13:29.082,4.038216898986139
2025-03-25 11:13:29.082,6.807810021472468
2025-03-25 11:13:29.082,3.5326910900532758
2025-03-25 11:13:29.083,-3.1538069763481897
2025-03-25 11:13:29.092,-7.373855874976432
2025-03-25 11:13:29.092,-5.095487267993579
2025-03-25 11:13:29.092,2.0738130041648994
2025-03-25 11:13:29.092,7.766625803294898
2025-03-25 11:13:29.093,6.410569363656578
2025-03-25 11:13:29.102,-1.1340482940904848
2025-03-25 11:13:29.102,-7.7790248271065705
2025-03-25 11:13:29.102,-6.987806337202313
2025-03-25 11:13:29.102,0.4448850495472159
2025-03-25 11:13:29.103,7.014029859088402
2025-03-25 11:13:29.112,6.318251879922256
2025-03-25 11:13:29.112,-0.21506952795111584
2025-03-25 11:13:29.112,-5.258869994162268
2025-03-25 11:13:29.112,-4.09666140699768
2025-03-25 11:13:29.112,0.38619587695060364
2025-03-25 11:13:29.122,2.2797175629069693
2025-03-25 11:13:29.122,0.5294498990846938
2025-03-25 11:13:29.122,-0.5540729955668112
2025-03-25 11:13:29.122,1.5565842041154718
2025-03-25 11:13:29.122,3.4317030305622516
2025-03-25 11:13:29.132,0.7214677736928505
2025-03-25 11:13:29.132,-4.785677389476822
2025-03-25 11:13:29.132,-6.409523133958221
2025-03-25 11:13:29.132,-1.0644579344338545
2025-03-25 11:13:29.132,6.065871522387285
2025-03-25 11:13:29.142,7.121316515884291
2025-03-25 11:13:29.142,0.9516095236920277
2025-03-25 11:13:29.142,-5.270954489831263
2025-03-25 11:13:29.142,-4.690207664643486
2025-03-25 11:13:29.142,0.734512188767295
2025-03-25 11:13:29.152,2.99911402795676
2025-03-25 11:13:29.152,-0.8634430835870648
2025-03-25 11:13:29.152,-4.263422326790477
2025-03-25 11:13:29.152,-0.2507936414947823
2025-03-25 11:13:29.152,7.610389604056335
2025-03-25 11:13:29.160,8.52059798506158
2025-03-25 11:13:29.160,-1.2647882827992736
2025-03-25 11:13:29.160,-12.125567065253914
2025-03-25 11:13:29.161,-11.741940118122871
2025-03-25 11:13:29.170,0.39211760407465723
2025-03-25 11:13:29.170,12.219691936839274
2025-03-25 11:13:29.170,12.362873860617537
2025-03-25 11:13:29.170,1.7503770432666625
2025-03-25 11:13:29.170,-8.541968015259872
2025-03-25 11:13:29.180,-9.522152718616631
2025-03-25 11:13:29.180,-2.783092623668871
2025-03-25 11:13:29.180,3.25614404353178
2025-03-25 11:13:29.181,3.7438151384285088
2025-03-25 11:13:29.181,1.6330458842467248
2025-03-25 11:13:29.190,1.5357365223691704
2025-03-25 11:13:29.190,2.6606064129693667
2025-03-25 11:13:29.190,0.786692540189118
2025-03-25 11:13:29.190,-4.19196410772715
2025-03-25 11:13:29.191,-6.720607021973605
2025-03-25 11:13:29.200,-2.7988633087124395
2025-03-25 11:13:29.200,4.076624009414219
2025-03-25 11:13:29.200,6.732297557738727
2025-03-25 11:13:29.200,2.9919408178636746
2025-03-25 11:13:29.200,-2.1470061856474536
2025-03-25 11:13:29.210,-3.2476403309114183
2025-03-25 11:13:29.210,-0.8624175487318212
2025-03-25 11:13:29.210,0.39988276475936213
2025-03-25 11:13:29.210,-1.2760397081500043
2025-03-25 11:13:29.210,-2.626713823692745
2025-03-25 11:13:29.220,-0.2787406762403767
2025-03-25 11:13:29.220,4.083645879556264
2025-03-25 11:13:29.220,5.365404306410626
2025-03-25 11:13:29.220,1.4399578699524924
2025-03-25 11:13:29.220,-3.9685485185289875
2025-03-25 11:13:29.230,-5.590257440814917
2025-03-25 11:13:29.230,-2.5132790560731646
2025-03-25 11:13:29.230,1.6630493665048223
2025-03-25 11:13:29.230,3.647721998640596
2025-03-25 11:13:29.230,3.1685448972441668
2025-03-25 11:13:29.240,1.1045246510058062
2025-03-25 11:13:29.240,-2.008007882008057
2025-03-25 11:13:29.240,-4.394987462216797
2025-03-25 11:13:29.240,-2.974407110744675
2025-03-25 11:13:29.240,2.417903646422136
2025-03-25 11:13:29.248,6.566697930403099
2025-03-25 11:13:29.248,4.012837002454398
2025-03-25 11:13:29.249,-3.629102650137928
2025-03-25 11:13:29.249,-8.433312294113493
2025-03-25 11:13:29.249,-5.030143550690804
2025-03-25 11:13:29.258,3.2879982292890375
2025-03-25 11:13:29.258,8.398250888152521
2025-03-25 11:13:29.259,5.9436004822566675
2025-03-25 11:13:29.259,-1.0597995945268632
2025-03-25 11:13:29.259,-6.233356599537845
2025-03-25 11:13:29.268,-5.910163285498484
2025-03-25 11:13:29.268,-1.4020686844073695
2025-03-25 11:13:29.269,3.198899525246623
2025-03-25 11:13:29.269,4.642915908572279
2025-03-25 11:13:29.269,2.6569851205496406
2025-03-25 11:13:29.278,-0.542655949339871
2025-03-25 11:13:29.278,-2.56177246628045
2025-03-25 11:13:29.278,-2.660995639879721
2025-03-25 11:13:29.279,-1.459679225405161
2025-03-25 11:13:29.288,0.3541592816618384
2025-03-25 11:13:29.288,2.1422431133940494
2025-03-25 11:13:29.288,2.695225467142846
2025-03-25 11:13:29.289,1.0716234100337156
2025-03-25 11:13:29.289,-1.58983648881916
2025-03-25 11:13:29.298,-2.5560520989809468
2025-03-25 11:13:29.298,-0.8136460150000112
2025-03-25 11:13:29.298,1.1861708486722387
2025-03-25 11:13:29.298,0.6265846047225097
2025-03-25 11:13:29.298,-1.445791675563548
2025-03-25 11:13:29.308,-1.1756267436697156
2025-03-25 11:13:29.308,2.3548316257542834
2025-03-25 11:13:29.308,4.7876209920749355
2025-03-25 11:13:29.308,1.8497564623892253
2025-03-25 11:13:29.309,-4.341869734025323
2025-03-25 11:13:29.318,-7.071242118198253
2025-03-25 11:13:29.318,-3.122324154733187
2025-03-25 11:13:29.318,3.4181119734029974
2025-03-25 11:13:29.318,6.323864555314335
2025-03-25 11:13:29.319,4.075350418764358
2025-03-25 11:13:29.328,0.019759996504623012
2025-03-25 11:13:29.328,-2.621835496877913
2025-03-25 11:13:29.328,-3.493157197586132
2025-03-25 11:13:29.328,-3.2622681951209755
2025-03-25 11:13:29.329,-1.630947639867449
2025-03-25 11:13:29.338,1.5038367877024788
2025-03-25 11:13:29.338,4.202010594036437
2025-03-25 11:13:29.338,3.7333350228496167
2025-03-25 11:13:29.338,0.005399083069764554
2025-03-25 11:13:29.338,-3.4740079128749053
2025-03-25 11:13:29.348,-3.094628568321841
2025-03-25 11:13:29.348,0.6176759433528427
2025-03-25 11:13:29.348,3.2195254415087105
2025-03-25 11:13:29.348,1.3462005763789109
2025-03-25 11:13:29.348,-3.018775863526375
2025-03-25 11:13:29.358,-4.3965290092422675
2025-03-25 11:13:29.358,-0.3346617232441299
2025-03-25 11:13:29.358,5.105560688042079
2025-03-25 11:13:29.358,5.792991624784901
2025-03-25 11:13:29.358,0.8414469000011429
2025-03-25 11:13:29.368,-4.527514042280973
2025-03-25 11:13:29.368,-5.507163716490406
2025-03-25 11:13:29.368,-2.669516331167735
2025-03-25 11:13:29.368,0.5667132907189026
2025-03-25 11:13:29.368,2.8131267735529693
2025-03-25 11:13:29.378,4.582517789954497
2025-03-25 11:13:29.378,4.881179202863833
2025-03-25 11:13:29.378,1.4694081225581324
2025-03-25 11:13:29.378,-4.816037438711511
2025-03-25 11:13:29.378,-8.68591240594994
2025-03-25 11:13:29.388,-5.5228357103212
2025-03-25 11:13:29.388,2.786405902744983
2025-03-25 11:13:29.388,8.934086361591113
2025-03-25 11:13:29.388,7.492485235269829
2025-03-25 11:13:29.388,0.24110402171155348
2025-03-25 11:13:29.398,-6.103424837242263
2025-03-25 11:13:29.398,-6.680297911847502
2025-03-25 11:13:29.398,-2.43645216563036
2025-03-25 11:13:29.398,2.113208722905897
2025-03-25 11:13:29.398,3.866051988266253
2025-03-25 11:13:29.406,3.170095167743766
2025-03-25 11:13:29.406,1.5382623885927396
2025-03-25 11:13:29.407,-0.74750065424653
2025-03-25 11:13:29.407,-3.4531108744988055
2025-03-25 11:13:29.407,-4.300973656171391
2025-03-25 11:13:29.416,-1.0002226646781058
2025-03-25 11:13:29.416,4.334347336404728
2025-03-25 11:13:29.417,5.841567857887627
2025-03-25 11:13:29.417,0.9176540317865456
2025-03-25 11:13:29.417,-5.469603398023367
2025-03-25 11:13:29.426,-6.065530852993158
2025-03-25 11:13:29.426,-0.06314522941659512
2025-03-25 11:13:29.427,5.95162697882564
2025-03-25 11:13:29.427,5.720846109465385
2025-03-25 11:13:29.427,-0.148705060482556
2025-03-25 11:13:29.436,-5.695568512019025
2025-03-25 11:13:29.436,-5.850975769868554
2025-03-25 11:13:29.436,-0.6501620917950584
2025-03-25 11:13:29.437,5.229103252402558
2025-03-25 11:13:29.446,6.421475451697475
2025-03-25 11:13:29.446,1.6575825935089177
2025-03-25 11:13:29.446,-4.6155914743677515
2025-03-25 11:13:29.447,-6.346150284053239
2025-03-25 11:13:29.447,-2.152264279325514
2025-03-25 11:13:29.456,3.4280678964962537
2025-03-25 11:13:29.456,5.178724884557912
2025-03-25 11:13:29.456,2.3463830977412687
2025-03-25 11:13:29.456,-1.8162181762477
2025-03-25 11:13:29.457,-3.888117586354978
2025-03-25 11:13:29.466,-2.6778351938190967
2025-03-25 11:13:29.466,0.6482624875210351
2025-03-25 11:13:29.466,3.3657963019459403
2025-03-25 11:13:29.466,3.0269985243719004
2025-03-25 11:13:29.466,-0.1533990805317954
2025-03-25 11:13:29.476,-3.1341238610942765
2025-03-25 11:13:29.476,-3.1067297915637484
2025-03-25 11:13:29.476,-0.3651469342498326
2025-03-25 11:13:29.476,2.34375402770299
2025-03-25 11:13:29.477,2.7656020497473324
2025-03-25 11:13:29.486,0.9818223342565287
2025-03-25 11:13:29.486,-1.1238912756835233
2025-03-25 11:13:29.486,-1.7558997895711907
2025-03-25 11:13:29.486,-0.8251255472584178
2025-03-25 11:13:29.487,0.2042168791004192
2025-03-25 11:13:29.496,0.2351309012893018
2025-03-25 11:13:29.496,-0.17227002496222021
2025-03-25 11:13:29.496,0.0245178999210265
2025-03-25 11:13:29.496,0.618374658993797
2025-03-25 11:13:29.496,0.6919338521255174
2025-03-25 11:13:29.506,0.3362093877843877
2025-03-25 11:13:29.506,0.3455049841271961
2025-03-25 11:13:29.506,0.3651437300899377
2025-03-25 11:13:29.506,-0.8476674879609905
2025-03-25 11:13:29.506,-2.7648377326457156
2025-03-25 11:13:29.516,-2.563935522647981
2025-03-25 11:13:29.516,1.0983556933733023
2025-03-25 11:13:29.516,4.956029056570522
2025-03-25 11:13:29.516,4.19649006318147
2025-03-25 11:13:29.516,-1.1957216251997966
2025-03-25 11:13:29.526,-5.457209826375622
2025-03-25 11:13:29.526,-3.7167884719403363
2025-03-25 11:13:29.526,1.8464963657938749
2025-03-25 11:13:29.526,4.4630490696624525
2025-03-25 11:13:29.526,1.058283592950374
2025-03-25 11:13:29.536,-3.8683345357115386
2025-03-25 11:13:29.536,-3.6273780613020286
2025-03-25 11:13:29.536,2.3695307608439027
2025-03-25 11:13:29.536,7.291288974778138
2025-03-25 11:13:29.536,4.414772391886766
2025-03-25 11:13:29.544,-4.755201491637807
2025-03-25 11:13:29.545,-11.004916634315611
2025-03-25 11:13:29.545,-6.752559527163412
2025-03-25 11:13:29.545,5.207276242446171
2025-03-25 11:13:29.554,13.314580070123327
2025-03-25 11:13:29.554,8.839550446154512
2025-03-25 11:13:29.554,-4.266332131936569
2025-03-25 11:13:29.554,-12.807684216649596
2025-03-25 11:13:29.555,-8.474337053536534
2025-03-25 11:13:29.564,3.1364716539009407
2025-03-25 11:13:29.564,9.41340059649299
2025-03-25 11:13:29.564,5.238537369701542
2025-03-25 11:13:29.564,-2.50799691437509
2025-03-25 11:13:29.564,-4.8542667140110725
2025-03-25 11:13:29.574,-1.2287764184159284
2025-03-25 11:13:29.574,2.1692137180904756
2025-03-25 11:13:29.574,1.5259653339555173
2025-03-25 11:13:29.574,-0.9415671033456201
2025-03-25 11:13:29.574,-1.7188091435857207
2025-03-25 11:13:29.584,-0.5650331307720474
2025-03-25 11:13:29.584,0.6659966334187044
2025-03-25 11:13:29.584,1.1206889862330618
2025-03-25 11:13:29.584,1.1039670504001375
2025-03-25 11:13:29.584,0.608895012146045
2025-03-25 11:13:29.594,-0.5089337924652498
2025-03-25 11:13:29.594,-1.4668506920998432
2025-03-25 11:13:29.594,-1.1788469000241033
2025-03-25 11:13:29.594,0.10285291554752989
2025-03-25 11:13:29.594,0.9019267836290618
2025-03-25 11:13:29.604,0.4676441888573625
2025-03-25 11:13:29.604,-0.2574457556583388
2025-03-25 11:13:29.604,-0.05035013408615057
2025-03-25 11:13:29.604,0.7855638976273611
2025-03-25 11:13:29.604,0.7889795709992576
2025-03-25 11:13:29.612,-0.429298088582085
2025-03-25 11:13:29.613,-1.2189601030881572
2025-03-25 11:13:29.613,-0.16951889154119776
2025-03-25 11:13:29.613,1.1552801284553165
2025-03-25 11:13:29.613,-0.15252803807700463
2025-03-25 11:13:29.622,-3.3171886431130817
2025-03-25 11:13:29.622,-3.183641346498668
2025-03-25 11:13:29.623,2.81522062549397
2025-03-25 11:13:29.623,8.893891146236623
2025-03-25 11:13:29.623,6.40254354113837
2025-03-25 11:13:29.632,-4.532929597110854
2025-03-25 11:13:29.632,-12.975403669699428
2025-03-25 11:13:29.633,-9.248507736314323
2025-03-25 11:13:29.633,3.4200816206154943
2025-03-25 11:13:29.642,12.39862542309022
2025-03-25 11:13:29.642,9.76033029323612
2025-03-25 11:13:29.642,-0.17448187560223505
2025-03-25 11:13:29.642,-7.398937407475844
2025-03-25 11:13:29.642,-7.136191804986896
2025-03-25 11:13:29.652,-2.5696030842828845
2025-03-25 11:13:29.652,1.1090812331795659
2025-03-25 11:13:29.652,2.3581607371179105
2025-03-25 11:13:29.652,2.786464233199177
2025-03-25 11:13:29.653,3.283307998817277
2025-03-25 11:13:29.662,2.5745110376052853
2025-03-25 11:13:29.662,-0.458938102476393
2025-03-25 11:13:29.662,-4.362692214971274
2025-03-25 11:13:29.662,-5.88242993367768
2025-03-25 11:13:29.662,-3.0655008348333834
2025-03-25 11:13:29.672,2.570555281073587
2025-03-25 11:13:29.672,6.803914208827636
2025-03-25 11:13:29.672,5.960794607812566
2025-03-25 11:13:29.672,0.34207728511631363
2025-03-25 11:13:29.673,-5.420275637115052
2025-03-25 11:13:29.682,-6.459278805825361
2025-03-25 11:13:29.682,-2.561953319686223
2025-03-25 11:13:29.682,2.0443636350134913
2025-03-25 11:13:29.682,3.973483132779638
2025-03-25 11:13:29.683,3.7674393525081236
2025-03-25 11:13:29.692,2.787978625080987
2025-03-25 11:13:29.692,0.0009092533718109003
2025-03-25 11:13:29.692,-4.977967327811815
2025-03-25 11:13:29.692,-7.7310276363927235
2025-03-25 11:13:29.692,-3.0148883462086173
2025-03-25 11:13:29.700,6.570636353352828
2025-03-25 11:13:29.700,10.827782562337097
2025-03-25 11:13:29.701,3.8666597128040454
2025-03-25 11:13:29.701,-7.405332831698383
2025-03-25 11:13:29.710,-10.725593547916617
2025-03-25 11:13:29.710,-3.1169904597899682
2025-03-25 11:13:29.710,6.1341266986008405
2025-03-25 11:13:29.711,7.490659582145328
2025-03-25 11:13:29.711,1.942089455527856
2025-03-25 11:13:29.720,-2.628110421831258
2025-03-25 11:13:29.720,-2.529485604759943
2025-03-25 11:13:29.720,-1.1881969305207307
2025-03-25 11:13:29.720,-1.8026622153670127
2025-03-25 11:13:29.721,-2.20051605610818
2025-03-25 11:13:29.730,0.7691126257758353
2025-03-25 11:13:29.730,5.135332690241831
2025-03-25 11:13:29.730,5.628147859350179
2025-03-25 11:13:29.730,0.5275630920548655
2025-03-25 11:13:29.730,-5.994966422847798
2025-03-25 11:13:29.740,-8.161544210543623
2025-03-25 11:13:29.740,-3.6774456312699013
2025-03-25 11:13:29.740,4.5999714469899775
2025-03-25 11:13:29.740,10.283116392914408
2025-03-25 11:13:29.741,7.798532307501332
2025-03-25 11:13:29.748,-2.130547674797876
2025-03-25 11:13:29.748,-11.250569885464325
2025-03-25 11:13:29.749,-10.725431321830975
2025-03-25 11:13:29.749,-0.5450229404168678
2025-03-25 11:13:29.758,9.755089995564914
2025-03-25 11:13:29.758,10.984326358426728
2025-03-25 11:13:29.758,3.368588970113125
2025-03-25 11:13:29.758,-5.403500132271053
2025-03-25 11:13:29.759,-8.940229086127934
2025-03-25 11:13:29.768,-6.457707065979146
2025-03-25 11:13:29.768,-0.3642075498413558
2025-03-25 11:13:29.768,6.123949368985696
2025-03-25 11:13:29.768,8.894700624960517
2025-03-25 11:13:29.769,4.924246052883575
2025-03-25 11:13:29.778,-3.45806595785385
2025-03-25 11:13:29.778,-9.009693028921902
2025-03-25 11:13:29.778,-6.7104974524797525
2025-03-25 11:13:29.779,0.8443600547627386
2025-03-25 11:13:29.779,6.628702267905764
2025-03-25 11:13:29.788,6.371066825480308
2025-03-25 11:13:29.788,1.4066691918631125
2025-03-25 11:13:29.788,-3.8352892271874452
2025-03-25 11:13:29.788,-5.40038676548494
2025-03-25 11:13:29.789,-2.250430415707582
2025-03-25 11:13:29.798,2.6995683148087974
2025-03-25 11:13:29.798,4.555473063440994
2025-03-25 11:13:29.798,1.3385799733079982
2025-03-25 11:13:29.798,-3.283935103628394
2025-03-25 11:13:29.799,-3.830774696687939
2025-03-25 11:13:29.808,0.403910072886036
2025-03-25 11:13:29.808,4.3233227582575
2025-03-25 11:13:29.808,3.204017087612182
2025-03-25 11:13:29.808,-1.6353861448752784
2025-03-25 11:13:29.809,-4.683642197705769
2025-03-25 11:13:29.818,-2.876464002564934
2025-03-25 11:13:29.818,1.3947222601190705
2025-03-25 11:13:29.818,3.8434406394682687
2025-03-25 11:13:29.818,2.9277481860488335
2025-03-25 11:13:29.819,0.18625136803476872
2025-03-25 11:13:29.828,-2.2464789399101557
2025-03-25 11:13:29.828,-2.9627684052532803
2025-03-25 11:13:29.828,-1.4656336494878177
2025-03-25 11:13:29.828,1.1138685271167765
2025-03-25 11:13:29.829,2.2731083396660123
2025-03-25 11:13:29.838,0.8374887838240241
2025-03-25 11:13:29.838,-1.185993698722877
2025-03-25 11:13:29.838,-1.0127840221336333
2025-03-25 11:13:29.838,1.2190082764432115
2025-03-25 11:13:29.839,2.6083213674268566
2025-03-25 11:13:29.848,0.9493334564664446
2025-03-25 11:13:29.848,-2.940365046877979
2025-03-25 11:13:29.848,-5.674472110469133
2025-03-25 11:13:29.848,-3.6462690434551015
2025-03-25 11:13:29.849,3.332810536409772
2025-03-25 11:13:29.856,9.756658410429939
2025-03-25 11:13:29.856,8.206593305212937
2025-03-25 11:13:29.857,-2.159917453728471
2025-03-25 11:13:29.857,-12.409724824847988
2025-03-25 11:13:29.866,-12.078913525982166
2025-03-25 11:13:29.866,-0.5749339238114642
2025-03-25 11:13:29.866,11.64549572611384
2025-03-25 11:13:29.866,13.505711771961298
2025-03-25 11:13:29.867,3.7888179889504254
2025-03-25 11:13:29.876,-8.427661390467838
2025-03-25 11:13:29.876,-12.455091481673229
2025-03-25 11:13:29.876,-5.401407713972986
2025-03-25 11:13:29.876,5.545683036418106
2025-03-25 11:13:29.876,9.950660030834536
2025-03-25 11:13:29.884,4.266733667638432
2025-03-25 11:13:29.884,-4.676903046709101
2025-03-25 11:13:29.885,-7.146992882797348
2025-03-25 11:13:29.885,-1.2346772984540033
2025-03-25 11:13:29.885,5.423192436826405
2025-03-25 11:13:29.894,4.961371278845938
2025-03-25 11:13:29.895,-1.668592195746542
2025-03-25 11:13:29.895,-6.52461324477575
2025-03-25 11:13:29.895,-4.215854163606812
2025-03-25 11:13:29.904,2.5942217218305976
2025-03-25 11:13:29.904,6.989382133484325
2025-03-25 11:13:29.904,5.098572736459737
2025-03-25 11:13:29.904,-0.9520692147769787
2025-03-25 11:13:29.905,-5.950956003477866
2025-03-25 11:13:29.914,-6.346870145067459
2025-03-25 11:13:29.914,-2.4884031531947834
2025-03-25 11:13:29.915,2.698115299618363
2025-03-25 11:13:29.915,6.2427103728368865
2025-03-25 11:13:29.915,6.277152334825037
2025-03-25 11:13:29.924,2.156980208354473
2025-03-25 11:13:29.924,-4.519487003735462
2025-03-25 11:13:29.924,-9.00421004634747
2025-03-25 11:13:29.925,-6.263299757896856
2025-03-25 11:13:29.925,2.8822108076172306
2025-03-25 11:13:29.934,9.95459240583791
2025-03-25 11:13:29.934,6.887349170386525
2025-03-25 11:13:29.934,-3.5328969041954763
2025-03-25 11:13:29.934,-9.174893510525017
2025-03-25 11:13:29.935,-3.0756203772122164
2025-03-25 11:13:29.944,6.8277156227933675
2025-03-25 11:13:29.944,7.128801152520313
2025-03-25 11:13:29.944,-3.2454915056105427
2025-03-25 11:13:29.944,-10.73237010325639
2025-03-25 11:13:29.944,-4.598049117638821
2025-03-25 11:13:29.952,8.570226444593994
2025-03-25 11:13:29.952,12.775544063219629
2025-03-25 11:13:29.953,2.6220870429545977
2025-03-25 11:13:29.953,-10.359355136575594
2025-03-25 11:13:29.962,-12.085428500487959
2025-03-25 11:13:29.962,-1.9107601503678748
2025-03-25 11:13:29.962,8.498793887483039
2025-03-25 11:13:29.962,9.427441637579232
2025-03-25 11:13:29.963,2.3690980788162284
2025-03-25 11:13:29.972,-4.47264469505285
2025-03-25 11:13:29.972,-6.015904660495552
2025-03-25 11:13:29.972,-3.515267024653134
2025-03-25 11:13:29.973,-0.20502054155415053
2025-03-25 11:13:29.973,2.630777732125527
2025-03-25 11:13:29.982,4.66299809716312
2025-03-25 11:13:29.982,4.421918786487584
2025-03-25 11:13:29.982,0.6637266360403331
2025-03-25 11:13:29.982,-4.707373398796294
2025-03-25 11:13:29.983,-7.175667127401877
2025-03-25 11:13:29.992,-3.971001915699518
2025-03-25 11:13:29.992,2.7295746518992576
2025-03-25 11:13:29.992,7.524689561996882
2025-03-25 11:13:29.993,6.612015735335276
2025-03-25 11:13:29.993,0.9168428292067072
2025-03-25 11:13:30.002,-5.069380770145269
2025-03-25 11:13:30.002,-7.188489667848227
2025-03-25 11:13:30.002,-4.58984163630229
2025-03-25 11:13:30.003,0.4997344946762443
2025-03-25 11:13:30.003,5.0874060410904125
2025-03-25 11:13:30.012,6.9425758262659985
2025-03-25 11:13:30.012,4.662899544078897
2025-03-25 11:13:30.012,-1.5737564522806513
2025-03-25 11:13:30.012,-8.17288490089983
2025-03-25 11:13:30.013,-9.031410885875736
2025-03-25 11:13:30.022,-1.3995910605488824
2025-03-25 11:13:30.022,9.021015542140333
2025-03-25 11:13:30.022,11.883827164196886
2025-03-25 11:13:30.022,3.1376085969433753
2025-03-25 11:13:30.022,-9.246194838578289
2025-03-25 11:13:30.030,-12.822260375373645
2025-03-25 11:13:30.031,-3.9766557771883586
2025-03-25 11:13:30.031,8.083303132542703
2025-03-25 11:13:30.031,11.365211586832233
2025-03-25 11:13:30.040,3.774815225686331
2025-03-25 11:13:30.040,-5.658016846117877
2025-03-25 11:13:30.040,-7.532966695367907
2025-03-25 11:13:30.041,-1.9102170803853986
2025-03-25 11:13:30.041,3.382975281512483
2025-03-25 11:13:30.050,2.606431129712141
2025-03-25 11:13:30.050,-1.7335469925605627
2025-03-25 11:13:30.050,-2.8114961834009464
2025-03-25 11:13:30.051,1.661418288347122
2025-03-25 11:13:30.051,6.093155669910292
2025-03-25 11:13:30.060,3.6880012315840665
2025-03-25 11:13:30.060,-4.240037655726724
2025-03-25 11:13:30.060,-8.59191666560244
2025-03-25 11:13:30.060,-3.7263024217631324
2025-03-25 11:13:30.061,4.670961364060743
2025-03-25 11:13:30.070,6.717436899827387
2025-03-25 11:13:30.070,1.3496172818283172
2025-03-25 11:13:30.070,-3.0901500996366047
2025-03-25 11:13:30.070,-1.207623604916066
2025-03-25 11:13:30.071,2.397471635421833
2025-03-25 11:13:30.080,0.9668806515829483
2025-03-25 11:13:30.080,-4.18234073494965
2025-03-25 11:13:30.080,-5.634099115713689
2025-03-25 11:13:30.081,-0.14781446433318973
2025-03-25 11:13:30.081,7.004164259791735
2025-03-25 11:13:30.090,8.032757941493099
2025-03-25 11:13:30.090,0.917747248668934
2025-03-25 11:13:30.090,-8.254072772698702
2025-03-25 11:13:30.090,-10.4080879296197
2025-03-25 11:13:30.091,-2.1675863225690097
2025-03-25 11:13:30.098,9.420376459247551
2025-03-25 11:13:30.099,12.585171885888563
2025-03-25 11:13:30.099,3.249384961706242
2025-03-25 11:13:30.099,-9.556157306796793
2025-03-25 11:13:30.108,-12.976374788222865
2025-03-25 11:13:30.108,-4.232997415133071
2025-03-25 11:13:30.108,7.110412996999301
2025-03-25 11:13:30.108,10.379911798806772
2025-03-25 11:13:30.109,4.543262821956074
2025-03-25 11:13:30.118,-2.9800576327425476
2025-03-25 11:13:30.118,-5.601801111795733
2025-03-25 11:13:30.118,-3.25157876718385
2025-03-25 11:13:30.119,0.07572624442741246
2025-03-25 11:13:30.119,1.3856598008726335
2025-03-25 11:13:30.128,0.5240549631471905
2025-03-25 11:13:30.128,-0.8106112097062401
2025-03-25 11:13:30.128,-0.44439075555578617
2025-03-25 11:13:30.128,2.394559499227205
2025-03-25 11:13:30.129,5.149032860701739
2025-03-25 11:13:30.138,3.3768966702677017
2025-03-25 11:13:30.138,-3.7860584191339286
2025-03-25 11:13:30.138,-10.431879177557407
2025-03-25 11:13:30.138,-8.754645263320851
2025-03-25 11:13:30.139,2.0685349033784832
2025-03-25 11:13:30.146,13.271302421444274
2025-03-25 11:13:30.146,14.124708282061222
2025-03-25 11:13:30.147,2.568519189447356
2025-03-25 11:13:30.147,-11.847430601017
2025-03-25 11:13:30.156,-16.33072780889635
2025-03-25 11:13:30.156,-7.146841952914136
2025-03-25 11:13:30.156,6.652600643534983
2025-03-25 11:13:30.157,12.807304639339087
2025-03-25 11:13:30.157,8.327082413235889
2025-03-25 11:13:30.166,0.3440249024616084
2025-03-25 11:13:30.166,-4.317504320705687
2025-03-25 11:13:30.166,-5.879344545586973
2025-03-25 11:13:30.166,-6.705768965885316
2025-03-25 11:13:30.167,-4.8955618569583255
2025-03-25 11:13:30.174,2.2448573280525133
2025-03-25 11:13:30.175,10.521667013195188
2025-03-25 11:13:30.175,10.786463381114025
2025-03-25 11:13:30.175,0.37295173526151626
2025-03-25 11:13:30.175,-11.335831338032447
2025-03-25 11:13:30.184,-12.266319340667065
2025-03-25 11:13:30.184,-1.3571536847338503
2025-03-25 11:13:30.184,10.080798390958373
2025-03-25 11:13:30.185,10.79509574817228
2025-03-25 11:13:30.194,1.1558088947732736
2025-03-25 11:13:30.194,-8.325350145167446
2025-03-25 11:13:30.194,-8.404315930593201
2025-03-25 11:13:30.194,-0.05256877966192064
2025-03-25 11:13:30.195,7.3152139085779995
2025-03-25 11:13:30.204,5.9439997027180995
2025-03-25 11:13:30.204,-2.054626984550228
2025-03-25 11:13:30.204,-7.210920621584774
2025-03-25 11:13:30.204,-3.5844820390609686
2025-03-25 11:13:30.204,4.444755298592639
2025-03-25 11:13:30.212,7.590741441225162
2025-03-25 11:13:30.212,2.4091560769254943
2025-03-25 11:13:30.213,-5.503802584630749
2025-03-25 11:13:30.213,-8.305277089210435
2025-03-25 11:13:30.213,-3.6217267168225993
2025-03-25 11:13:30.222,4.324491764838913
2025-03-25 11:13:30.222,9.012434063302065
2025-03-25 11:13:30.223,6.584830575384222
2025-03-25 11:13:30.223,-1.412204490091565
2025-03-25 11:13:30.223,-8.83328263008443
2025-03-25 11:13:30.232,-9.385550847888318
2025-03-25 11:13:30.232,-1.9456778401973418
2025-03-25 11:13:30.233,7.7595657972797065
2025-03-25 11:13:30.233,11.197495490886645
2025-03-25 11:13:30.242,4.372297004143255
2025-03-25 11:13:30.242,-7.347901858984077
2025-03-25 11:13:30.242,-12.64168980595107
2025-03-25 11:13:30.242,-5.182962442176925
2025-03-25 11:13:30.243,8.3126260464308
2025-03-25 11:13:30.250,13.741980647128397
2025-03-25 11:13:30.250,4.939742817144584
2025-03-25 11:13:30.251,-8.855061317863237
2025-03-25 11:13:30.251,-13.15303671305735
2025-03-25 11:13:30.251,-4.325267472375426
2025-03-25 11:13:30.260,7.283397462115271
2025-03-25 11:13:30.260,9.897871951688511
2025-03-25 11:13:30.261,2.839171766610607
2025-03-25 11:13:30.261,-4.7103820442317925
2025-03-25 11:13:30.261,-5.137128463879704
2025-03-25 11:13:30.270,0.07461769672626595
2025-03-25 11:13:30.270,3.864023243536157
2025-03-25 11:13:30.271,1.9794268260165777
2025-03-25 11:13:30.271,-3.3663683190707503
2025-03-25 11:13:30.271,-6.464780449144048
2025-03-25 11:13:30.280,-3.1927177421624644
2025-03-25 11:13:30.280,5.260605682813219
2025-03-25 11:13:30.281,11.772903153407485
2025-03-25 11:13:30.281,8.305349805968405
2025-03-25 11:13:30.290,-5.005124446928833
2025-03-25 11:13:30.290,-16.596032738198968
2025-03-25 11:13:30.290,-13.659746180653677
2025-03-25 11:13:30.290,3.0607966537928304
2025-03-25 11:13:30.291,17.853554697987384
2025-03-25 11:13:30.298,15.90684427585698
2025-03-25 11:13:30.298,-0.7891328561307512
2025-03-25 11:13:30.298,-15.592901681569519
2025-03-25 11:13:30.299,-14.720771382381393
2025-03-25 11:13:30.308,-0.5711239744867304
2025-03-25 11:13:30.308,12.416819558017519
2025-03-25 11:13:30.308,12.760907944664085
2025-03-25 11:13:30.308,1.5939352504471647
2025-03-25 11:13:30.308,-10.380271373448997
2025-03-25 11:13:30.316,-12.916615847664813
2025-03-25 11:13:30.317,-4.10039401900544
2025-03-25 11:13:30.317,8.710027589109474
2025-03-25 11:13:30.317,14.761162462428011
2025-03-25 11:13:30.326,8.575244720182546
2025-03-25 11:13:30.326,-5.186147092468636
2025-03-25 11:13:30.326,-15.158538897036697
2025-03-25 11:13:30.326,-12.750871581344889
2025-03-25 11:13:30.327,0.15597243906146807
2025-03-25 11:13:30.334,12.355107181740824
2025-03-25 11:13:30.334,13.289785009235358
2025-03-25 11:13:30.335,3.151093107023873
2025-03-25 11:13:30.335,-7.501607881218547
2025-03-25 11:13:30.335,-9.104565314836872
2025-03-25 11:13:30.346,-2.8418491373298673
2025-03-25 11:13:30.346,2.6406725160988707
2025-03-25 11:13:30.346,2.5552073949330567
2025-03-25 11:13:30.346,0.32325459822288505
2025-03-25 11:13:30.347,0.6760490626874278
2025-03-25 11:13:30.354,2.732365881339031
2025-03-25 11:13:30.355,2.316820009549078
2025-03-25 11:13:30.355,-1.454498347036203
2025-03-25 11:13:30.355,-4.889258132444285
2025-03-25 11:13:30.355,-4.3064255570253955
2025-03-25 11:13:30.364,0.01942744099758459
2025-03-25 11:13:30.364,4.371624713420909
2025-03-25 11:13:30.365,5.096549886325491
2025-03-25 11:13:30.365,1.8290363101236384
2025-03-25 11:13:30.365,-2.2856150777849185
2025-03-25 11:13:30.374,-3.820774740844402
2025-03-25 11:13:30.374,-2.444924537033987
2025-03-25 11:13:30.375,-0.45570228409746427
2025-03-25 11:13:30.375,0.6377995215741975
2025-03-25 11:13:30.384,1.5316130589578125
2025-03-25 11:13:30.384,2.789500369071386
2025-03-25 11:13:30.385,2.870115416889724
2025-03-25 11:13:30.385,0.1410433861379805
2025-03-25 11:13:30.385,-3.7904916037931415
2025-03-25 11:13:30.394,-4.821140406443092
2025-03-25 11:13:30.394,-1.2566941111141237
2025-03-25 11:13:30.395,3.385191438997462
2025-03-25 11:13:30.395,4.111922667076328
2025-03-25 11:13:30.395,0.5869999793772136
2025-03-25 11:13:30.404,-2.3870434307891673
2025-03-25 11:13:30.404,-1.1004176258961351
2025-03-25 11:13:30.404,2.1130840769457495
2025-03-25 11:13:30.404,1.9039179466514773
2025-03-25 11:13:30.405,-2.6990741897165673
2025-03-25 11:13:30.414,-6.065761635727724
2025-03-25 11:13:30.414,-2.454500815050628
2025-03-25 11:13:30.414,6.010589653335839
2025-03-25 11:13:30.414,10.036844716665682
2025-03-25 11:13:30.415,3.44574492567115
2025-03-25 11:13:30.424,-8.267747324847875
2025-03-25 11:13:30.424,-12.541763956333975
2025-03-25 11:13:30.424,-3.9091241614613557
2025-03-25 11:13:30.424,8.92638836948398
2025-03-25 11:13:30.424,12.50690770338176
2025-03-25 11:13:30.432,3.7040437022737196
2025-03-25 11:13:30.432,-7.5094397724303965
2025-03-25 11:13:30.432,-10.070559361263939
2025-03-25 11:13:30.433,-3.4221308968246387
2025-03-25 11:13:30.442,4.139381614726919
2025-03-25 11:13:30.442,6.0104680148604475
2025-03-25 11:13:30.442,3.1902173950145594
2025-03-25 11:13:30.443,0.30316376066238615
2025-03-25 11:13:30.443,-0.9258948863073408
2025-03-25 11:13:30.452,-2.224296624549625
2025-03-25 11:13:30.452,-4.209579306556607
2025-03-25 11:13:30.452,-4.219483524570051
2025-03-25 11:13:30.453,0.008694430748404786
2025-03-25 11:13:30.453,5.923709022004095
2025-03-25 11:13:30.462,7.681925474536048
2025-03-25 11:13:30.462,2.637577316107893
2025-03-25 11:13:30.462,-5.024371285290527
2025-03-25 11:13:30.462,-8.264329585611748
2025-03-25 11:13:30.463,-4.36940724510527
2025-03-25 11:13:30.472,2.6612503274290114
2025-03-25 11:13:30.472,6.573244957937772
2025-03-25 11:13:30.472,4.720137310170917
2025-03-25 11:13:30.473,-0.4359242120339251
2025-03-25 11:13:30.473,-4.345099294810602
2025-03-25 11:13:30.482,-4.153181463637695
2025-03-25 11:13:30.482,-0.5165986160337661
2025-03-25 11:13:30.482,3.0416865540945883
2025-03-25 11:13:30.482,3.032534101997734
2025-03-25 11:13:30.483,-0.4154885367258173
2025-03-25 11:13:30.492,-3.114383783704571
2025-03-25 11:13:30.492,-1.4140051962339155
2025-03-25 11:13:30.492,2.875730531417508
2025-03-25 11:13:30.492,4.089980726821014
2025-03-25 11:13:30.492,-0.11493010625589392
2025-03-25 11:13:30.502,-5.155667871414987
2025-03-25 11:13:30.502,-4.856050270447249
2025-03-25 11:13:30.502,0.724522592844504
2025-03-25 11:13:30.502,5.232979508991465
2025-03-25 11:13:30.503,3.9907142408727885
2025-03-25 11:13:30.510,-0.46690221691154404
2025-03-25 11:13:30.510,-2.4627500164708143
2025-03-25 11:13:30.511,-0.9209912021852962
2025-03-25 11:13:30.511,0.03591681994236276
2025-03-25 11:13:30.520,-1.9171394622088236
2025-03-25 11:13:30.520,-3.254781827149103
2025-03-25 11:13:30.521,0.1768730974908863
2025-03-25 11:13:30.521,5.936257665706489
2025-03-25 11:13:30.521,6.690476626350003
2025-03-25 11:13:30.530,-0.23781100026597934
2025-03-25 11:13:30.530,-8.095630312130337
2025-03-25 11:13:30.530,-8.026349023203442
2025-03-25 11:13:30.531,0.1560609862327652
2025-03-25 11:13:30.531,7.610898636345045
2025-03-25 11:13:30.540,7.04410289555279
2025-03-25 11:13:30.540,0.5542993197873167
2025-03-25 11:13:30.540,-4.52888692692304
2025-03-25 11:13:30.540,-4.768847832826433
2025-03-25 11:13:30.541,-2.5111072401099985
2025-03-25 11:13:30.550,-0.2896719596166189
2025-03-25 11:13:30.550,2.3380631769944347
2025-03-25 11:13:30.551,5.440247270540406
2025-03-25 11:13:30.551,5.771340052838797
2025-03-25 11:13:30.551,0.3439731618941685
2025-03-25 11:13:30.560,-7.86254946530484
2025-03-25 11:13:30.560,-10.811590232270175
2025-03-25 11:13:30.560,-3.790170314059644
2025-03-25 11:13:30.560,8.013354369973094
2025-03-25 11:13:30.561,13.49960322145724
2025-03-25 11:13:30.568,7.126746623005355
2025-03-25 11:13:30.568,-4.9755821604256
2025-03-25 11:13:30.569,-11.689136586924118
2025-03-25 11:13:30.569,-8.494357110800317
2025-03-25 11:13:30.578,-0.3897891232684454
2025-03-25 11:13:30.578,5.601313478756154
2025-03-25 11:13:30.579,7.206237335789757
2025-03-25 11:13:30.579,5.54259530976988
2025-03-25 11:13:30.579,1.1948616066304498
2025-03-25 11:13:30.579,-4.792622904467064
2025-03-25 11:13:30.588,-8.168814374606974
2025-03-25 11:13:30.588,-4.591545551403129
2025-03-25 11:13:30.589,3.6541046637241523
2025-03-25 11:13:30.589,7.961275810394476
2025-03-25 11:13:30.589,3.2290221968839568
2025-03-25 11:13:30.598,-4.812401665407521
2025-03-25 11:13:30.599,-5.907430330741632
2025-03-25 11:13:30.599,1.4101258907234484
2025-03-25 11:13:30.599,7.147713434175604
2025-03-25 11:13:30.599,2.7534539407993126
2025-03-25 11:13:30.608,-6.822950558337314
2025-03-25 11:13:30.608,-8.761504531796513
2025-03-25 11:13:30.609,0.7189031155832527
2025-03-25 11:13:30.609,10.61291784296997
2025-03-25 11:13:30.618,8.695669106594025
2025-03-25 11:13:30.618,-3.1844989596589315
2025-03-25 11:13:30.618,-11.536152675747731
2025-03-25 11:13:30.619,-7.325101684881883
2025-03-25 11:13:30.619,4.34980579238945
2025-03-25 11:13:30.626,10.840814176058718
2025-03-25 11:13:30.626,5.518541193245843
2025-03-25 11:13:30.627,-5.9011073398190295
2025-03-25 11:13:30.627,-11.23960299941703
2025-03-25 11:13:30.627,-4.0664464528422
2025-03-25 11:13:30.636,8.958718903794649
2025-03-25 11:13:30.636,13.765595597189561
2025-03-25 11:13:30.637,3.707597354010771
2025-03-25 11:13:30.637,-11.860952570286765
2025-03-25 11:13:30.646,-16.462973481768813
2025-03-25 11:13:30.646,-4.553297818706248
2025-03-25 11:13:30.646,11.847543478980384
2025-03-25 11:13:30.646,16.28357535431199
2025-03-25 11:13:30.647,5.630177876094148
2025-03-25 11:13:30.654,-7.972172028338654
2025-03-25 11:13:30.654,-11.86208295081365
2025-03-25 11:13:30.655,-5.666272705172328
2025-03-25 11:13:30.655,1.771410141943409
2025-03-25 11:13:30.655,4.467325803137127
2025-03-25 11:13:30.664,4.172114457111087
2025-03-25 11:13:30.664,4.159493114301267
2025-03-25 11:13:30.665,3.1733018395524053
2025-03-25 11:13:30.665,-1.5530166752229995
2025-03-25 11:13:30.665,-7.7088964120597705
2025-03-25 11:13:30.674,-8.619951948497883
2025-03-25 11:13:30.675,-1.4869237676615044
2025-03-25 11:13:30.675,7.827111163999533
2025-03-25 11:13:30.675,10.52618671343475
2025-03-25 11:13:30.684,4.406447694192005
2025-03-25 11:13:30.684,-4.445944968034367
2025-03-25 11:13:30.684,-8.873932247461209
2025-03-25 11:13:30.684,-6.917747873734323
2025-03-25 11:13:30.685,-0.9463892469417203
2025-03-25 11:13:30.694,5.607556805446292
2025-03-25 11:13:30.694,8.733617387036482
2025-03-25 11:13:30.694,4.919003483667961
2025-03-25 11:13:30.695,-4.064400977822754
2025-03-25 11:13:30.695,-9.605908931835197
2025-03-25 11:13:30.704,-4.709321186217715
2025-03-25 11:13:30.704,6.01110351890682
2025-03-25 11:13:30.704,9.82460910492904
2025-03-25 11:13:30.704,1.3076269336205704
2025-03-25 11:13:30.705,-9.777070959656863
2025-03-25 11:13:30.714,-9.697766919789192
2025-03-25 11:13:30.714,2.2021362925795147
2025-03-25 11:13:30.714,12.227913891410555
2025-03-25 11:13:30.715,8.71414245127677
2025-03-25 11:13:30.715,-4.203122910898179
2025-03-25 11:13:30.722,-11.968563632485555
2025-03-25 11:13:30.723,-6.699087441312177
2025-03-25 11:13:30.723,4.7873728460896485
2025-03-25 11:13:30.723,10.05962476270496
2025-03-25 11:13:30.723,4.820570909032519
2025-03-25 11:13:30.732,-4.206354735680155
2025-03-25 11:13:30.732,-8.012771798233626
2025-03-25 11:13:30.733,-4.162349611802905
2025-03-25 11:13:30.733,2.690003517922681
2025-03-25 11:13:30.742,6.392963763247493
2025-03-25 11:13:30.742,4.2993329795346815
2025-03-25 11:13:30.743,-1.3908750501289657
2025-03-25 11:13:30.743,-5.440685592385988
2025-03-25 11:13:30.743,-3.802659431384627
2025-03-25 11:13:30.752,2.0079648702777027
2025-03-25 11:13:30.752,5.4216370369974305
2025-03-25 11:13:30.752,1.8626091071179698
2025-03-25 11:13:30.753,-4.936951055897092
2025-03-25 11:13:30.753,-6.27096010927597
2025-03-25 11:13:30.762,0.9167237474575414
2025-03-25 11:13:30.762,8.980989368009551
2025-03-25 11:13:30.762,7.614465884320241
2025-03-25 11:13:30.762,-3.465513932511628
2025-03-25 11:13:30.763,-12.603612871231709
2025-03-25 11:13:30.772,-8.823328673639773
2025-03-25 11:13:30.772,4.976742349203043
2025-03-25 11:13:30.772,14.355925648748068
2025-03-25 11:13:30.772,9.34440240199564
2025-03-25 11:13:30.773,-4.594869985765406
2025-03-25 11:13:30.782,-13.290539436731686
2025-03-25 11:13:30.782,-9.313552067750187
2025-03-25 11:13:30.782,1.9127168909386993
2025-03-25 11:13:30.782,9.902262227496113
2025-03-25 11:13:30.783,9.302211813588176
2025-03-25 11:13:30.790,2.1856308097653905
2025-03-25 11:13:30.790,-5.870469131818038
2025-03-25 11:13:30.791,-9.539303381862457
2025-03-25 11:13:30.791,-6.004120294177209
2025-03-25 11:13:30.791,2.7386812725744627
2025-03-25 11:13:30.800,9.679841869826683
2025-03-25 11:13:30.800,8.077656518409952
2025-03-25 11:13:30.801,-1.1449909291776086
2025-03-25 11:13:30.801,-8.9640702519591
2025-03-25 11:13:30.810,-7.547349889042323
2025-03-25 11:13:30.810,0.7843533404042553
2025-03-25 11:13:30.811,6.470630493866028
2025-03-25 11:13:30.811,4.372034087007947
2025-03-25 11:13:30.811,-0.8374353606445428
2025-03-25 11:13:30.820,-2.1565095497845546
2025-03-25 11:13:30.820,0.3655425495066151
2025-03-25 11:13:30.820,1.0680699848751687
2025-03-25 11:13:30.821,-2.2861421659557437
2025-03-25 11:13:30.821,-5.073176892421368
2025-03-25 11:13:30.830,-2.181944684353455
2025-03-25 11:13:30.830,4.834528937380698
2025-03-25 11:13:30.830,8.779097110962534
2025-03-25 11:13:30.831,4.50912730740536
2025-03-25 11:13:30.831,-5.102002755893216
2025-03-25 11:13:30.840,-11.132442800691054
2025-03-25 11:13:30.840,-7.150927864199463
2025-03-25 11:13:30.840,3.8035025272214806
2025-03-25 11:13:30.840,11.59394995312985
2025-03-25 11:13:30.841,9.064508179978963
2025-03-25 11:13:30.848,-1.0201313748913556
2025-03-25 11:13:30.849,-9.594522163706243
2025-03-25 11:13:30.849,-10.265497206493182
2025-03-25 11:13:30.849,-3.553404274645247
2025-03-25 11:13:30.849,5.517564072625312
2025-03-25 11:13:30.858,11.072686078568994
2025-03-25 11:13:30.858,8.856129925733642
2025-03-25 11:13:30.859,-0.7316510898874804
2025-03-25 11:13:30.859,-10.800087911851886
2025-03-25 11:13:30.868,-12.347120186829558
2025-03-25 11:13:30.868,-3.2015913692046607
2025-03-25 11:13:30.868,8.497523817561987
2025-03-25 11:13:30.868,12.011410183335041
2025-03-25 11:13:30.868,5.038806874672005
2025-03-25 11:13:30.878,-4.563402634367621
2025-03-25 11:13:30.878,-7.981040789111752
2025-03-25 11:13:30.878,-4.323458270081254
2025-03-25 11:13:30.878,0.6078949310226807
2025-03-25 11:13:30.879,2.3543520762019168
2025-03-25 11:13:30.888,1.8443700272735084
2025-03-25 11:13:30.888,1.7326318371965699
2025-03-25 11:13:30.888,1.9776916000913587
2025-03-25 11:13:30.888,0.9177920880114506
2025-03-25 11:13:30.889,-1.269998858017999
2025-03-25 11:13:30.896,-2.777099022999577
2025-03-25 11:13:30.897,-2.988174530499231
2025-03-25 11:13:30.897,-2.4837680524202983
2025-03-25 11:13:30.897,-0.5080895817215041
2025-03-25 11:13:30.897,4.226134434015183
2025-03-25 11:13:30.906,8.931091799907495
2025-03-25 11:13:30.906,6.644742766368579
2025-03-25 11:13:30.907,-4.952838492966895
2025-03-25 11:13:30.907,-16.128099857536544
2025-03-25 11:13:30.916,-12.824647192739782
2025-03-25 11:13:30.916,5.4923518375381315
2025-03-25 11:13:30.916,20.868877867045207
2025-03-25 11:13:30.917,15.633196687078751
2025-03-25 11:13:30.917,-5.786000747367824
2025-03-25 11:13:30.924,-20.437615911169377
2025-03-25 11:13:30.925,-13.321280541964796
2025-03-25 11:13:30.925,5.718321558929934
2025-03-25 11:13:30.925,15.150421674574483
2025-03-25 11:13:30.934,7.244521486538248
2025-03-25 11:13:30.934,-5.5678564010363765
2025-03-25 11:13:30.935,-8.334954983640262
2025-03-25 11:13:30.935,-0.7827560669718656
2025-03-25 11:13:30.935,5.713072630450734
2025-03-25 11:13:30.944,3.6451074003831736
2025-03-25 11:13:30.944,-3.1157754290823947
2025-03-25 11:13:30.944,-6.193081520046397
2025-03-25 11:13:30.944,-2.577012221482825
2025-03-25 11:13:30.945,3.62964420033695
2025-03-25 11:13:30.954,6.558017998580564
2025-03-25 11:13:30.954,3.8231785924990263
2025-03-25 11:13:30.954,-2.073831148388117
2025-03-25 11:13:30.955,-5.951041366548608
2025-03-25 11:13:30.955,-4.420751040313404
2025-03-25 11:13:30.964,0.6136992615546684
2025-03-25 11:13:30.964,3.741101001340774
2025-03-25 11:13:30.964,2.247110554787177
2025-03-25 11:13:30.964,-0.7313404298082696
2025-03-25 11:13:30.965,-0.6627767001708814
2025-03-25 11:13:30.974,2.0674655625181395
2025-03-25 11:13:30.974,2.664058827686562
2025-03-25 11:13:30.974,-1.3128848257728882
2025-03-25 11:13:30.974,-5.968209482759473
2025-03-25 11:13:30.975,-5.33842597083162
2025-03-25 11:13:30.984,1.1306409146517846
2025-03-25 11:13:30.984,7.168970858047635
2025-03-25 11:13:30.984,6.5298899430399375
2025-03-25 11:13:30.985,0.13244227940556053
2025-03-25 11:13:30.985,-5.208922512246256
2025-03-25 11:13:30.994,-4.792172767496138
2025-03-25 11:13:30.994,-0.7058471809392817
2025-03-25 11:13:30.994,1.9862795221812313
2025-03-25 11:13:30.995,1.5146870071149214
2025-03-25 11:13:30.995,0.12413612576646321
2025-03-25 11:13:31.004,-0.08672305157833467
2025-03-25 11:13:31.004,0.3931473947905587
2025-03-25 11:13:31.004,0.3017232140133661
2025-03-25 11:13:31.004,-0.10127792003032013
2025-03-25 11:13:31.005,0.26965549196005767
2025-03-25 11:13:31.014,1.0933364476827732
2025-03-25 11:13:31.014,0.5282528011207734
2025-03-25 11:13:31.014,-2.0977751012755843
2025-03-25 11:13:31.014,-4.288237706952161
2025-03-25 11:13:31.015,-2.54549318752798
2025-03-25 11:13:31.024,2.9700083632779584
2025-03-25 11:13:31.024,7.230289119771359
2025-03-25 11:13:31.024,5.262297757476724
2025-03-25 11:13:31.024,-1.9847839855097036
2025-03-25 11:13:31.025,-7.9942319397428365
2025-03-25 11:13:31.034,-7.152544869373733
2025-03-25 11:13:31.034,-0.14403679060539099
2025-03-25 11:13:31.034,6.9719879434079095
2025-03-25 11:13:31.034,8.122942838856787
2025-03-25 11:13:31.034,2.0562498648018477
2025-03-25 11:13:31.042,-6.3491350934895285
2025-03-25 11:13:31.043,-9.292270777283651
2025-03-25 11:13:31.043,-2.91903409522647
2025-03-25 11:13:31.043,7.446416764984229
2025-03-25 11:13:31.052,10.94627306960741
2025-03-25 11:13:31.052,2.7337124023199104
2025-03-25 11:13:31.052,-9.1584993136859
2025-03-25 11:13:31.053,-11.733198461302653
2025-03-25 11:13:31.053,-1.9850221032178115
2025-03-25 11:13:31.062,9.369235103192644
2025-03-25 11:13:31.062,10.45882422116079
2025-03-25 11:13:31.062,1.4695892770101762
2025-03-25 11:13:31.063,-7.257371435478343
2025-03-25 11:13:31.063,-7.856869152583961
2025-03-25 11:13:31.072,-1.9235497930965282
2025-03-25 11:13:31.072,4.005921825724071
2025-03-25 11:13:31.072,5.657067987329865
2025-03-25 11:13:31.072,2.9780247929413886
2025-03-25 11:13:31.073,-1.5584541370874014
2025-03-25 11:13:31.082,-4.573882375623716
2025-03-25 11:13:31.082,-3.576927294179502
2025-03-25 11:13:31.082,0.7615191136566322
2025-03-25 11:13:31.083,4.4799070812228825
2025-03-25 11:13:31.083,3.7532990010098812
2025-03-25 11:13:31.092,-1.1097694773160354
2025-03-25 11:13:31.092,-5.394644948852642
2025-03-25 11:13:31.092,-4.331550656485488
2025-03-25 11:13:31.092,1.7602029852007042
2025-03-25 11:13:31.092,7.004588517589966
2025-03-25 11:13:31.100,5.567719013343514
2025-03-25 11:13:31.101,-1.9853052441828143
2025-03-25 11:13:31.101,-8.54069840555041
2025-03-25 11:13:31.101,-7.261526937134483
2025-03-25 11:13:31.101,1.322040003258551
2025-03-25 11:13:31.110,9.309094708373337
2025-03-25 11:13:31.111,8.93480149434529
2025-03-25 11:13:31.111,0.2984558745717112
2025-03-25 11:13:31.111,-8.604394305962732
2025-03-25 11:13:31.111,-9.71367197401967
2025-03-25 11:13:31.120,-2.522648001603465
2025-03-25 11:13:31.121,6.107530423427079
2025-03-25 11:13:31.121,8.939138671719927
2025-03-25 11:13:31.121,4.55197730042402
2025-03-25 11:13:31.121,-2.615821611628785
2025-03-25 11:13:31.130,-6.841133785089457
2025-03-25 11:13:31.131,-5.480199294797479
2025-03-25 11:13:31.131,-0.28638073717561086
2025-03-25 11:13:31.131,4.328168773320085
2025-03-25 11:13:31.140,4.808748190084071
2025-03-25 11:13:31.140,1.4026885415136623
2025-03-25 11:13:31.141,-2.2405461058850684
2025-03-25 11:13:31.141,-2.8772170665616823
2025-03-25 11:13:31.141,-0.8609889912329325
2025-03-25 11:13:31.150,0.9608579747532636
2025-03-25 11:13:31.150,0.9274670728264134
2025-03-25 11:13:31.150,-0.03955311160068545
2025-03-25 11:13:31.151,-0.48611467319136276
2025-03-25 11:13:31.151,-0.2895938843451262
2025-03-25 11:13:31.160,0.026618042815545296
2025-03-25 11:13:31.160,0.45418558730224756
2025-03-25 11:13:31.160,1.0202212280372822
2025-03-25 11:13:31.161,1.0900752846463435
2025-03-25 11:13:31.161,0.12688849438510066
2025-03-25 11:13:31.170,-1.4238737596850344
2025-03-25 11:13:31.170,-2.586292113305758
2025-03-25 11:13:31.170,-2.4907553657947785
2025-03-25 11:13:31.171,-0.36991189623180676
2025-03-25 11:13:31.171,3.5661631648759764
2025-03-25 11:13:31.180,6.493746752166684
2025-03-25 11:13:31.180,4.261441756580511
2025-03-25 11:13:31.180,-3.4092017783288986
2025-03-25 11:13:31.180,-10.068998744167947
2025-03-25 11:13:31.181,-8.06797191472532
2025-03-25 11:13:31.188,2.185834802931995
2025-03-25 11:13:31.189,10.991956644604594
2025-03-25 11:13:31.189,9.449184087728511
2025-03-25 11:13:31.189,-0.5352034756248999
2025-03-25 11:13:31.189,-8.659065347588061
2025-03-25 11:13:31.198,-7.94038720700325
2025-03-25 11:13:31.199,-1.1753741389461891
2025-03-25 11:13:31.199,4.380838082066316
2025-03-25 11:13:31.199,5.225527118819965
2025-03-25 11:13:31.199,2.7527942339722395
2025-03-25 11:13:31.208,-0.6043065322058561
2025-03-25 11:13:31.209,-3.0708921998749332
2025-03-25 11:13:31.209,-3.084165119545541
2025-03-25 11:13:31.209,-0.6529186052203664
2025-03-25 11:13:31.218,1.418935318899389
2025-03-25 11:13:31.218,0.6757689474662817
2025-03-25 11:13:31.219,-0.9926056320678383
2025-03-25 11:13:31.219,0.34673677313034157
2025-03-25 11:13:31.219,4.158837795980658
2025-03-25 11:13:31.228,4.691226364716042
2025-03-25 11:13:31.228,-1.40406809134821
2025-03-25 11:13:31.229,-8.986476047869505
2025-03-25 11:13:31.229,-8.997803827562056
2025-03-25 11:13:31.229,0.7311773472576348
2025-03-25 11:13:31.236,11.446398484481993
2025-03-25 11:13:31.237,11.964679432904312
2025-03-25 11:13:31.237,0.8842822021355116
2025-03-25 11:13:31.237,-11.162881707935735
2025-03-25 11:13:31.237,-12.227617573454742
2025-03-25 11:13:31.246,-1.4923400585683555
2025-03-25 11:13:31.246,9.801366525701454
2025-03-25 11:13:31.247,10.092381059346213
2025-03-25 11:13:31.247,-0.24637824164040956
2025-03-25 11:13:31.256,-9.279327162249892
2025-03-25 11:13:31.256,-6.757159040503634
2025-03-25 11:13:31.256,4.022617577707697
2025-03-25 11:13:31.257,9.821720185665713
2025-03-25 11:13:31.257,3.236563132007175
2025-03-25 11:13:31.266,-8.046319925690682
2025-03-25 11:13:31.266,-10.283984419246739
2025-03-25 11:13:31.266,-0.32737835867833054
2025-03-25 11:13:31.266,10.505004705337047
2025-03-25 11:13:31.267,9.900885311642481
2025-03-25 11:13:31.274,-1.2643700558613598
2025-03-25 11:13:31.275,-10.682898147936351
2025-03-25 11:13:31.275,-8.941830778783148
2025-03-25 11:13:31.275,1.055284936670694
2025-03-25 11:13:31.275,8.976506383066681
2025-03-25 11:13:31.284,8.2289841147171
2025-03-25 11:13:31.284,0.7930291815269307
2025-03-25 11:13:31.285,-6.587507954286989
2025-03-25 11:13:31.285,-8.361908396013055
2025-03-25 11:13:31.294,-3.4134804901975437
2025-03-25 11:13:31.294,4.575643406821721
2025-03-25 11:13:31.294,9.233956059302159
2025-03-25 11:13:31.295,6.076494837127466
2025-03-25 11:13:31.295,-3.0439049323680964
2025-03-25 11:13:31.304,-10.273649087631638
2025-03-25 11:13:31.304,-8.344542103011312
2025-03-25 11:13:31.304,1.8234987054859644
2025-03-25 11:13:31.305,10.722339334957285
2025-03-25 11:13:31.305,9.286701146256295
2025-03-25 11:13:31.314,-1.1945348149004835
2025-03-25 11:13:31.314,-9.83066274639094
2025-03-25 11:13:31.315,-7.917488569654317
2025-03-25 11:13:31.315,1.462490943263481
2025-03-25 11:13:31.315,7.513236585019153
2025-03-25 11:13:31.324,4.488333673542637
2025-03-25 11:13:31.324,-2.4352368901445463
2025-03-25 11:13:31.324,-4.641678259893044
2025-03-25 11:13:31.325,-0.5911912506226003
2025-03-25 11:13:31.325,3.574924343809103
2025-03-25 11:13:31.334,2.5574801462776997
2025-03-25 11:13:31.334,-2.0301035541973587
2025-03-25 11:13:31.334,-4.5504662369679245
2025-03-25 11:13:31.334,-2.129829307355307
2025-03-25 11:13:31.335,2.6651765211788288
2025-03-25 11:13:31.342,5.026157502412168
2025-03-25 11:13:31.343,2.8206758033618557
2025-03-25 11:13:31.343,-1.578741723658098
2025-03-25 11:13:31.343,-4.066540060757691
2025-03-25 11:13:31.343,-3.094197606240715
2025-03-25 11:13:31.354,-0.6143346853661652
2025-03-25 11:13:31.354,1.0584913625477774
2025-03-25 11:13:31.354,1.846998459508879
2025-03-25 11:13:31.355,2.651175398456276
2025-03-25 11:13:31.355,2.940420981530657
2025-03-25 11:13:31.362,1.1888505500891176
2025-03-25 11:13:31.363,-2.6215637585773592
2025-03-25 11:13:31.363,-5.9804733917724535
2025-03-25 11:13:31.363,-5.549743028367904
2025-03-25 11:13:31.372,-0.18556376577683198
2025-03-25 11:13:31.372,6.891995287893425
2025-03-25 11:13:31.372,9.443608213086355
2025-03-25 11:13:31.373,3.9047027765202773
2025-03-25 11:13:31.373,-5.573029235193898
2025-03-25 11:13:31.382,-10.074911694806417
2025-03-25 11:13:31.382,-5.578623112502572
2025-03-25 11:13:31.383,2.355332756425022
2025-03-25 11:13:31.383,5.797236104830547
2025-03-25 11:13:31.383,4.097594111917033
2025-03-25 11:13:31.392,2.3803146738224723
2025-03-25 11:13:31.392,1.9486744670961076
2025-03-25 11:13:31.392,-1.4132784436236385
2025-03-25 11:13:31.393,-7.8831512653031455
2025-03-25 11:13:31.393,-9.178237855241647
2025-03-25 11:13:31.402,0.4218555231629194
2025-03-25 11:13:31.402,12.566844131418978
2025-03-25 11:13:31.402,12.383027763410391
2025-03-25 11:13:31.402,-2.0410044020113696
2025-03-25 11:13:31.403,-14.865429149405667
2025-03-25 11:13:31.410,-11.032355208336496
2025-03-25 11:13:31.411,4.955447366105316
2025-03-25 11:13:31.411,14.400260309372342
2025-03-25 11:13:31.411,7.153342740036504
2025-03-25 11:13:31.420,-6.993080725824366
2025-03-25 11:13:31.420,-11.561236738560103
2025-03-25 11:13:31.421,-3.2249224761084254
2025-03-25 11:13:31.421,6.386318512877405
2025-03-25 11:13:31.421,6.796123808977173
2025-03-25 11:13:31.430,0.5404798632851552
2025-03-25 11:13:31.430,-3.027473161782089
2025-03-25 11:13:31.430,-1.0276005476146544
2025-03-25 11:13:31.431,0.9015419199830799
2025-03-25 11:13:31.431,-1.3761666762802147
2025-03-25 11:13:31.440,-4.018226983147055
2025-03-25 11:13:31.440,-1.3735888125935418
2025-03-25 11:13:31.440,4.724682193916063
2025-03-25 11:13:31.441,6.454364809762452
2025-03-25 11:13:31.441,0.7619589516183708
2025-03-25 11:13:31.450,-5.688947842108046
2025-03-25 11:13:31.450,-5.009486998712226
2025-03-25 11:13:31.450,1.1717719802619688
2025-03-25 11:13:31.451,3.9176837955273025
2025-03-25 11:13:31.451,-0.32698849319773543
2025-03-25 11:13:31.460,-4.371895127071803
2025-03-25 11:13:31.460,-0.48739248217610126
2025-03-25 11:13:31.460,7.670207297796547
2025-03-25 11:13:31.460,8.53696716960146
2025-03-25 11:13:31.461,-2.104597372499593
2025-03-25 11:13:31.468,-13.936936946992436
2025-03-25 11:13:31.468,-12.9450973515718
2025-03-25 11:13:31.469,2.0837040626927843
2025-03-25 11:13:31.469,16.758963034695935
2025-03-25 11:13:31.476,15.866472464168385
2025-03-25 11:13:31.476,-0.16608368122518036
2025-03-25 11:13:31.477,-15.426176331499633
2025-03-25 11:13:31.477,-15.431874834858455
2025-03-25 11:13:31.486,-1.8877900218696515
2025-03-25 11:13:31.486,10.831554430841544
2025-03-25 11:13:31.487,11.769179541154715
2025-03-25 11:13:31.487,3.0101988997533944
2025-03-25 11:13:31.487,-5.524946305148642
2025-03-25 11:13:31.496,-6.903369114415998
2025-03-25 11:13:31.496,-2.1058702689941136
2025-03-25 11:13:31.496,2.700292450310483
2025-03-25 11:13:31.497,2.335916648907653
2025-03-25 11:13:31.497,-2.130107632394681
2025-03-25 11:13:31.506,-3.846928736956354
2025-03-25 11:13:31.506,1.7170927947294934
2025-03-25 11:13:31.506,9.069585815360584
2025-03-25 11:13:31.507,7.35541811167601
2025-03-25 11:13:31.507,-5.060735626725411
2025-03-25 11:13:31.516,-15.184533890222758
2025-03-25 11:13:31.516,-9.771877164242222
2025-03-25 11:13:31.516,7.02996089828859
2025-03-25 11:13:31.516,16.843219278223824
2025-03-25 11:13:31.516,8.810518803737624
2025-03-25 11:13:31.524,-7.419907130509501
2025-03-25 11:13:31.525,-13.729081624540822
2025-03-25 11:13:31.525,-4.82647697702491
2025-03-25 11:13:31.525,7.181084641929507
2025-03-25 11:13:31.534,8.570540007459313
2025-03-25 11:13:31.534,-0.31972374776985457
2025-03-25 11:13:31.535,-7.369890691478534
2025-03-25 11:13:31.535,-4.204161800204986
2025-03-25 11:13:31.535,4.383434936936502
2025-03-25 11:13:31.544,7.519997933808301
2025-03-25 11:13:31.544,1.8591887488951906
2025-03-25 11:13:31.545,-5.328421552795122
2025-03-25 11:13:31.545,-6.163888823522175
2025-03-25 11:13:31.545,-1.321588307078636
2025-03-25 11:13:31.554,2.7005085808563662
2025-03-25 11:13:31.554,2.618637087045837
2025-03-25 11:13:31.555,1.222013697759031
2025-03-25 11:13:31.555,1.7463373883620543
2025-03-25 11:13:31.555,2.709327264886384
2025-03-25 11:13:31.564,0.2769559956708551
2025-03-25 11:13:31.564,-5.3178264165037685
2025-03-25 11:13:31.565,-8.29752133533305
2025-03-25 11:13:31.565,-3.755749209666961
2025-03-25 11:13:31.565,5.575897342115429
2025-03-25 11:13:31.574,11.215536870207268
2025-03-25 11:13:31.574,7.827207870451995
2025-03-25 11:13:31.574,-1.5034326988909852
2025-03-25 11:13:31.574,-9.159274658592299
2025-03-25 11:13:31.575,-10.150913249712467
2025-03-25 11:13:31.584,-4.791150540699242
2025-03-25 11:13:31.584,3.189203386381012
2025-03-25 11:13:31.584,9.030437959791257
2025-03-25 11:13:31.585,8.952944738949256
2025-03-25 11:13:31.585,2.7544456804463735
2025-03-25 11:13:31.594,-5.022204378506222
2025-03-25 11:13:31.594,-8.298702584118265
2025-03-25 11:13:31.594,-5.052859056339822
2025-03-25 11:13:31.595,0.8521835716654294
2025-03-25 11:13:31.595,4.063245607580447
2025-03-25 11:13:31.604,3.1971162492130856
2025-03-25 11:13:31.604,1.004803172530005
2025-03-25 11:13:31.604,0.06978258728475373
2025-03-25 11:13:31.605,0.22594215167037024
2025-03-25 11:13:31.605,0.07881396273570328
2025-03-25 11:13:31.614,-0.935659903858064
2025-03-25 11:13:31.614,-2.4346805897292736
2025-03-25 11:13:31.614,-3.3165707744786896
2025-03-25 11:13:31.615,-1.8161330673321658
2025-03-25 11:13:31.615,2.610079061102294
2025-03-25 11:13:31.622,6.821202959693301
2025-03-25 11:13:31.623,5.818117938453714
2025-03-25 11:13:31.623,-1.2144714921911497
2025-03-25 11:13:31.623,-8.270804293725726
2025-03-25 11:13:31.623,-8.205436864593034
2025-03-25 11:13:31.632,-0.7714326046098172
2025-03-25 11:13:31.633,6.797725093437632
2025-03-25 11:13:31.633,7.5746605577053785
2025-03-25 11:13:31.633,1.9798564279860282
2025-03-25 11:13:31.633,-3.6831940723617334
2025-03-25 11:13:31.642,-4.614654755712414
2025-03-25 11:13:31.643,-1.8505053784789618
2025-03-25 11:13:31.643,0.6618391332998739
2025-03-25 11:13:31.643,1.276393997015303
2025-03-25 11:13:31.643,1.3493238843808193
2025-03-25 11:13:31.652,1.7128930504612017
2025-03-25 11:13:31.653,0.9637530994637216
2025-03-25 11:13:31.653,-1.7340782594412962
2025-03-25 11:13:31.653,-3.8411088227385135
2025-03-25 11:13:31.662,-1.7721573567040954
2025-03-25 11:13:31.662,3.6629895407543707
2025-03-25 11:13:31.663,6.249150244122362
2025-03-25 11:13:31.663,1.1258226384575203
2025-03-25 11:13:31.663,-7.627482251178549
2025-03-25 11:13:31.672,-9.27303808672886
2025-03-25 11:13:31.672,1.0296549465892582
2025-03-25 11:13:31.672,13.563879539635705
2025-03-25 11:13:31.673,12.693848296468001
2025-03-25 11:13:31.673,-4.047169715231653
2025-03-25 11:13:31.680,-19.67779456450637
2025-03-25 11:13:31.681,-15.4584549967679
2025-03-25 11:13:31.681,6.343219777004325
2025-03-25 11:13:31.681,22.950167696678385
2025-03-25 11:13:31.681,16.252842112557193
2025-03-25 11:13:31.690,-6.632813854252321
2025-03-25 11:13:31.690,-21.589780987731565
2025-03-25 11:13:31.691,-14.245382373527182
2025-03-25 11:13:31.691,5.619518607125461
2025-03-25 11:13:31.698,16.64634542910984
2025-03-25 11:13:31.699,9.380363922914361
2025-03-25 11:13:31.699,-5.415871567717239
2025-03-25 11:13:31.699,-10.880421884212971
2025-03-25 11:13:31.699,-3.0505161957937585
2025-03-25 11:13:31.708,6.669727043080682
2025-03-25 11:13:31.709,6.6100151168180075
2025-03-25 11:13:31.709,-1.8129270519410225
2025-03-25 11:13:31.709,-7.761617547627398
2025-03-25 11:13:31.718,-4.799451869509113
2025-03-25 11:13:31.718,2.932544976415188
2025-03-25 11:13:31.719,7.381654077524191
2025-03-25 11:13:31.719,5.236257636770274
2025-03-25 11:13:31.719,-0.8690848912000212
2025-03-25 11:13:31.728,-6.20541967465608
2025-03-25 11:13:31.728,-6.9657164382962335
2025-03-25 11:13:31.729,-2.010580909139337
2025-03-25 11:13:31.729,5.451993824612835
2025-03-25 11:13:31.729,8.893612737816207
2025-03-25 11:13:31.738,4.128857922576951
2025-03-25 11:13:31.738,-5.306120537598745
2025-03-25 11:13:31.739,-10.276812500697224
2025-03-25 11:13:31.739,-5.1648087526988675
2025-03-25 11:13:31.739,5.445212574528554
2025-03-25 11:13:31.748,10.667801219442614
2025-03-25 11:13:31.748,4.808788086844418
2025-03-25 11:13:31.748,-5.875798288846184
2025-03-25 11:13:31.749,-9.649054102231274
2025-03-25 11:13:31.749,-2.6303944444412517
2025-03-25 11:13:31.756,6.584042047091349
2025-03-25 11:13:31.757,7.14565342778116
2025-03-25 11:13:31.757,-1.0631371713775302
2025-03-25 11:13:31.757,-7.522524308357881
2025-03-25 11:13:31.757,-3.9965810532895465
2025-03-25 11:13:31.767,5.4274165297546375
2025-03-25 11:13:31.767,9.033232964079511
2025-03-25 11:13:31.767,1.4055915660724554
2025-03-25 11:13:31.767,-9.508183728521017
2025-03-25 11:13:31.776,-10.869637908820422
2025-03-25 11:13:31.776,0.0448152072805732
2025-03-25 11:13:31.776,11.828174378498261
2025-03-25 11:13:31.777,11.535595445988747
2025-03-25 11:13:31.777,-0.47767984040309375
2025-03-25 11:13:31.786,-11.172174935548671
2025-03-25 11:13:31.786,-9.873879573529514
2025-03-25 11:13:31.786,0.5046666967955308
2025-03-25 11:13:31.787,8.33141685979986
2025-03-25 11:13:31.787,6.567341577709811
2025-03-25 11:13:31.796,-1.0622594435104462
2025-03-25 11:13:31.796,-5.805067316765051
2025-03-25 11:13:31.796,-3.348595818642063
2025-03-25 11:13:31.797,2.605712621195595
2025-03-25 11:13:31.797,5.0478950383508066
2025-03-25 11:13:31.804,1.3912768596615563
2025-03-25 11:13:31.805,-3.8747347766643605
2025-03-25 11:13:31.805,-4.716193435659925
2025-03-25 11:13:31.805,-0.7794103745572578
2025-03-25 11:13:31.805,2.799454947706368
2025-03-25 11:13:31.816,2.5004738220674665
2025-03-25 11:13:31.816,0.5270540687953611
2025-03-25 11:13:31.816,0.5655090891926323
2025-03-25 11:13:31.817,1.9254116577680804
2025-03-25 11:13:31.817,0.7324940394292746
2025-03-25 11:13:31.826,-3.6716438253875014
2025-03-25 11:13:31.826,-6.467585176167348
2025-03-25 11:13:31.826,-2.9897938327424676
2025-03-25 11:13:31.827,4.607320380975927
2025-03-25 11:13:31.827,8.53051790308815
2025-03-25 11:13:31.834,4.107642688061876
2025-03-25 11:13:31.835,-4.055638587769863
2025-03-25 11:13:31.835,-6.9463303831820085
2025-03-25 11:13:31.835,-2.0476861930098824
2025-03-25 11:13:31.835,3.62821272507564
2025-03-25 11:13:31.844,2.9179971038487866
2025-03-25 11:13:31.845,-2.12815932939895
2025-03-25 11:13:31.845,-3.7189094562048863
2025-03-25 11:13:31.845,0.5844410073466918
2025-03-25 11:13:31.845,4.8962831772615845
2025-03-25 11:13:31.854,3.5930806711851413
2025-03-25 11:13:31.855,-1.3895431501840934
2025-03-25 11:13:31.855,-4.0783221260912805
2025-03-25 11:13:31.855,-2.416327218918453
2025-03-25 11:13:31.864,0.3108016533788459
2025-03-25 11:13:31.865,0.801771369424511
2025-03-25 11:13:31.865,-0.296242819998105
2025-03-25 11:13:31.865,-0.060362635165430265
2025-03-25 11:13:31.865,2.4725620258713232
2025-03-25 11:13:31.865,4.428177994481543
2025-03-25 11:13:31.874,1.893454674781938
2025-03-25 11:13:31.875,-4.658120502886733
2025-03-25 11:13:31.875,-8.70371168595107
2025-03-25 11:13:31.875,-4.183257881118728
2025-03-25 11:13:31.884,5.904084015349009
2025-03-25 11:13:31.884,10.859145293661104
2025-03-25 11:13:31.885,4.578551751070029
2025-03-25 11:13:31.885,-6.1461814833953285
2025-03-25 11:13:31.885,-9.262587825206685
2025-03-25 11:13:31.894,-2.2185902883827544
2025-03-25 11:13:31.894,5.300757637326965
2025-03-25 11:13:31.895,4.297128212536422
2025-03-25 11:13:31.895,-2.1729570030081846
2025-03-25 11:13:31.895,-4.052650856999013
2025-03-25 11:13:31.904,1.643290448931016
2025-03-25 11:13:31.904,6.862666005453191
2025-03-25 11:13:31.905,3.5562254630308185
2025-03-25 11:13:31.905,-5.4202390665245614
2025-03-25 11:13:31.905,-9.748204611853227
2025-03-25 11:13:31.914,-4.344571498567687
2025-03-25 11:13:31.914,5.052360800982655
2025-03-25 11:13:31.915,9.34151736542405
2025-03-25 11:13:31.915,5.9050083844046775
2025-03-25 11:13:31.915,-0.77798778158417
2025-03-25 11:13:31.924,-5.766557382265211
2025-03-25 11:13:31.924,-7.426412428607379
2025-03-25 11:13:31.924,-5.376228397325951
2025-03-25 11:13:31.925,0.8072713117631775
2025-03-25 11:13:31.925,8.508041244946
2025-03-25 11:13:31.932,10.843040900655229
2025-03-25 11:13:31.933,3.1622057454283676
2025-03-25 11:13:31.933,-9.107961202787026
2025-03-25 11:13:31.933,-13.53785409056779
2025-03-25 11:13:31.942,-4.451207215985624
2025-03-25 11:13:31.942,8.977103587102055
2025-03-25 11:13:31.943,12.369885341749981
2025-03-25 11:13:31.943,3.0408951730294174
2025-03-25 11:13:31.943,-7.323747747650139
2025-03-25 11:13:31.952,-7.739278462137751
2025-03-25 11:13:31.952,-0.6964890597382759
2025-03-25 11:13:31.953,3.575405435341973
2025-03-25 11:13:31.953,1.643129437751977
2025-03-25 11:13:31.953,-0.4543842798596219
2025-03-25 11:13:31.962,1.6265302087303204
2025-03-25 11:13:31.962,3.4766976366219713
2025-03-25 11:13:31.963,-0.4630461076918437
2025-03-25 11:13:31.963,-6.699232847628679
2025-03-25 11:13:31.963,-6.154780554237922
2025-03-25 11:13:31.972,2.690088726691711
2025-03-25 11:13:31.972,9.977156349036402
2025-03-25 11:13:31.972,6.457278057716394
2025-03-25 11:13:31.972,-4.453157534152952
2025-03-25 11:13:31.973,-10.55642336049369
2025-03-25 11:13:31.982,-5.418226531575721
2025-03-25 11:13:31.982,4.677891573387453
2025-03-25 11:13:31.982,8.748924169449257
2025-03-25 11:13:31.983,3.4789754115388343
2025-03-25 11:13:31.983,-4.099271007819719
2025-03-25 11:13:31.991,-5.484343892108584
2025-03-25 11:13:31.991,-0.35062381320122243
2025-03-25 11:13:31.991,3.9613940145001703
2025-03-25 11:13:31.991,1.9629365107610575
2025-03-25 11:13:31.991,-3.2971583607756183
2025-03-25 11:13:32.000,-4.533478242582622
2025-03-25 11:13:32.001,0.3044080792650019
2025-03-25 11:13:32.001,5.581849980518441
2025-03-25 11:13:32.001,5.195883424889846
2025-03-25 11:13:32.001,-0.27823384742888146
2025-03-25 11:13:32.011,-5.081104828409848
2025-03-25 11:13:32.011,-5.189495776077352
2025-03-25 11:13:32.011,-1.669730887493503
2025-03-25 11:13:32.011,2.1000912717927043
2025-03-25 11:13:32.020,4.0931096929936075
2025-03-25 11:13:32.020,3.9375011089635716
2025-03-25 11:13:32.021,1.6245538492253009
2025-03-25 11:13:32.021,-2.156137862376364
2025-03-25 11:13:32.021,-4.965643305197998
2025-03-25 11:13:32.030,-4.030243491428793
2025-03-25 11:13:32.031,0.3782172260957787
2025-03-25 11:13:32.031,4.231615000388893
2025-03-25 11:13:32.031,3.840727053503311
2025-03-25 11:13:32.031,0.19560421580926224
2025-03-25 11:13:32.040,-2.2647960455953697
2025-03-25 11:13:32.040,-1.2454499977310605
2025-03-25 11:13:32.041,0.7118560001533483
2025-03-25 11:13:32.041,0.07942840927360692
2025-03-25 11:13:32.041,-2.4175848605460746
2025-03-25 11:13:32.050,-2.472613459142799
2025-03-25 11:13:32.050,1.654987651532468
2025-03-25 11:13:32.051,5.689718695310292
2025-03-25 11:13:32.051,3.992777548283868
2025-03-25 11:13:32.051,-2.872643861564457
2025-03-25 11:13:32.060,-7.641105551509652
2025-03-25 11:13:32.061,-4.566959485708868
2025-03-25 11:13:32.061,3.424985942289158
2025-03-25 11:13:32.061,7.789642087009115
2025-03-25 11:13:32.061,4.158698254837709
2025-03-25 11:13:32.070,-2.9630768813202897
2025-03-25 11:13:32.070,-5.953457147501011
2025-03-25 11:13:32.071,-2.797192239397843
2025-03-25 11:13:32.071,1.699382552072436
2025-03-25 11:13:32.071,2.682477754382503
2025-03-25 11:13:32.080,0.739461418634028
2025-03-25 11:13:32.080,-0.3849475496115812
2025-03-25 11:13:32.081,0.46215064782885973
2025-03-25 11:13:32.081,0.8760818688819724
2025-03-25 11:13:32.081,-0.6469536169708354
2025-03-25 11:13:32.090,-1.967369762933473
2025-03-25 11:13:32.090,-0.5511475328266131
2025-03-25 11:13:32.091,2.045183459854041
2025-03-25 11:13:32.091,1.5849520827533148
2025-03-25 11:13:32.091,-2.4805515198237216
2025-03-25 11:13:32.100,-4.654071015658498
2025-03-25 11:13:32.100,-0.07648226882547252
2025-03-25 11:13:32.100,7.451792240907264
2025-03-25 11:13:32.101,8.116332748214269
2025-03-25 11:13:32.101,-1.5384491714925261
2025-03-25 11:13:32.108,-12.086902305302178
2025-03-25 11:13:32.109,-10.916355070969763
2025-03-25 11:13:32.109,2.336630018331604
2025-03-25 11:13:32.109,14.04767288627483
2025-03-25 11:13:32.118,11.731292426815779
2025-03-25 11:13:32.118,-1.891614511231916
2025-03-25 11:13:32.118,-12.471632396742805
2025-03-25 11:13:32.119,-10.205699634349497
2025-03-25 11:13:32.119,0.6221699471007237
2025-03-25 11:13:32.128,8.276685902467788
2025-03-25 11:13:32.128,6.703022391786759
2025-03-25 11:13:32.128,0.2191135729747351
2025-03-25 11:13:32.129,-3.3509557669329153
2025-03-25 11:13:32.129,-1.6793978281643762
2025-03-25 11:13:32.136,0.7484701827561518
2025-03-25 11:13:32.137,-0.6360548349793375
2025-03-25 11:13:32.137,-4.142144631519723
2025-03-25 11:13:32.137,-3.768364008260431
2025-03-25 11:13:32.137,2.542926672701613
2025-03-25 11:13:32.146,8.833331852898526
2025-03-25 11:13:32.147,7.378686964916566
2025-03-25 11:13:32.147,-1.7874685117527864
2025-03-25 11:13:32.147,-10.026461455704334
2025-03-25 11:13:32.156,-9.329377343313583
2025-03-25 11:13:32.156,-0.7361947486364027
2025-03-25 11:13:32.157,7.392684511062347
2025-03-25 11:13:32.157,8.325266500898536
2025-03-25 11:13:32.157,2.8826039440892304
2025-03-25 11:13:32.166,-3.0278781373119044
2025-03-25 11:13:32.166,-5.0490937522155015
2025-03-25 11:13:32.167,-3.5410368707569173
2025-03-25 11:13:32.167,-0.9887541124112598
2025-03-25 11:13:32.167,1.5291623498295943
2025-03-25 11:13:32.176,3.8556782644395513
2025-03-25 11:13:32.176,4.198587643282448
2025-03-25 11:13:32.177,0.3436621654106793
2025-03-25 11:13:32.177,-5.613216261171683
2025-03-25 11:13:32.177,-6.96543217266753
2025-03-25 11:13:32.186,-0.12824278365800273
2025-03-25 11:13:32.186,8.77609334323007
2025-03-25 11:13:32.186,9.295072108673217
2025-03-25 11:13:32.186,-0.6407662338654362
2025-03-25 11:13:32.187,-10.993247359983355
2025-03-25 11:13:32.194,-10.728079702494988
2025-03-25 11:13:32.195,-0.21546635839159545
2025-03-25 11:13:32.195,9.952259907477353
2025-03-25 11:13:32.195,10.815974712928277
2025-03-25 11:13:32.204,2.9948068893635016
2025-03-25 11:13:32.204,-6.032435362129244
2025-03-25 11:13:32.205,-9.35667326935472
2025-03-25 11:13:32.205,-5.3646118873172055
2025-03-25 11:13:32.205,1.968480470447626
2025-03-25 11:13:32.214,6.356955950883233
2025-03-25 11:13:32.214,4.5619295601408325
2025-03-25 11:13:32.214,-0.3759749720427583
2025-03-25 11:13:32.215,-2.3818136485394237
2025-03-25 11:13:32.215,0.2974155114592593
2025-03-25 11:13:32.224,2.4397122512636304
2025-03-25 11:13:32.224,-1.370382020852189
2025-03-25 11:13:32.224,-8.008562703119235
2025-03-25 11:13:32.225,-7.594849749552414
2025-03-25 11:13:32.225,3.703928971390606
2025-03-25 11:13:32.232,15.613005589869594
2025-03-25 11:13:32.233,13.466799530885591
2025-03-25 11:13:32.233,-3.705018777835115
2025-03-25 11:13:32.233,-19.449157054993506
2025-03-25 11:13:32.242,-17.145704264964163
2025-03-25 11:13:32.242,1.3581109699235183
2025-03-25 11:13:32.243,17.651826336445826
2025-03-25 11:13:32.243,16.68935656213175
2025-03-25 11:13:32.243,1.7700637159411903
2025-03-25 11:13:32.250,-11.211809329002406
2025-03-25 11:13:32.251,-11.70500166494364
2025-03-25 11:13:32.251,-3.6198915816905384
2025-03-25 11:13:32.251,2.7713771765789654
2025-03-25 11:13:32.251,3.6257367929394007
2025-03-25 11:13:32.260,3.0976581373875627
2025-03-25 11:13:32.261,4.455082553920374
2025-03-25 11:13:32.261,4.739886453456299
2025-03-25 11:13:32.261,-0.07838401971680789
2025-03-25 11:13:32.261,-7.74326176950523
2025-03-25 11:13:32.270,-10.709985054174995
2025-03-25 11:13:32.270,-4.5201739855054
2025-03-25 11:13:32.271,6.476548927061392
2025-03-25 11:13:32.271,12.697149025290313
2025-03-25 11:13:32.280,8.530894274226641
2025-03-25 11:13:32.280,-2.312774856116798
2025-03-25 11:13:32.280,-10.535008577835347
2025-03-25 11:13:32.281,-9.863317757924909
2025-03-25 11:13:32.281,-2.032415331553591
2025-03-25 11:13:32.290,5.789308495112946
2025-03-25 11:13:32.290,7.749071787538862
2025-03-25 11:13:32.290,3.9489709219003744
2025-03-25 11:13:32.291,-0.850619624258367
2025-03-25 11:13:32.291,-2.8056521555770315
2025-03-25 11:13:32.298,-2.5733628048838804
2025-03-25 11:13:32.299,-2.6485291312232655
2025-03-25 11:13:32.299,-2.628048944991461
2025-03-25 11:13:32.299,-0.07018203284461705
2025-03-25 11:13:32.308,4.093454082175174
2025-03-25 11:13:32.309,5.033086832096073
2025-03-25 11:13:32.309,0.8283480285354711
2025-03-25 11:13:32.309,-3.6428148605547364
2025-03-25 11:13:32.309,-2.858026116608833
2025-03-25 11:13:32.318,1.5543908306189933
2025-03-25 11:13:32.318,2.9459659625219947
2025-03-25 11:13:32.319,-1.2273938488498148
2025-03-25 11:13:32.319,-5.889991825700537
2025-03-25 11:13:32.319,-4.568472791560962
2025-03-25 11:13:32.328,2.915967346966798
2025-03-25 11:13:32.328,9.804967488686172
2025-03-25 11:13:32.328,8.820118425549605
2025-03-25 11:13:32.329,-0.6017736811599321
2025-03-25 11:13:32.329,-10.85361682939452
2025-03-25 11:13:32.338,-12.56721120083811
2025-03-25 11:13:32.338,-3.6481712144907887
2025-03-25 11:13:32.338,8.153965063183987
2025-03-25 11:13:32.339,12.534129446941659
2025-03-25 11:13:32.339,6.535495766058528
2025-03-25 11:13:32.346,-3.319812907456274
2025-03-25 11:13:32.347,-8.407820347658724
2025-03-25 11:13:32.347,-6.278137115244944
2025-03-25 11:13:32.347,-1.1699359337844633
2025-03-25 11:13:32.357,2.242207572259288
2025-03-25 11:13:32.357,3.4384803577242815
2025-03-25 11:13:32.357,4.029214353450309
2025-03-25 11:13:32.357,3.5441641264602053
2025-03-25 11:13:32.357,0.04602888432222128
2025-03-25 11:13:32.357,-5.2636037493874746
2025-03-25 11:13:32.367,-7.205373774098713
2025-03-25 11:13:32.367,-2.468865528155475
2025-03-25 11:13:32.367,5.218348757064379
2025-03-25 11:13:32.367,8.288122189082165
2025-03-25 11:13:32.367,3.611117265642239
2025-03-25 11:13:32.376,-4.209779668326573
2025-03-25 11:13:32.377,-7.921971449794692
2025-03-25 11:13:32.377,-4.517023942960903
2025-03-25 11:13:32.377,2.8416617846925623
2025-03-25 11:13:32.386,7.8729659260953015
2025-03-25 11:13:32.386,5.932979049356911
2025-03-25 11:13:32.386,-1.971267483826813
2025-03-25 11:13:32.387,-8.844253388528733
2025-03-25 11:13:32.387,-7.462798206935142
2025-03-25 11:13:32.396,1.7290833202070108
2025-03-25 11:13:32.396,9.810127891420468
2025-03-25 11:13:32.397,8.375419969966512
2025-03-25 11:13:32.397,-1.2512048689784132
2025-03-25 11:13:32.397,-9.372620629803206
2025-03-25 11:13:32.406,-8.246345245516984
2025-03-25 11:13:32.407,0.27305134810497755
2025-03-25 11:13:32.407,7.455434852231466
2025-03-25 11:13:32.407,6.836495037838571
2025-03-25 11:13:32.407,0.09076501466389242
2025-03-25 11:13:32.416,-5.480151473244685
2025-03-25 11:13:32.416,-4.533752177658795
2025-03-25 11:13:32.417,1.1801315381117146
2025-03-25 11:13:32.417,4.963382622587242
2025-03-25 11:13:32.417,2.45939908045755
2025-03-25 11:13:32.426,-3.4516824128528563
2025-03-25 11:13:32.426,-5.786555933166728
2025-03-25 11:13:32.427,-1.5071137067157285
2025-03-25 11:13:32.427,4.836100505722225
2025-03-25 11:13:32.427,6.358607497639756
2025-03-25 11:13:32.436,1.66074340068478
2025-03-25 11:13:32.436,-4.103205716336765
2025-03-25 11:13:32.437,-5.483891088481798
2025-03-25 11:13:32.437,-2.253917365898981
2025-03-25 11:13:32.437,1.679038390768687
2025-03-25 11:13:32.446,3.20861855213283
2025-03-25 11:13:32.446,2.5311563057921362
2025-03-25 11:13:32.446,1.3103564169447277
2025-03-25 11:13:32.447,-0.0021115794630915327
2025-03-25 11:13:32.447,-2.0062261611174113
2025-03-25 11:13:32.456,-4.017672172522603
2025-03-25 11:13:32.457,-3.551507571961716
2025-03-25 11:13:32.457,0.6105519643689747
2025-03-25 11:13:32.457,5.528779179073351
2025-03-25 11:13:32.457,6.190380072083492
2025-03-25 11:13:32.466,1.1640427315961293
2025-03-25 11:13:32.466,-5.071721423092444
2025-03-25 11:13:32.467,-6.5820304774850955
2025-03-25 11:13:32.467,-2.2809419314013244
2025-03-25 11:13:32.467,3.1898978627236665
2025-03-25 11:13:32.476,4.753319689820225
2025-03-25 11:13:32.476,2.0463445880933353
2025-03-25 11:13:32.476,-1.1957355491253967
2025-03-25 11:13:32.477,-2.0361000358816788
2025-03-25 11:13:32.477,-1.1641471105660834
2025-03-25 11:13:32.486,-0.5812996985215678
2025-03-25 11:13:32.486,-0.23233195266409265
2025-03-25 11:13:32.486,1.1582797207966644
2025-03-25 11:13:32.487,2.6519593939851074
2025-03-25 11:13:32.487,1.3832592381193622
2025-03-25 11:13:32.495,-2.6855949243520816
2025-03-25 11:13:32.495,-4.88198606797294
2025-03-25 11:13:32.495,-1.314555911088319
2025-03-25 11:13:32.495,4.94568025136824
2025-03-25 11:13:32.495,6.3930452226698256
2025-03-25 11:13:32.504,0.35790480605789987
2025-03-25 11:13:32.505,-6.844405483937726
2025-03-25 11:13:32.505,-6.835950161525823
2025-03-25 11:13:32.505,0.934405567088922
2025-03-25 11:13:32.505,8.199049214228728
2025-03-25 11:13:32.514,6.915361665892118
2025-03-25 11:13:32.515,-1.9536350370254967
2025-03-25 11:13:32.515,-9.375495538505753
2025-03-25 11:13:32.515,-7.546820546596026
2025-03-25 11:13:32.524,2.1545054593322064
2025-03-25 11:13:32.524,10.346187283577482
2025-03-25 11:13:32.525,8.728021061604428
2025-03-25 11:13:32.525,-1.5680509029081375
2025-03-25 11:13:32.525,-10.63200733515335
2025-03-25 11:13:32.534,-9.4278347701457
2025-03-25 11:13:32.534,0.8975313031483048
2025-03-25 11:13:32.535,9.974089177793388
2025-03-25 11:13:32.535,8.886845001040136
2025-03-25 11:13:32.535,-0.7221072993638081
2025-03-25 11:13:32.544,-8.79760257632927
2025-03-25 11:13:32.544,-7.55507287350977
2025-03-25 11:13:32.545,0.9074977627465565
2025-03-25 11:13:32.545,7.626978247594256
2025-03-25 11:13:32.545,6.352000189150943
2025-03-25 11:13:32.553,-0.7233892639413749
2025-03-25 11:13:32.553,-6.309601453084256
2025-03-25 11:13:32.553,-5.665457848640966
2025-03-25 11:13:32.553,-0.32049808638295085
2025-03-25 11:13:32.553,4.580841382791072
2025-03-25 11:13:32.562,5.185081954036281
2025-03-25 11:13:32.563,1.5623878763730807
2025-03-25 11:13:32.563,-2.955151284084088
2025-03-25 11:13:32.563,-4.49810391151519
2025-03-25 11:13:32.572,-1.7619633048659398
2025-03-25 11:13:32.573,2.5758952545341782
2025-03-25 11:13:32.573,3.9081559935139776
2025-03-25 11:13:32.573,0.38028309704753854
2025-03-25 11:13:32.573,-4.28712493288097
2025-03-25 11:13:32.582,-4.113798307952049
2025-03-25 11:13:32.583,1.9407852349367958
2025-03-25 11:13:32.583,7.426894011247267
2025-03-25 11:13:32.583,5.191010101071836
2025-03-25 11:13:32.583,-3.615095653510929
2025-03-25 11:13:32.592,-9.802095007011399
2025-03-25 11:13:32.593,-6.3597112973641075
2025-03-25 11:13:32.593,3.446754380852741
2025-03-25 11:13:32.593,9.708276004729832
2025-03-25 11:13:32.593,6.565388279892965
2025-03-25 11:13:32.602,-2.2033294347838206
2025-03-25 11:13:32.603,-7.797643167950825
2025-03-25 11:13:32.603,-5.3277285021999
2025-03-25 11:13:32.603,1.8694868149767532
2025-03-25 11:13:32.603,6.078527199035892
2025-03-25 11:13:32.612,3.185902936213525
2025-03-25 11:13:32.612,-3.113099201746186
2025-03-25 11:13:32.613,-5.428138525149396
2025-03-25 11:13:32.613,-1.0364702468866642
2025-03-25 11:13:32.613,4.831555975673984
2025-03-25 11:13:32.622,5.005958591360225
2025-03-25 11:13:32.622,-0.9662441388562237
2025-03-25 11:13:32.623,-5.981000260401869
2025-03-25 11:13:32.623,-3.85366657585078
2025-03-25 11:13:32.623,2.9977812585536574
2025-03-25 11:13:32.632,6.323776341292226
2025-03-25 11:13:32.632,2.1091407333379344
2025-03-25 11:13:32.633,-4.525147549130917
2025-03-25 11:13:32.633,-5.670458817810486
2025-03-25 11:13:32.633,-0.2208238908935516
2025-03-25 11:13:32.642,5.070323201386782
2025-03-25 11:13:32.642,3.9248636583770304
2025-03-25 11:13:32.643,-2.0691872328105463
2025-03-25 11:13:32.643,-5.485194388087973
2025-03-25 11:13:32.643,-1.8101038040799817
2025-03-25 11:13:32.652,5.016733096827066
2025-03-25 11:13:32.652,6.693696178702204
2025-03-25 11:13:32.653,0.3136445615170133
2025-03-25 11:13:32.653,-7.3709395816891226
2025-03-25 11:13:32.653,-7.383128338168156
2025-03-25 11:13:32.662,0.38325201208145676
2025-03-25 11:13:32.662,6.756254127566074
2025-03-25 11:13:32.662,4.973587901486309
2025-03-25 11:13:32.663,-0.9449365331190654
2025-03-25 11:13:32.663,-2.6180980409628387
2025-03-25 11:13:32.671,0.8027497891850309
2025-03-25 11:13:32.671,2.2501211546704654
2025-03-25 11:13:32.671,-2.0987401091043565
2025-03-25 11:13:32.671,-6.664208451574295
2025-03-25 11:13:32.671,-4.188869726272787
2025-03-25 11:13:32.681,3.7725934814406443
2025-03-25 11:13:32.681,8.370117221588096
2025-03-25 11:13:32.681,4.801251516643183
2025-03-25 11:13:32.681,-1.9921139245889634
2025-03-25 11:13:32.681,-4.460015275167579
2025-03-25 11:13:32.690,-2.056046540467935
2025-03-25 11:13:32.691,-0.41904723186259585
2025-03-25 11:13:32.691,-2.2717561780716213
2025-03-25 11:13:32.691,-3.369608841158037
2025-03-25 11:13:32.700,0.8399757976525188
2025-03-25 11:13:32.701,7.396023832186081
2025-03-25 11:13:32.701,8.248064534730252
2025-03-25 11:13:32.701,0.5293788274492395
2025-03-25 11:13:32.701,-8.670341763793473
2025-03-25 11:13:32.710,-9.812850737018758
2025-03-25 11:13:32.711,-1.7963276742140035
2025-03-25 11:13:32.711,6.985059848944755
2025-03-25 11:13:32.711,8.194771599935649
2025-03-25 11:13:32.711,1.9936324474512945
2025-03-25 11:13:32.720,-4.560592778607177
2025-03-25 11:13:32.721,-5.596006921892809
2025-03-25 11:13:32.721,-1.530407708147596
2025-03-25 11:13:32.721,2.830362889757
2025-03-25 11:13:32.721,3.564910103574076
2025-03-25 11:13:32.730,0.8668732694513335
2025-03-25 11:13:32.731,-1.9380824244943378
2025-03-25 11:13:32.731,-2.013885707449083
2025-03-25 11:13:32.731,0.1767181529559873
2025-03-25 11:13:32.731,1.6195439556744318
2025-03-25 11:13:32.740,0.4294763937703213
2025-03-25 11:13:32.741,-1.7033859511861604
2025-03-25 11:13:32.741,-1.630865575049327
2025-03-25 11:13:32.741,0.9361785055210368
2025-03-25 11:13:32.741,2.814508503469751
2025-03-25 11:13:32.750,1.6482292743432496
2025-03-25 11:13:32.750,-0.9551541230451042
2025-03-25 11:13:32.751,-2.0800144014209634
2025-03-25 11:13:32.751,-1.619232730423284
2025-03-25 11:13:32.751,-1.290291170174183
2025-03-25 11:13:32.760,-0.7572212839366474
2025-03-25 11:13:32.760,1.7683848749761153
2025-03-25 11:13:32.761,4.955402905993883
2025-03-25 11:13:32.761,4.2086057993560635
2025-03-25 11:13:32.761,-1.9179746642297104
2025-03-25 11:13:32.770,-7.807820041081139
2025-03-25 11:13:32.770,-6.406190406957639
2025-03-25 11:13:32.770,1.8282876251884366
2025-03-25 11:13:32.771,8.413232809267619
2025-03-25 11:13:32.771,6.320609489969803
2025-03-25 11:13:32.780,-1.812784579291502
2025-03-25 11:13:32.780,-6.902970344107583
2025-03-25 11:13:32.781,-4.189066103940307
2025-03-25 11:13:32.781,1.8067247373635291
2025-03-25 11:13:32.781,3.9236279455489793
2025-03-25 11:13:32.790,1.3153668554928335
2025-03-25 11:13:32.790,-0.9670736280741472
2025-03-25 11:13:32.790,-0.018425762202993468
2025-03-25 11:13:32.791,1.1907829112060204
2025-03-25 11:13:32.791,-0.7609829209264174
2025-03-25 11:13:32.800,-3.8079477945210614
2025-03-25 11:13:32.800,-2.9989753179447836
2025-03-25 11:13:32.801,2.031575981424519
2025-03-25 11:13:32.801,5.67278615989343
2025-03-25 11:13:32.801,3.458593476765952
2025-03-25 11:13:32.808,-1.9456301659199744
2025-03-25 11:13:32.809,-4.150560728044921
2025-03-25 11:13:32.809,-1.3372652649441596
2025-03-25 11:13:32.809,1.6265239637661055
2025-03-25 11:13:32.809,0.0832363080062085
2025-03-25 11:13:32.819,-3.625419229551736
2025-03-25 11:13:32.819,-2.8372579221365197
2025-03-25 11:13:32.819,4.02042423823017
2025-03-25 11:13:32.819,9.560385182036878
2025-03-25 11:13:32.819,5.51944630938049
2025-03-25 11:13:32.829,-6.156773134855683
2025-03-25 11:13:32.829,-13.606284664441993
2025-03-25 11:13:32.829,-7.971200278142239
2025-03-25 11:13:32.829,5.928642350424986
2025-03-25 11:13:32.838,14.219920583066868
2025-03-25 11:13:32.838,8.830761330444316
2025-03-25 11:13:32.839,-4.293662534541512
2025-03-25 11:13:32.839,-12.099904429348957
2025-03-25 11:13:32.839,-7.913139395510509
2025-03-25 11:13:32.848,2.8125975626905073
2025-03-25 11:13:32.848,9.160842734823818
2025-03-25 11:13:32.848,5.864063414200482
2025-03-25 11:13:32.849,-2.373348100267522
2025-03-25 11:13:32.849,-6.8370375342941685
2025-03-25 11:13:32.858,-3.954460295809536
2025-03-25 11:13:32.858,2.1747447736424768
2025-03-25 11:13:32.859,5.441524121905537
2025-03-25 11:13:32.859,3.8051632837029215
2025-03-25 11:13:32.859,-0.6259911119629799
2025-03-25 11:13:32.867,-4.863935228016158
2025-03-25 11:13:32.867,-6.266178336956995
2025-03-25 11:13:32.867,-2.689517679937256
2025-03-25 11:13:32.867,4.83966143015431
2025-03-25 11:13:32.876,10.078887250141292
2025-03-25 11:13:32.877,6.424495993918183
2025-03-25 11:13:32.877,-4.501573840626929
2025-03-25 11:13:32.877,-12.273288263035099
2025-03-25 11:13:32.877,-8.55459409065003
2025-03-25 11:13:32.886,2.993348339513546
2025-03-25 11:13:32.886,10.650597718004036
2025-03-25 11:13:32.887,7.860836888770059
2025-03-25 11:13:32.887,-0.5755903083005444
2025-03-25 11:13:32.887,-5.80318028714629
2025-03-25 11:13:32.896,-4.910888409164336
2025-03-25 11:13:32.896,-1.558942507588339
2025-03-25 11:13:32.897,0.6282456984357447
2025-03-25 11:13:32.897,1.553433980724803
2025-03-25 11:13:32.897,2.1694507123399145
2025-03-25 11:13:32.906,2.139499937955599
2025-03-25 11:13:32.906,0.9867682507393765
2025-03-25 11:13:32.907,-0.6982865146692508
2025-03-25 11:13:32.907,-2.1650840586712428
2025-03-25 11:13:32.907,-2.951242868669614
2025-03-25 11:13:32.916,-2.043482602069774
2025-03-25 11:13:32.916,1.2082712923124959
2025-03-25 11:13:32.916,4.595068804708971
2025-03-25 11:13:32.917,4.064131246262015
2025-03-25 11:13:32.917,-0.9311182694180061
2025-03-25 11:13:32.926,-5.189653654131528
2025-03-25 11:13:32.926,-3.606056794470956
2025-03-25 11:13:32.927,1.8332599452402931
2025-03-25 11:13:32.927,4.141275156566584
2025-03-25 11:13:32.927,0.5835016644027016
2025-03-25 11:13:32.936,-3.541128360228691
2025-03-25 11:13:32.936,-2.1478564501521706
2025-03-25 11:13:32.937,3.198361693918403
2025-03-25 11:13:32.937,5.227084648318323
2025-03-25 11:13:32.937,0.5972870733883128
2025-03-25 11:13:32.944,-5.607560440886096
2025-03-25 11:13:32.945,-6.10844919849565
2025-03-25 11:13:32.945,-0.15123560205864522
2025-03-25 11:13:32.945,5.859761811842405
2025-03-25 11:13:32.945,5.82281051700506
2025-03-25 11:13:32.955,0.3422469807383968
2025-03-25 11:13:32.955,-4.625454903994732
2025-03-25 11:13:32.955,-4.392002111197629
2025-03-25 11:13:32.955,-0.036468509714580044
2025-03-25 11:13:32.964,3.332904517182917
2025-03-25 11:13:32.965,2.176853722981608
2025-03-25 11:13:32.965,-1.7692950490295138
2025-03-25 11:13:32.965,-3.40399363105525
2025-03-25 11:13:32.965,-0.04655741111397166
2025-03-25 11:13:32.974,4.926314524450525
2025-03-25 11:13:32.974,5.2028209274091965
2025-03-25 11:13:32.975,-1.074638302656577
2025-03-25 11:13:32.975,-7.967716614587841
2025-03-25 11:13:32.975,-7.492351480331754
2025-03-25 11:13:32.984,1.0447362788057146
2025-03-25 11:13:32.984,9.226726937850055
2025-03-25 11:13:32.985,8.454991436206505
2025-03-25 11:13:32.985,-0.34899445770631554
2025-03-25 11:13:32.985,-7.924433142863137
2025-03-25 11:13:32.994,-7.244151508002655
2025-03-25 11:13:32.995,-0.5896365737209949
2025-03-25 11:13:32.995,4.579951989762299
2025-03-25 11:13:32.995,4.420838852241113
2025-03-25 11:13:32.995,1.3287379348537172
2025-03-25 11:13:33.003,-0.834356205664307
2025-03-25 11:13:33.003,-1.2511740653558674
2025-03-25 11:13:33.003,-1.3682123875770045
2025-03-25 11:13:33.003,-1.7031734078461553
2025-03-25 11:13:33.003,-1.160702318130339
2025-03-25 11:13:33.013,0.8151748392458563
2025-03-25 11:13:33.013,2.7311947987740517
2025-03-25 11:13:33.013,2.3970695866434504
2025-03-25 11:13:33.013,-0.40485346768627933
2025-03-25 11:13:33.013,-3.151281598312931
2025-03-25 11:13:33.023,-2.8859294759196934
2025-03-25 11:13:33.023,0.6106675085093515
2025-03-25 11:13:33.023,4.092371035661167
2025-03-25 11:13:33.023,3.637828332928903
2025-03-25 11:13:33.023,-1.251566557909588
2025-03-25 11:13:33.033,-6.1558571566915115
2025-03-25 11:13:33.033,-5.329559286323247
2025-03-25 11:13:33.033,1.8903607937534228
2025-03-25 11:13:33.033,8.738028944002515
2025-03-25 11:13:33.033,7.273224635886896
2025-03-25 11:13:33.043,-2.2057100307091626
2025-03-25 11:13:33.043,-10.106195412597351
2025-03-25 11:13:33.043,-7.846530536151279
2025-03-25 11:13:33.043,2.108299323462518
2025-03-25 11:13:33.052,9.02437440554479
2025-03-25 11:13:33.053,6.290326712355588
2025-03-25 11:13:33.053,-1.741005666752477
2025-03-25 11:13:33.053,-6.034117077723167
2025-03-25 11:13:33.053,-3.4190950794357473
2025-03-25 11:13:33.062,1.328076254914881
2025-03-25 11:13:33.063,2.677462386073887
2025-03-25 11:13:33.063,0.6347379951876646
2025-03-25 11:13:33.063,-0.9648866610986633
2025-03-25 11:13:33.063,-0.2231141738987919
2025-03-25 11:13:33.072,1.0154236096943845
2025-03-25 11:13:33.072,0.6276734108947027
2025-03-25 11:13:33.073,-0.7834376944759496
2025-03-25 11:13:33.073,-1.2343611262603336
2025-03-25 11:13:33.073,-0.30218179036204207
2025-03-25 11:13:33.082,0.6450532508710336
2025-03-25 11:13:33.083,0.5974502588413844
2025-03-25 11:13:33.083,0.010685584643142385
2025-03-25 11:13:33.083,-0.2268312433096806
2025-03-25 11:13:33.083,0.011778076312812913
2025-03-25 11:13:33.092,0.21954054253744856
2025-03-25 11:13:33.092,0.06963775269281731
2025-03-25 11:13:33.093,-0.22278673074920521
2025-03-25 11:13:33.093,-0.26250014999145277
2025-03-25 11:13:33.093,-0.0562098396317121
2025-03-25 11:13:33.102,-0.0071556187124437115
2025-03-25 11:13:33.102,-0.13213531799954362
2025-03-25 11:13:33.103,0.2418408191741995
2025-03-25 11:13:33.103,1.1866726691510816
2025-03-25 11:13:33.103,1.0741014052503273
2025-03-25 11:13:33.112,-1.4292434867660335
2025-03-25 11:13:33.112,-4.050719490700812
2025-03-25 11:13:33.113,-2.27272998565427
2025-03-25 11:13:33.113,4.099769716768916
2025-03-25 11:13:33.113,8.140478382770942
2025-03-25 11:13:33.120,3.273455637542935
2025-03-25 11:13:33.121,-7.062176813823363
2025-03-25 11:13:33.121,-11.441292492819231
2025-03-25 11:13:33.121,-3.7968981547647735
2025-03-25 11:13:33.130,8.362536245579511
2025-03-25 11:13:33.131,12.038727258722336
2025-03-25 11:13:33.131,3.66446132989108
2025-03-25 11:13:33.131,-7.266238054978065
2025-03-25 11:13:33.131,-9.629839370027632
2025-03-25 11:13:33.140,-2.771420757517431
2025-03-25 11:13:33.140,4.532370244403454
2025-03-25 11:13:33.141,5.254827810229783
2025-03-25 11:13:33.141,1.2029233356783289
2025-03-25 11:13:33.141,-1.3720058801935273
2025-03-25 11:13:33.150,-0.3667537685902219
2025-03-25 11:13:33.150,0.6388571772485101
2025-03-25 11:13:33.151,-1.241205679138809
2025-03-25 11:13:33.151,-3.5198186416310975
2025-03-25 11:13:33.151,-1.963846638882992
2025-03-25 11:13:33.160,2.76059707481665
2025-03-25 11:13:33.160,5.137262132275293
2025-03-25 11:13:33.161,1.9790902939499881
2025-03-25 11:13:33.161,-3.0735789957171873
2025-03-25 11:13:33.161,-4.1610580025794315
2025-03-25 11:13:33.170,-0.6896435119776942
2025-03-25 11:13:33.170,2.4616348470031117
2025-03-25 11:13:33.171,1.7443915218721633
2025-03-25 11:13:33.171,-0.9392598681554796
2025-03-25 11:13:33.171,-1.6951260091358136
2025-03-25 11:13:33.180,0.14702288484626885
2025-03-25 11:13:33.180,1.9360857887469338
2025-03-25 11:13:33.181,1.5493347868570146
2025-03-25 11:13:33.181,-0.406991599504103
2025-03-25 11:13:33.181,-1.9450769809908681
2025-03-25 11:13:33.190,-1.9184335286515712
2025-03-25 11:13:33.190,-0.6352312561743316
2025-03-25 11:13:33.190,0.9422652891020642
2025-03-25 11:13:33.191,2.0106888139982226
2025-03-25 11:13:33.191,2.0851691240591648
2025-03-25 11:13:33.199,0.9098754133572787
2025-03-25 11:13:33.199,-1.2585455324878034
2025-03-25 11:13:33.199,-3.189166830273931
2025-03-25 11:13:33.199,-3.0844858658334604
2025-03-25 11:13:33.208,-0.25977155042873223
2025-03-25 11:13:33.209,3.4563959316973287
2025-03-25 11:13:33.209,4.745326441126893
2025-03-25 11:13:33.209,1.9525810894900426
2025-03-25 11:13:33.209,-2.8153544276636677
2025-03-25 11:13:33.218,-5.269067997920362
2025-03-25 11:13:33.219,-3.0122512355147113
2025-03-25 11:13:33.219,1.884902950658501
2025-03-25 11:13:33.219,4.675032092490071
2025-03-25 11:13:33.219,2.721400715598402
2025-03-25 11:13:33.228,-1.6057515731369818
2025-03-25 11:13:33.229,-3.4734530398705257
2025-03-25 11:13:33.229,-1.081943152784853
2025-03-25 11:13:33.229,2.3314219709824933
2025-03-25 11:13:33.229,2.4869184527328243
2025-03-25 11:13:33.238,-0.8336406236860321
2025-03-25 11:13:33.239,-3.656536901060749
2025-03-25 11:13:33.239,-2.475234768473057
2025-03-25 11:13:33.239,1.8270693791365453
2025-03-25 11:13:33.239,4.866226228113494
2025-03-25 11:13:33.248,3.2643204049676307
2025-03-25 11:13:33.249,-1.7472999625362273
2025-03-25 11:13:33.249,-5.260368385126339
2025-03-25 11:13:33.249,-3.632478120633811
2025-03-25 11:13:33.249,1.4410341275985705
2025-03-25 11:13:33.258,4.535324890960523
2025-03-25 11:13:33.258,2.5633104116723806
2025-03-25 11:13:33.259,-1.7020662711661811
2025-03-25 11:13:33.259,-3.1368908126181583
2025-03-25 11:13:33.259,-0.507442576695976
2025-03-25 11:13:33.268,2.426172391819476
2025-03-25 11:13:33.268,1.9924881782494233
2025-03-25 11:13:33.268,-1.0055578903139113
2025-03-25 11:13:33.269,-2.8650085651312764
2025-03-25 11:13:33.269,-1.6708162118533267
2025-03-25 11:13:33.278,0.9880835283249577
2025-03-25 11:13:33.279,2.509179057275028
2025-03-25 11:13:33.279,2.021479952660701
2025-03-25 11:13:33.279,0.36028542221233933
2025-03-25 11:13:33.279,-1.460529998067216
2025-03-25 11:13:33.288,-2.6987201982752578
2025-03-25 11:13:33.288,-2.3830207930825704
2025-03-25 11:13:33.289,0.09755686700715586
2025-03-25 11:13:33.289,3.389814196812266
2025-03-25 11:13:33.289,4.378585893231453
2025-03-25 11:13:33.298,1.31668481732484
2025-03-25 11:13:33.298,-3.509922861584317
2025-03-25 11:13:33.299,-5.496412014636481
2025-03-25 11:13:33.299,-2.5350009828329747
2025-03-25 11:13:33.299,2.5789253439708286
2025-03-25 11:13:33.307,5.067871693605718
2025-03-25 11:13:33.307,3.071908999492085
2025-03-25 11:13:33.307,-0.921903285615676
2025-03-25 11:13:33.307,-3.216798442788984
2025-03-25 11:13:33.307,-2.5795759293462215
2025-03-25 11:13:33.318,-0.5609505895338017
2025-03-25 11:13:33.318,0.9338685178340171
2025-03-25 11:13:33.319,1.3943078128295818
2025-03-25 11:13:33.319,1.2222815994733507
2025-03-25 11:13:33.319,0.643269363042996
2025-03-25 11:13:33.327,-0.27816291915856134
2025-03-25 11:13:33.327,-1.0724174258334003
2025-03-25 11:13:33.327,-1.0823914660780825
2025-03-25 11:13:33.327,-0.2748164166947653
2025-03-25 11:13:33.336,0.597586794947074
2025-03-25 11:13:33.337,0.7795991182551265
2025-03-25 11:13:33.337,0.27594030337897935
2025-03-25 11:13:33.337,-0.2439132285805457
2025-03-25 11:13:33.337,-0.2412468622649468
2025-03-25 11:13:33.346,0.04709470210742785
2025-03-25 11:13:33.347,-0.06401284954009791
2025-03-25 11:13:33.347,-0.5942610247912977
2025-03-25 11:13:33.347,-0.5451893234381039
2025-03-25 11:13:33.347,0.6737031535676452
2025-03-25 11:13:33.356,1.8196352038152181
2025-03-25 11:13:33.357,1.0538054082576238
2025-03-25 11:13:33.357,-1.262552617963742
2025-03-25 11:13:33.357,-2.506488562974936
2025-03-25 11:13:33.357,-1.2370615135493128
2025-03-25 11:13:33.366,0.7943803564569853
2025-03-25 11:13:33.367,1.3073225732339566
2025-03-25 11:13:33.367,0.7580129095204035
2025-03-25 11:13:33.367,1.0169453577851049
2025-03-25 11:13:33.367,1.6911407989142477
2025-03-25 11:13:33.376,0.3983691447481921
2025-03-25 11:13:33.377,-2.9346143532847297
2025-03-25 11:13:33.377,-4.586998995114283
2025-03-25 11:13:33.377,-1.612332971199716
2025-03-25 11:13:33.377,3.53506646221623
2025-03-25 11:13:33.386,5.308827535931852
2025-03-25 11:13:33.387,1.8735123863255807
2025-03-25 11:13:33.387,-2.6418081821790467
2025-03-25 11:13:33.387,-3.479405200122284
2025-03-25 11:13:33.387,-0.8943160081972503
2025-03-25 11:13:33.396,1.1653262513631926
2025-03-25 11:13:33.396,0.6816285222903693
2025-03-25 11:13:33.397,-0.4698396045758639
2025-03-25 11:13:33.397,-0.06051641457752559
2025-03-25 11:13:33.397,1.2356392162912395
2025-03-25 11:13:33.406,1.2225066660855748
2025-03-25 11:13:33.406,-0.4431431099322174
2025-03-25 11:13:33.407,-1.7597323739929094
2025-03-25 11:13:33.407,-1.104396051382144
2025-03-25 11:13:33.407,0.7028955845439266
2025-03-25 11:13:33.416,1.5245947398175064
2025-03-25 11:13:33.417,0.520878400756877
2025-03-25 11:13:33.417,-0.9951955024931315
2025-03-25 11:13:33.417,-1.2447008964894215
2025-03-25 11:13:33.417,-0.010077330664639367
2025-03-25 11:13:33.425,1.2658866756363862
2025-03-25 11:13:33.425,1.1644596075854563
2025-03-25 11:13:33.425,-0.2202108147420399
2025-03-25 11:13:33.425,-1.448692222750525
2025-03-25 11:13:33.425,-1.2193070101715704
2025-03-25 11:13:33.435,0.3170778957720187
2025-03-25 11:13:33.435,1.6363701634562038
2025-03-25 11:13:33.435,1.3091376642795598
2025-03-25 11:13:33.435,-0.4597016833786195
2025-03-25 11:13:33.435,-1.8364226807379054
2025-03-25 11:13:33.445,-1.211891143723778
2025-03-25 11:13:33.445,0.8457036682378298
2025-03-25 11:13:33.445,1.9158640157995905
2025-03-25 11:13:33.445,0.5046298425515581
2025-03-25 11:13:33.445,-1.7970357652326612
2025-03-25 11:13:33.455,-1.893841843731848
2025-03-25 11:13:33.455,0.8389770248553303
2025-03-25 11:13:33.455,3.2482247839609535
2025-03-25 11:13:33.455,2.0233246331844374
2025-03-25 11:13:33.455,-1.9909433680382733
2025-03-25 11:13:33.465,-4.40827423606915
2025-03-25 11:13:33.465,-2.3658747724912472
2025-03-25 11:13:33.465,2.101438489272284
2025-03-25 11:13:33.465,4.40262630812044
2025-03-25 11:13:33.465,2.494445169066172
2025-03-25 11:13:33.475,-1.2347608049574221
2025-03-25 11:13:33.475,-3.061633958823384
2025-03-25 11:13:33.475,-1.9352661920564236
2025-03-25 11:13:33.475,0.13426615640777315
2025-03-25 11:13:33.485,1.0182521534131994
2025-03-25 11:13:33.485,0.7084628052087393
2025-03-25 11:13:33.485,0.46698746711632044
2025-03-25 11:13:33.485,0.7203827081210111
2025-03-25 11:13:33.485,0.6719299555141857
2025-03-25 11:13:33.485,-0.2374621391909732
2025-03-25 11:13:33.495,-1.342539116112839
2025-03-25 11:13:33.495,-1.5296373145658184
2025-03-25 11:13:33.495,-0.562309673054052
2025-03-25 11:13:33.495,0.7347573033013062
2025-03-25 11:13:33.505,1.4246700276105368
2025-03-25 11:13:33.505,1.2354272617713076
2025-03-25 11:13:33.505,0.4447643297523606
2025-03-25 11:13:33.505,-0.553811231114533
2025-03-25 11:13:33.505,-1.2939780863939412
2025-03-25 11:13:33.514,-1.2116791365871253
2025-03-25 11:13:33.515,-0.1988397236072814
2025-03-25 11:13:33.515,0.8571410838628204
2025-03-25 11:13:33.515,0.8388556293725485
2025-03-25 11:13:33.515,-0.0406050193819327
2025-03-25 11:13:33.524,-0.28783768341372784
2025-03-25 11:13:33.524,0.6651249729687992
2025-03-25 11:13:33.525,1.229607334571323
2025-03-25 11:13:33.525,-0.1982272927560338
2025-03-25 11:13:33.525,-2.45983071689267
2025-03-25 11:13:33.534,-2.5789056153024172
2025-03-25 11:13:33.535,0.37209740011730125
2025-03-25 11:13:33.535,3.6521916014245814
2025-03-25 11:13:33.535,3.700402225649925
2025-03-25 11:13:33.535,0.01688609127317467
2025-03-25 11:13:33.544,-4.147018133580241
2025-03-25 11:13:33.545,-4.765336331204122
2025-03-25 11:13:33.545,-0.8748245355588864
2025-03-25 11:13:33.545,4.166498198660763
2025-03-25 11:13:33.545,5.5552518761150695
2025-03-25 11:13:33.554,1.7906666812510599
2025-03-25 11:13:33.555,-3.565468960867538
2025-03-25 11:13:33.555,-5.4143840429400205
2025-03-25 11:13:33.555,-2.326706853244026
2025-03-25 11:13:33.555,2.2892654226504914
2025-03-25 11:13:33.563,4.107072968465743
2025-03-25 11:13:33.563,2.2012959481995353
2025-03-25 11:13:33.563,-0.8135407652322866
2025-03-25 11:13:33.563,-2.164616382723198
2025-03-25 11:13:33.563,-1.5063858149500755
2025-03-25 11:13:33.574,-0.2583712682567768
2025-03-25 11:13:33.574,0.5140644773065454
2025-03-25 11:13:33.575,0.7827723544445446
2025-03-25 11:13:33.575,0.6846531440559772
2025-03-25 11:13:33.575,0.12448355059567619
2025-03-25 11:13:33.584,-0.5757653627351695
2025-03-25 11:13:33.584,-0.6013337865177313
2025-03-25 11:13:33.585,0.20908053134559218
2025-03-25 11:13:33.585,0.8167311987087988
2025-03-25 11:13:33.585,0.3022724607188684
2025-03-25 11:13:33.593,-0.7343069800575173
2025-03-25 11:13:33.593,-0.9240365126608063
2025-03-25 11:13:33.593,-0.03505994461776891
2025-03-25 11:13:33.593,0.7658991855301781
2025-03-25 11:13:33.593,0.5828592415893491
2025-03-25 11:13:33.603,-0.12321363635272234
2025-03-25 11:13:33.603,-0.40479116786125013
2025-03-25 11:13:33.603,-0.11311081041884412
2025-03-25 11:13:33.603,0.1737141140756901
2025-03-25 11:13:33.612,0.11631987522859105
2025-03-25 11:13:33.613,-0.0453554669989225
2025-03-25 11:13:33.613,-0.03310289996647827
2025-03-25 11:13:33.613,0.04307964732903795
2025-03-25 11:13:33.613,-0.0658444445219006
2025-03-25 11:13:33.623,-0.31348554309195337
2025-03-25 11:13:33.623,-0.3499056766655126
2025-03-25 11:13:33.623,0.06930223535295028
2025-03-25 11:13:33.623,0.6853853473583444
2025-03-25 11:13:33.623,0.8170271679233149
2025-03-25 11:13:33.632,0.07417697427712105
2025-03-25 11:13:33.633,-0.9428703967287126
2025-03-25 11:13:33.633,-1.0542614613230843
2025-03-25 11:13:33.633,0.05145369261036598
2025-03-25 11:13:33.633,1.1402451677175054
2025-03-25 11:13:33.642,0.806046369494147
2025-03-25 11:13:33.643,-0.6286273470531077
2025-03-25 11:13:33.643,-1.3483668913322238
2025-03-25 11:13:33.643,-0.3560065873331406
2025-03-25 11:13:33.643,1.193692148952186
2025-03-25 11:13:33.652,1.4628409500249744
2025-03-25 11:13:33.652,0.18811119055215766
2025-03-25 11:13:33.653,-1.1953662119899962
2025-03-25 11:13:33.653,-1.3786864815167368
2025-03-25 11:13:33.653,-0.4168534776301167
2025-03-25 11:13:33.662,0.7379095591563294
2025-03-25 11:13:33.662,1.2255198224915023
2025-03-25 11:13:33.663,0.7340097378454933
2025-03-25 11:13:33.663,-0.38368872291615735
2025-03-25 11:13:33.663,-1.2031185843045131
2025-03-25 11:13:33.672,-0.9023747342562229
2025-03-25 11:13:33.672,0.3429568389983274
2025-03-25 11:13:33.673,1.36149910789161
2025-03-25 11:13:33.673,1.1047762026183723
2025-03-25 11:13:33.673,-0.2890448807665802
2025-03-25 11:13:33.682,-1.583140048924084
2025-03-25 11:13:33.682,-1.551644525306441
2025-03-25 11:13:33.683,-0.10125934155050062
2025-03-25 11:13:33.683,1.5743960121976919
2025-03-25 11:13:33.683,2.007236326243857
2025-03-25 11:13:33.691,0.7699947068470466
2025-03-25 11:13:33.691,-1.1228582828829508
2025-03-25 11:13:33.691,-2.0841562936153086
2025-03-25 11:13:33.691,-1.30833709936415
2025-03-25 11:13:33.691,0.5053583436258939
2025-03-25 11:13:33.701,1.705938338319828
2025-03-25 11:13:33.701,1.2239475442794696
2025-03-25 11:13:33.701,-0.28490614654916935
2025-03-25 11:13:33.701,-1.093469094049959
2025-03-25 11:13:33.710,-0.4053284507747017
2025-03-25 11:13:33.711,0.6694741365033426
2025-03-25 11:13:33.711,0.5692841353386269
2025-03-25 11:13:33.711,-0.628202726398243
2025-03-25 11:13:33.711,-1.2921999071703554
2025-03-25 11:13:33.721,-0.3960565323231914
2025-03-25 11:13:33.721,1.1561372190419643
2025-03-25 11:13:33.721,1.660494059294571
2025-03-25 11:13:33.721,0.5736567926816907
2025-03-25 11:13:33.721,-1.018585863096306
2025-03-25 11:13:33.731,-1.621121638379906
2025-03-25 11:13:33.731,-0.752603208196252
2025-03-25 11:13:33.731,0.6857386953660713
2025-03-25 11:13:33.731,1.3039732870779788
2025-03-25 11:13:33.731,0.5923245630180158
2025-03-25 11:13:33.740,-0.5740226758151835
2025-03-25 11:13:33.741,-0.9246160593486185
2025-03-25 11:13:33.741,-0.2027365166784014
2025-03-25 11:13:33.741,0.6616476696185349
2025-03-25 11:13:33.741,0.712924849657578
2025-03-25 11:13:33.750,-0.03673912049885926
2025-03-25 11:13:33.751,-0.7904454918344221
2025-03-25 11:13:33.751,-0.8017402119676414
2025-03-25 11:13:33.751,0.030632069232708545
2025-03-25 11:13:33.751,1.0420595249070785
2025-03-25 11:13:33.760,1.1848747910188582
2025-03-25 11:13:33.761,-0.009765423185651358
2025-03-25 11:13:33.761,-1.5904745743724353
2025-03-25 11:13:33.761,-1.7855825729996329
2025-03-25 11:13:33.761,0.02187699578746398
2025-03-25 11:13:33.770,2.2017241827082734
2025-03-25 11:13:33.770,2.4294042356960954
2025-03-25 11:13:33.771,0.310710219053752
2025-03-25 11:13:33.771,-2.161650270132077
2025-03-25 11:13:33.771,-2.8319258450109084
2025-03-25 11:13:33.780,-1.3911023367210464
2025-03-25 11:13:33.781,0.943655245409344
2025-03-25 11:13:33.781,2.7877452738913884
2025-03-25 11:13:33.781,3.0560761319673806
2025-03-25 11:13:33.781,1.0967946221158005
2025-03-25 11:13:33.791,-2.3168496168352863
2025-03-25 11:13:33.791,-4.493623030116125
2025-03-25 11:13:33.791,-2.9190929184743855
2025-03-25 11:13:33.791,1.5869556022043365
2025-03-25 11:13:33.791,4.888088670445794
2025-03-25 11:13:33.800,3.677604992744232
2025-03-25 11:13:33.801,-0.8106535589473027
2025-03-25 11:13:33.801,-4.080709738379618
2025-03-25 11:13:33.801,-3.232758773392834
2025-03-25 11:13:33.801,0.23433972844295348
2025-03-25 11:13:33.809,2.581819256844423
2025-03-25 11:13:33.809,1.9861900594332824
2025-03-25 11:13:33.809,-0.07592870394256082
2025-03-25 11:13:33.809,-1.1687832407321015
2025-03-25 11:13:33.809,-0.6434893816471227
2025-03-25 11:13:33.819,0.2934930110697907
2025-03-25 11:13:33.819,0.511787255937405
2025-03-25 11:13:33.819,0.06492265213023615
2025-03-25 11:13:33.819,-0.4766233857040107
2025-03-25 11:13:33.819,-0.8217247858779536
2025-03-25 11:13:33.830,-0.7376462589199027
2025-03-25 11:13:33.831,0.14879713805109404
2025-03-25 11:13:33.831,1.5867292225055565
2025-03-25 11:13:33.831,2.205308872957809
2025-03-25 11:13:33.831,0.7722186433697553
2025-03-25 11:13:33.839,-1.9359479342139951
2025-03-25 11:13:33.839,-3.3480835777655598
2025-03-25 11:13:33.839,-1.7706931491578315
2025-03-25 11:13:33.839,1.4883930060912585
2025-03-25 11:13:33.839,3.305311000696019
2025-03-25 11:13:33.849,2.0781830365913763
2025-03-25 11:13:33.849,-0.6472355839640164
2025-03-25 11:13:33.849,-2.1054416889587606
2025-03-25 11:13:33.849,-1.3645678700113397
2025-03-25 11:13:33.859,0.0820900266336603
2025-03-25 11:13:33.859,0.5249820923191235
2025-03-25 11:13:33.859,0.0320755416453901
2025-03-25 11:13:33.859,-0.10969617052701859
2025-03-25 11:13:33.859,0.6060927608918871
2025-03-25 11:13:33.859,1.2005810981311609
2025-03-25 11:13:33.869,0.5647148300666889
2025-03-25 11:13:33.869,-0.996892705862062
2025-03-25 11:13:33.869,-1.9402684598956792
2025-03-25 11:13:33.869,-1.1275852701164275
2025-03-25 11:13:33.879,0.8868896485526437
2025-03-25 11:13:33.879,2.272152629078151
2025-03-25 11:13:33.879,1.6403616704821062
2025-03-25 11:13:33.879,-0.5748319502860767
2025-03-25 11:13:33.879,-2.4079071281443576
2025-03-25 11:13:33.889,-2.1115106157484553
2025-03-25 11:13:33.889,0.17905139214377427
2025-03-25 11:13:33.889,2.4151580020628916
2025-03-25 11:13:33.889,2.4504250190687524
2025-03-25 11:13:33.889,0.1819497930329749
2025-03-25 11:13:33.899,-2.1721706545240678
2025-03-25 11:13:33.899,-2.296236778603257
2025-03-25 11:13:33.899,-0.29918010696949504
2025-03-25 11:13:33.899,1.479287097056007
2025-03-25 11:13:33.899,1.3280019360081128
2025-03-25 11:13:33.908,0.08638336182303036
2025-03-25 11:13:33.909,-0.3803513264137876
2025-03-25 11:13:33.909,0.12639923480779391
2025-03-25 11:13:33.909,0.19575657912553887
2025-03-25 11:13:33.909,-0.6645148037994926
2025-03-25 11:13:33.918,-1.0886891013423656
2025-03-25 11:13:33.919,-0.05000750475559939
2025-03-25 11:13:33.919,1.2387281941565065
2025-03-25 11:13:33.919,0.866762974069333
2025-03-25 11:13:33.919,-0.8619329322071414
2025-03-25 11:13:33.928,-1.5109355148650627
2025-03-25 11:13:33.929,0.1923040998110941
2025-03-25 11:13:33.929,2.3151721682010122
2025-03-25 11:13:33.929,1.9397439542798847
2025-03-25 11:13:33.929,-1.0439836261404154
2025-03-25 11:13:33.938,-3.4805006645684533
2025-03-25 11:13:33.939,-2.542578685410721
2025-03-25 11:13:33.939,0.9759165676869379
2025-03-25 11:13:33.939,3.54962656941697
2025-03-25 11:13:33.939,2.7821932840488897
2025-03-25 11:13:33.948,-0.2421652689347141
2025-03-25 11:13:33.949,-2.4741447489604496
2025-03-25 11:13:33.949,-2.191208455401702
2025-03-25 11:13:33.949,-0.3761771707635866
2025-03-25 11:13:33.949,0.9263990537793252
2025-03-25 11:13:33.958,0.9430578122544457
2025-03-25 11:13:33.959,0.47655253650837065
2025-03-25 11:13:33.959,0.3176238582193227
2025-03-25 11:13:33.959,0.22328241770446106
2025-03-25 11:13:33.959,-0.27841460618968544
2025-03-25 11:13:33.968,-0.8147852241810087
2025-03-25 11:13:33.969,-0.6278143831296468
2025-03-25 11:13:33.969,0.17781683053734693
2025-03-25 11:13:33.969,0.6259770564263941
2025-03-25 11:13:33.969,0.20877242138512453
2025-03-25 11:13:33.978,-0.3828499096479233
2025-03-25 11:13:33.979,-0.21624271703428347
2025-03-25 11:13:33.979,0.5598879311838749
2025-03-25 11:13:33.979,0.8407888941052933
2025-03-25 11:13:33.979,0.008929655655105367
2025-03-25 11:13:33.988,-1.156040162857486
2025-03-25 11:13:33.989,-1.3025592305616467
2025-03-25 11:13:33.989,-0.1135635480857557
2025-03-25 11:13:33.989,1.2629339637838404
2025-03-25 11:13:33.989,1.4925198553487753
2025-03-25 11:13:33.997,0.471664071011603
2025-03-25 11:13:33.997,-0.7629459213141488
2025-03-25 11:13:33.997,-1.2721223723739745
2025-03-25 11:13:33.997,-0.9498092878493304
2025-03-25 11:13:33.998,-0.17305751372099296
2025-03-25 11:13:34.008,0.6901267144509136
2025-03-25 11:13:34.009,1.2504093689477473
2025-03-25 11:13:34.009,1.0693736521701878
2025-03-25 11:13:34.009,0.08865907466955056
2025-03-25 11:13:34.009,-1.0576039464834723
2025-03-25 11:13:34.018,-1.4782058672869727
2025-03-25 11:13:34.019,-0.8230238060711165
2025-03-25 11:13:34.019,0.4074860276941909
2025-03-25 11:13:34.019,1.2871988890104984
2025-03-25 11:13:34.019,1.1899025161720334
2025-03-25 11:13:34.027,0.2581415596942298
2025-03-25 11:13:34.027,-0.7267169891704749
2025-03-25 11:13:34.027,-1.0102946524701288
2025-03-25 11:13:34.027,-0.5099978174490186
2025-03-25 11:13:34.027,0.19178276944538894
2025-03-25 11:13:34.037,0.49408286267139134
2025-03-25 11:13:34.037,0.33762408389087195
2025-03-25 11:13:34.037,0.08202815805289856
2025-03-25 11:13:34.037,-0.02936364568125051
2025-03-25 11:13:34.037,-0.07632367173990831
2025-03-25 11:13:34.047,-0.16589501598199247
2025-03-25 11:13:34.047,-0.1965118676111128
2025-03-25 11:13:34.047,-0.04476685750467074
2025-03-25 11:13:34.047,0.1874692012096636
2025-03-25 11:13:34.057,0.27390502099472896
2025-03-25 11:13:34.057,0.1270457497236766
2025-03-25 11:13:34.057,-0.14325864291045412
2025-03-25 11:13:34.057,-0.348713285547241
2025-03-25 11:13:34.057,-0.3176743189781352
2025-03-25 11:13:34.067,0.009485068936686642
2025-03-25 11:13:34.067,0.43697988113942526
2025-03-25 11:13:34.067,0.5484266950167203
2025-03-25 11:13:34.067,0.10496096948002033
2025-03-25 11:13:34.067,-0.5414259921563402
2025-03-25 11:13:34.076,-0.6601601166672024
2025-03-25 11:13:34.077,0.0034900602863069258
2025-03-25 11:13:34.077,0.7236589711542981
2025-03-25 11:13:34.077,0.5449942535607533
2025-03-25 11:13:34.077,-0.40726122690362476
2025-03-25 11:13:34.086,-0.8878015530691128
2025-03-25 11:13:34.087,-0.15281867907064942
2025-03-25 11:13:34.087,0.8741001618575883
2025-03-25 11:13:34.087,0.7519454449098385
2025-03-25 11:13:34.087,-0.4111027062278266
2025-03-25 11:13:34.096,-0.9869819834999515
2025-03-25 11:13:34.097,-0.12867330512181002
2025-03-25 11:13:34.097,0.9127827152525393
2025-03-25 11:13:34.097,0.5165610522568115
2025-03-25 11:13:34.097,-0.8819097124655615
2025-03-25 11:13:34.106,-1.2283525657178473
2025-03-25 11:13:34.106,0.2781020457351574
2025-03-25 11:13:34.107,1.870515911402988
2025-03-25 11:13:34.107,1.4053111482778577
2025-03-25 11:13:34.107,-0.8151335753956951
2025-03-25 11:13:34.116,-2.3266517708199994
2025-03-25 11:13:34.117,-1.476347007638451
2025-03-25 11:13:34.117,0.7285033286719127
2025-03-25 11:13:34.117,2.002583399852948
2025-03-25 11:13:34.117,1.3784076079749839
2025-03-25 11:13:34.125,-0.1199863977197868
2025-03-25 11:13:34.125,-1.0585389100264921
2025-03-25 11:13:34.125,-1.08802199462905
2025-03-25 11:13:34.125,-0.6882565735318089
2025-03-25 11:13:34.135,-0.09849423156091375
2025-03-25 11:13:34.135,0.7648935138349805
2025-03-25 11:13:34.135,1.4634893762583623
2025-03-25 11:13:34.135,1.0250995271030874
2025-03-25 11:13:34.135,-0.6714474396862699
2025-03-25 11:13:34.145,-2.0705941655800575
2025-03-25 11:13:34.145,-1.4360130800433795
2025-03-25 11:13:34.145,0.8382122922848929
2025-03-25 11:13:34.145,2.3151821881814985
2025-03-25 11:13:34.145,1.3270276358342816
2025-03-25 11:13:34.155,-0.9726045484866112
2025-03-25 11:13:34.155,-2.015819669125563
2025-03-25 11:13:34.155,-0.8721104563769628
2025-03-25 11:13:34.155,0.8927321095734697
2025-03-25 11:13:34.155,1.323068915799365
2025-03-25 11:13:34.165,0.25968761385975675
2025-03-25 11:13:34.165,-0.8392821115642047
2025-03-25 11:13:34.165,-0.7302507032979904
2025-03-25 11:13:34.165,0.36599318865551694
2025-03-25 11:13:34.165,1.1384901192244987
2025-03-25 11:13:34.174,0.5680336697400901
2025-03-25 11:13:34.175,-0.937392487495742
2025-03-25 11:13:34.175,-1.742062149613522
2025-03-25 11:13:34.175,-0.649488393655284
2025-03-25 11:13:34.175,1.4827649649745414
2025-03-25 11:13:34.184,2.286222600264088
2025-03-25 11:13:34.185,0.5433310652776401
2025-03-25 11:13:34.185,-2.029234731159555
2025-03-25 11:13:34.185,-2.4653679725477455
2025-03-25 11:13:34.185,-0.09071792005525037
2025-03-25 11:13:34.194,2.459661611324694
2025-03-25 11:13:34.195,2.2671862223846193
2025-03-25 11:13:34.195,-0.4288847476764504
2025-03-25 11:13:34.195,-2.5848681198625387
2025-03-25 11:13:34.195,-1.9274964123390035
2025-03-25 11:13:34.204,0.6324213851035598
2025-03-25 11:13:34.205,2.3289318066011435
2025-03-25 11:13:34.205,1.6350726635802495
2025-03-25 11:13:34.205,-0.437434774067348
2025-03-25 11:13:34.205,-1.7846695043629197
2025-03-25 11:13:34.214,-1.3589335398720528
2025-03-25 11:13:34.214,0.13798965615847594
2025-03-25 11:13:34.215,1.2143150003751069
2025-03-25 11:13:34.215,0.9977150985927891
2025-03-25 11:13:34.215,-0.08648922652159596
2025-03-25 11:13:34.225,-0.8498121358137974
2025-03-25 11:13:34.225,-0.5953919342761357
2025-03-25 11:13:34.225,0.21059934828309085
2025-03-25 11:13:34.225,0.6327076766667016
2025-03-25 11:13:34.225,0.3899820856372984
2025-03-25 11:13:34.233,-0.06833367828711799
2025-03-25 11:13:34.233,-0.3772356724306476
2025-03-25 11:13:34.233,-0.5507072345967678
2025-03-25 11:13:34.233,-0.49770469481185226
2025-03-25 11:13:34.234,0.05649414199956431
2025-03-25 11:13:34.243,0.8899095886314767
2025-03-25 11:13:34.243,1.1044022437329066
2025-03-25 11:13:34.243,0.1763974290682691
2025-03-25 11:13:34.243,-1.0750420542029573
2025-03-25 11:13:34.243,-1.2265613314414185
2025-03-25 11:13:34.253,-0.05724976167258365
2025-03-25 11:13:34.253,0.9982316611419418
2025-03-25 11:13:34.253,0.6366669622884
2025-03-25 11:13:34.253,-0.544971114584421
2025-03-25 11:13:34.263,-0.812925376363584
2025-03-25 11:13:34.263,0.31926843799909355
2025-03-25 11:13:34.263,1.363177230512237
2025-03-25 11:13:34.263,0.815104698955357
2025-03-25 11:13:34.263,-0.8713352646938899
2025-03-25 11:13:34.273,-1.870154545491392
2025-03-25 11:13:34.273,-1.1673702010388578
2025-03-25 11:13:34.273,0.479294267123993
2025-03-25 11:13:34.273,1.641409312882183
2025-03-25 11:13:34.273,1.6331196821048506
2025-03-25 11:13:34.274,0.6925616665043256
2025-03-25 11:13:34.283,-0.626434052305914
2025-03-25 11:13:34.283,-1.7325187622775708
2025-03-25 11:13:34.283,-1.945474725589312
2025-03-25 11:13:34.283,-0.8327500070016771
2025-03-25 11:13:34.293,1.140510969807318
2025-03-25 11:13:34.293,2.582862883294898
2025-03-25 11:13:34.293,2.2018057981855317
