timestamp,bandpass_and_notch
2025-03-25 11:18:49.551,-0.3327478285382405
2025-03-25 11:18:49.552,3.1669489767174106
2025-03-25 11:18:49.552,3.9516756590133935
2025-03-25 11:18:49.552,-4.414576457316518
2025-03-25 11:18:49.561,-19.162571311645742
2025-03-25 11:18:49.561,-20.59534706250706
2025-03-25 11:18:49.561,5.7703274083805605
2025-03-25 11:18:49.561,40.91334794921339
2025-03-25 11:18:49.561,43.96133093692715
2025-03-25 11:18:49.569,0.44163615136874856
2025-03-25 11:18:49.569,-52.20992579692233
2025-03-25 11:18:49.570,-60.339399400407224
2025-03-25 11:18:49.570,-13.234376873585164
2025-03-25 11:18:49.577,43.930915206964
2025-03-25 11:18:49.577,58.43015507673121
2025-03-25 11:18:49.578,23.18006846288412
2025-03-25 11:18:49.578,-22.61078458334379
2025-03-25 11:18:49.578,-38.71944165821202
2025-03-25 11:18:49.587,-21.049864986915367
2025-03-25 11:18:49.587,4.450269382683145
2025-03-25 11:18:49.587,14.561980412260866
2025-03-25 11:18:49.588,9.120587079096614
2025-03-25 11:18:49.597,2.3856127054109253
2025-03-25 11:18:49.597,2.5862544602813706
2025-03-25 11:18:49.597,4.609082769466076
2025-03-25 11:18:49.597,0.5413679439302093
2025-03-25 11:18:49.598,-8.283171134005979
2025-03-25 11:18:49.607,-12.630013868712172
2025-03-25 11:18:49.607,-6.71810885291774
2025-03-25 11:18:49.607,4.890332057369657
2025-03-25 11:18:49.608,12.122290890820706
2025-03-25 11:18:49.608,9.538383674641457
2025-03-25 11:18:49.617,0.8544201422176041
2025-03-25 11:18:49.617,-6.037499776210485
2025-03-25 11:18:49.617,-7.221888530222361
2025-03-25 11:18:49.617,-4.810441342727078
2025-03-25 11:18:49.618,-1.7603662661540904
2025-03-25 11:18:49.627,1.996090213578624
2025-03-25 11:18:49.627,6.426150862008232
2025-03-25 11:18:49.627,7.695971203772256
2025-03-25 11:18:49.627,2.182889439419171
2025-03-25 11:18:49.628,-6.524790613632725
2025-03-25 11:18:49.637,-9.477496241939287
2025-03-25 11:18:49.637,-2.9167737225684527
2025-03-25 11:18:49.637,6.259748051082819
2025-03-25 11:18:49.637,8.11883610001353
2025-03-25 11:18:49.638,1.162186093813792
2025-03-25 11:18:49.647,-6.332483242172635
2025-03-25 11:18:49.647,-6.130101159552897
2025-03-25 11:18:49.647,0.9278244176552871
2025-03-25 11:18:49.647,6.61372476106549
2025-03-25 11:18:49.647,4.930277721706603
2025-03-25 11:18:49.657,-1.5748212227056517
2025-03-25 11:18:49.657,-5.565590179075488
2025-03-25 11:18:49.657,-3.7166193258363402
2025-03-25 11:18:49.657,0.21434756102226582
2025-03-25 11:18:49.657,1.4051672911075195
2025-03-25 11:18:49.667,0.5524677684224524
2025-03-25 11:18:49.667,1.8326243659482926
2025-03-25 11:18:49.667,5.332820303377043
2025-03-25 11:18:49.667,5.338711717752622
2025-03-25 11:18:49.667,-2.029718708971551
2025-03-25 11:18:49.675,-11.629870809253433
2025-03-25 11:18:49.675,-12.818241734203777
2025-03-25 11:18:49.675,-1.1527580001784439
2025-03-25 11:18:49.676,14.548633742411406
2025-03-25 11:18:49.685,18.96556454185863
2025-03-25 11:18:49.685,5.87100419495734
2025-03-25 11:18:49.685,-13.451864861152323
2025-03-25 11:18:49.685,-20.16184674360299
2025-03-25 11:18:49.685,-7.876908519704152
2025-03-25 11:18:49.693,9.686878119337551
2025-03-25 11:18:49.693,14.313236350626553
2025-03-25 11:18:49.693,4.4910146580944525
2025-03-25 11:18:49.694,-4.706564101871081
2025-03-25 11:18:49.694,-2.9651693789021065
2025-03-25 11:18:49.703,2.3672343805541303
2025-03-25 11:18:49.703,-0.21049161710309533
2025-03-25 11:18:49.703,-7.563515923247463
2025-03-25 11:18:49.704,-7.001003426455499
2025-03-25 11:18:49.704,2.9670343008657385
2025-03-25 11:18:49.713,9.400514646644876
2025-03-25 11:18:49.713,4.617612797624247
2025-03-25 11:18:49.713,-2.4027082601906824
2025-03-25 11:18:49.714,-0.7866497018501762
2025-03-25 11:18:49.714,4.761898558497337
2025-03-25 11:18:49.723,1.1857328497646669
2025-03-25 11:18:49.723,-11.534990009274331
2025-03-25 11:18:49.723,-16.79339409550706
2025-03-25 11:18:49.724,-2.6863365364749376
2025-03-25 11:18:49.731,19.404595051707336
2025-03-25 11:18:49.731,25.016807914075297
2025-03-25 11:18:49.732,5.574398236499239
2025-03-25 11:18:49.732,-19.51551696099467
2025-03-25 11:18:49.741,-24.37801094803144
2025-03-25 11:18:49.741,-6.233307941343822
2025-03-25 11:18:49.741,13.367618388186632
2025-03-25 11:18:49.741,15.499654874541509
2025-03-25 11:18:49.742,3.8618493625198673
2025-03-25 11:18:49.751,-4.829955175440123
2025-03-25 11:18:49.751,-3.316952216791822
2025-03-25 11:18:49.751,0.350113076892295
2025-03-25 11:18:49.751,-2.499399606888747
2025-03-25 11:18:49.751,-8.058933257117442
2025-03-25 11:18:49.759,-5.646996398550377
2025-03-25 11:18:49.759,6.43780514317352
2025-03-25 11:18:49.760,16.226485984662357
2025-03-25 11:18:49.760,11.380918770735423
2025-03-25 11:18:49.760,-5.6625808816686956
2025-03-25 11:18:49.769,-19.193523878923365
2025-03-25 11:18:49.769,-16.38289613534832
2025-03-25 11:18:49.769,0.38209899384428503
2025-03-25 11:18:49.770,16.775050924696913
2025-03-25 11:18:49.777,19.517650944187395
2025-03-25 11:18:49.777,6.552533574969846
2025-03-25 11:18:49.778,-11.839789239857279
2025-03-25 11:18:49.778,-20.543854001274607
2025-03-25 11:18:49.787,-11.619853046299399
2025-03-25 11:18:49.787,7.814807424502236
2025-03-25 11:18:49.787,20.542888120886225
2025-03-25 11:18:49.787,14.627349781947292
2025-03-25 11:18:49.788,-5.205869352833621
2025-03-25 11:18:49.795,-21.37250022482406
2025-03-25 11:18:49.795,-18.679972896880674
2025-03-25 11:18:49.795,2.1003120029084266
2025-03-25 11:18:49.796,23.27686857807265
2025-03-25 11:18:49.805,24.452036509701507
2025-03-25 11:18:49.805,2.3521064553707465
2025-03-25 11:18:49.805,-23.07871919799587
2025-03-25 11:18:49.805,-27.078800336985612
2025-03-25 11:18:49.805,-6.341728082959884
2025-03-25 11:18:49.813,17.27418135721946
2025-03-25 11:18:49.813,21.481062334137526
2025-03-25 11:18:49.814,7.170704213021219
2025-03-25 11:18:49.814,-6.960708161238596
2025-03-25 11:18:49.814,-8.894249517208852
2025-03-25 11:18:49.823,-4.313180083055844
2025-03-25 11:18:49.823,-3.106797501306913
2025-03-25 11:18:49.823,-3.969407720622506
2025-03-25 11:18:49.824,0.7728835843101728
2025-03-25 11:18:49.833,9.524508887932893
2025-03-25 11:18:49.833,10.675428003210968
2025-03-25 11:18:49.833,-0.3085416885400439
2025-03-25 11:18:49.833,-11.490251491410369
2025-03-25 11:18:49.834,-9.069455613461301
2025-03-25 11:18:49.843,3.278927761366411
2025-03-25 11:18:49.843,8.865213464162318
2025-03-25 11:18:49.843,1.3041911243310544
2025-03-25 11:18:49.843,-6.659845611621475
2025-03-25 11:18:49.844,-2.1897838696563188
2025-03-25 11:18:49.851,8.233666993602593
2025-03-25 11:18:49.851,7.820778184520774
2025-03-25 11:18:49.852,-5.675710923737517
2025-03-25 11:18:49.852,-15.249635964904247
2025-03-25 11:18:49.852,-7.186370851913876
2025-03-25 11:18:49.861,10.420289428636151
2025-03-25 11:18:49.861,17.7028876976368
2025-03-25 11:18:49.861,6.947619824223982
2025-03-25 11:18:49.861,-9.9395800539166
2025-03-25 11:18:49.871,-16.35204360525519
2025-03-25 11:18:49.871,-7.86948889602235
2025-03-25 11:18:49.871,6.065091746428761
2025-03-25 11:18:49.871,12.998815118831967
2025-03-25 11:18:49.871,8.324640121052315
2025-03-25 11:18:49.881,-2.1754362133684317
2025-03-25 11:18:49.881,-8.636120062927091
2025-03-25 11:18:49.881,-6.441943081286971
2025-03-25 11:18:49.881,0.11678517080229184
2025-03-25 11:18:49.882,3.5894622611136175
2025-03-25 11:18:49.891,1.9892011318681575
2025-03-25 11:18:49.891,0.09652702723558626
2025-03-25 11:18:49.891,1.932217552478387
2025-03-25 11:18:49.891,4.262743485297739
2025-03-25 11:18:49.891,0.6871927423882862
2025-03-25 11:18:49.899,-7.817892476805115
2025-03-25 11:18:49.899,-10.905656445082485
2025-03-25 11:18:49.900,-1.3939484716993826
2025-03-25 11:18:49.900,12.755895653562789
2025-03-25 11:18:49.909,15.336303744721322
2025-03-25 11:18:49.909,1.7001198896498373
2025-03-25 11:18:49.909,-14.118221413322408
2025-03-25 11:18:49.909,-15.368940077776712
2025-03-25 11:18:49.910,-1.772412159865683
2025-03-25 11:18:49.917,11.367875776692006
2025-03-25 11:18:49.917,11.311739712460883
2025-03-25 11:18:49.918,0.8956965475816832
2025-03-25 11:18:49.918,-7.108431239321605
2025-03-25 11:18:49.918,-5.405898752203371
2025-03-25 11:18:49.927,1.0990551857722557
2025-03-25 11:18:49.927,3.608058973363595
2025-03-25 11:18:49.928,0.5837835016628676
2025-03-25 11:18:49.928,-2.387126152373407
2025-03-25 11:18:49.928,-1.5448287393084854
2025-03-25 11:18:49.939,1.0197324867428144
2025-03-25 11:18:49.939,2.2094250213146873
2025-03-25 11:18:49.939,1.8676829489628137
2025-03-25 11:18:49.939,0.3858661739846788
2025-03-25 11:18:49.939,-2.8623050129419036
2025-03-25 11:18:49.947,-5.7984906540725145
2025-03-25 11:18:49.948,-3.020253082504
2025-03-25 11:18:49.948,6.114637567832442
2025-03-25 11:18:49.948,12.197608367604238
2025-03-25 11:18:49.948,5.470501700247625
2025-03-25 11:18:49.957,-9.72160987295262
2025-03-25 11:18:49.957,-17.079912207313868
2025-03-25 11:18:49.957,-7.28144173560433
2025-03-25 11:18:49.958,10.162875403863126
2025-03-25 11:18:49.965,17.461492119749515
2025-03-25 11:18:49.965,8.139655012346513
2025-03-25 11:18:49.965,-7.342524694981098
2025-03-25 11:18:49.966,-14.101299475460777
2025-03-25 11:18:49.966,-7.568456650375872
2025-03-25 11:18:49.975,4.1972632631449205
2025-03-25 11:18:49.975,9.939911729061206
2025-03-25 11:18:49.976,5.595802777537152
2025-03-25 11:18:49.976,-3.167321172764414
2025-03-25 11:18:49.976,-7.2317209664552085
2025-03-25 11:18:49.985,-3.0417081257114473
2025-03-25 11:18:49.985,4.181732522378352
2025-03-25 11:18:49.986,6.360727498061889
2025-03-25 11:18:49.986,1.2890434808573836
2025-03-25 11:18:49.986,-5.404576264015946
2025-03-25 11:18:49.995,-6.6575077457447644
2025-03-25 11:18:49.995,-1.2036415751734233
2025-03-25 11:18:49.996,5.513628526394662
2025-03-25 11:18:49.996,6.878544150734308
2025-03-25 11:18:49.996,1.7690531037451815
2025-03-25 11:18:50.005,-4.167243550561869
2025-03-25 11:18:50.005,-4.882690075426094
2025-03-25 11:18:50.005,-1.174187005376068
2025-03-25 11:18:50.006,1.0290737224256254
2025-03-25 11:18:50.015,-0.35015649806321925
2025-03-25 11:18:50.015,-0.6858095994376092
2025-03-25 11:18:50.015,3.0774045172309883
2025-03-25 11:18:50.016,6.061301866589218
2025-03-25 11:18:50.016,2.2171354652086794
2025-03-25 11:18:50.025,-5.4581877762908135
2025-03-25 11:18:50.025,-7.729011422711237
2025-03-25 11:18:50.025,-1.9152791420093844
2025-03-25 11:18:50.026,4.274606403339272
2025-03-25 11:18:50.026,3.797000029424754
2025-03-25 11:18:50.035,-0.2679199408119122
2025-03-25 11:18:50.035,-0.6397585377875528
2025-03-25 11:18:50.035,2.628880754963282
2025-03-25 11:18:50.035,2.77628472685009
2025-03-25 11:18:50.036,-2.488143988930675
2025-03-25 11:18:50.045,-6.847898738119805
2025-03-25 11:18:50.045,-4.305157621417059
2025-03-25 11:18:50.045,2.602209188125091
2025-03-25 11:18:50.045,6.747529063440786
2025-03-25 11:18:50.046,5.347921196102046
2025-03-25 11:18:50.055,1.1557071386043178
2025-03-25 11:18:50.055,-3.125764988871772
2025-03-25 11:18:50.055,-6.785004118269125
2025-03-25 11:18:50.055,-7.7104150260583655
2025-03-25 11:18:50.055,-2.4763239876109884
2025-03-25 11:18:50.063,7.457610926884598
2025-03-25 11:18:50.063,13.464637250701314
2025-03-25 11:18:50.064,8.174548992654405
2025-03-25 11:18:50.064,-4.864902489374386
2025-03-25 11:18:50.073,-13.83639372276007
2025-03-25 11:18:50.073,-11.30946570814004
2025-03-25 11:18:50.073,-1.2352378903046026
2025-03-25 11:18:50.073,7.368016942524217
2025-03-25 11:18:50.074,10.162042324927873
2025-03-25 11:18:50.081,8.310953494796038
2025-03-25 11:18:50.081,2.777423659103469
2025-03-25 11:18:50.082,-6.291380752628616
2025-03-25 11:18:50.082,-14.054586891939737
2025-03-25 11:18:50.082,-11.593401423720007
2025-03-25 11:18:50.091,2.8724045617020706
2025-03-25 11:18:50.091,17.085019608436568
2025-03-25 11:18:50.092,15.864111813899667
2025-03-25 11:18:50.092,-0.8283502185061178
2025-03-25 11:18:50.099,-16.305555128362258
2025-03-25 11:18:50.100,-15.373828894932208
2025-03-25 11:18:50.100,-0.5950348603737005
2025-03-25 11:18:50.100,11.93975282472381
2025-03-25 11:18:50.100,10.98066882656579
2025-03-25 11:18:50.109,1.0671239316493633
2025-03-25 11:18:50.109,-5.395609756886469
2025-03-25 11:18:50.109,-3.747892382829739
2025-03-25 11:18:50.110,-0.4595237551421453
2025-03-25 11:18:50.119,-1.410994672552564
2025-03-25 11:18:50.119,-3.2078172166388588
2025-03-25 11:18:50.119,-0.052307141254094476
2025-03-25 11:18:50.119,5.703848442533677
2025-03-25 11:18:50.120,6.316687686720221
2025-03-25 11:18:50.129,0.051889678889362356
2025-03-25 11:18:50.129,-6.263033830006671
2025-03-25 11:18:50.129,-6.090895574499157
2025-03-25 11:18:50.129,-0.015076245938372534
2025-03-25 11:18:50.130,6.297119338969514
2025-03-25 11:18:50.137,7.052318823035306
2025-03-25 11:18:50.137,-0.042831922716636495
2025-03-25 11:18:50.138,-10.311381001631196
2025-03-25 11:18:50.138,-12.708340741710721
2025-03-25 11:18:50.138,-0.29231359034942717
2025-03-25 11:18:50.147,17.924167596481077
2025-03-25 11:18:50.147,21.876650387524567
2025-03-25 11:18:50.148,2.5155967141622337
2025-03-25 11:18:50.148,-23.92939903565643
2025-03-25 11:18:50.157,-29.948766189336766
2025-03-25 11:18:50.157,-6.541410054636323
2025-03-25 11:18:50.157,24.603942270137182
2025-03-25 11:18:50.157,32.32444114618098
2025-03-25 11:18:50.157,9.044200944473703
2025-03-25 11:18:50.165,-20.854548588856087
2025-03-25 11:18:50.165,-27.45166400781864
2025-03-25 11:18:50.165,-7.04730768427292
2025-03-25 11:18:50.166,16.124343971550502
2025-03-25 11:18:50.175,18.264345619210346
2025-03-25 11:18:50.175,1.0336702295852718
2025-03-25 11:18:50.175,-13.374591441542083
2025-03-25 11:18:50.176,-8.863584828436169
2025-03-25 11:18:50.176,6.830053012753634
2025-03-25 11:18:50.183,12.57366959402927
2025-03-25 11:18:50.183,0.19205277131843324
2025-03-25 11:18:50.184,-14.62961523681544
2025-03-25 11:18:50.184,-11.522152368889376
2025-03-25 11:18:50.193,7.93303426004729
2025-03-25 11:18:50.193,20.470786523517866
2025-03-25 11:18:50.193,9.632186744675641
2025-03-25 11:18:50.193,-13.226609671754975
2025-03-25 11:18:50.193,-22.293115485225076
2025-03-25 11:18:50.201,-8.037641848709447
2025-03-25 11:18:50.201,12.836554211259397
2025-03-25 11:18:50.201,18.61781185024721
2025-03-25 11:18:50.202,6.838849399292457
2025-03-25 11:18:50.211,-6.943354378852517
2025-03-25 11:18:50.211,-10.060849179822085
2025-03-25 11:18:50.211,-5.0822941514608715
2025-03-25 11:18:50.212,-1.0406334180438659
2025-03-25 11:18:50.212,0.12878953549538597
2025-03-25 11:18:50.221,2.755426675929101
2025-03-25 11:18:50.221,6.797552146240973
2025-03-25 11:18:50.221,6.141255947008992
2025-03-25 11:18:50.221,-1.1130753479213074
2025-03-25 11:18:50.222,-7.509579869579501
2025-03-25 11:18:50.231,-5.827307035701456
2025-03-25 11:18:50.231,0.7143931888099486
2025-03-25 11:18:50.231,3.5092840141809245
2025-03-25 11:18:50.231,1.0562194237444174
2025-03-25 11:18:50.232,-0.3531676507770992
2025-03-25 11:18:50.241,2.0805058477990745
2025-03-25 11:18:50.241,3.0475075459150482
2025-03-25 11:18:50.241,-1.4501460000871629
2025-03-25 11:18:50.241,-6.083030910589195
2025-03-25 11:18:50.241,-3.187072570249457
2025-03-25 11:18:50.251,5.028851578889348
2025-03-25 11:18:50.251,7.764462485571582
2025-03-25 11:18:50.251,0.02903603610855965
2025-03-25 11:18:50.251,-9.473543734314653
2025-03-25 11:18:50.251,-8.531013185046874
2025-03-25 11:18:50.259,3.0398596808967344
2025-03-25 11:18:50.259,12.560808468459559
2025-03-25 11:18:50.260,9.36703558327589
2025-03-25 11:18:50.260,-3.1164056202750823
2025-03-25 11:18:50.260,-11.905633535352985
2025-03-25 11:18:50.269,-8.968868701875323
2025-03-25 11:18:50.269,1.0659812093849725
2025-03-25 11:18:50.270,7.3586356551592695
2025-03-25 11:18:50.270,5.063913172034978
2025-03-25 11:18:50.270,-0.44573998485714894
2025-03-25 11:18:50.279,-1.4618400058573005
2025-03-25 11:18:50.280,2.0849428625266597
2025-03-25 11:18:50.280,3.024679421041916
2025-03-25 11:18:50.280,-2.7443461044956328
2025-03-25 11:18:50.289,-9.347029103406218
2025-03-25 11:18:50.289,-7.104854784376431
2025-03-25 11:18:50.289,4.712333443385237
2025-03-25 11:18:50.289,14.348421665983404
2025-03-25 11:18:50.290,9.632994890471227
2025-03-25 11:18:50.299,-6.688026302568751
2025-03-25 11:18:50.299,-17.31414978448966
2025-03-25 11:18:50.299,-9.111935336774042
2025-03-25 11:18:50.299,10.274991302205015
2025-03-25 11:18:50.299,19.232054709015184
2025-03-25 11:18:50.307,6.748731565108453
2025-03-25 11:18:50.307,-14.012219650281878
2025-03-25 11:18:50.307,-20.18325835428459
2025-03-25 11:18:50.308,-4.948424661595271
2025-03-25 11:18:50.315,15.445613928040226
2025-03-25 11:18:50.316,20.15430101637172
2025-03-25 11:18:50.316,5.268859634103191
2025-03-25 11:18:50.316,-14.13263827023114
2025-03-25 11:18:50.316,-20.073269700052315
2025-03-25 11:18:50.325,-7.820340866010094
2025-03-25 11:18:50.325,11.328312958886949
2025-03-25 11:18:50.325,20.412112316085278
2025-03-25 11:18:50.326,11.33002818742327
2025-03-25 11:18:50.333,-7.786737207154336
2025-03-25 11:18:50.334,-19.493372726637197
2025-03-25 11:18:50.334,-13.46352351456893
2025-03-25 11:18:50.334,3.466992538887997
2025-03-25 11:18:50.334,14.883352904331971
2025-03-25 11:18:50.343,11.969057393736486
2025-03-25 11:18:50.343,0.9624770238026963
2025-03-25 11:18:50.343,-6.363717136307842
2025-03-25 11:18:50.344,-6.076008045256663
2025-03-25 11:18:50.353,-3.4494490277474545
2025-03-25 11:18:50.353,-3.2200378441644775
2025-03-25 11:18:50.354,-2.980782124836205
2025-03-25 11:18:50.354,1.9840393976797526
2025-03-25 11:18:50.354,9.869201931853802
2025-03-25 11:18:50.361,12.129305982225494
2025-03-25 11:18:50.361,3.2839673631976933
2025-03-25 11:18:50.362,-10.93497879605595
2025-03-25 11:18:50.362,-17.614531696888708
2025-03-25 11:18:50.362,-9.518390574221424
2025-03-25 11:18:50.371,6.863923693696511
2025-03-25 11:18:50.371,17.047847315870207
2025-03-25 11:18:50.371,12.615532678346808
2025-03-25 11:18:50.372,-0.93861793079226
2025-03-25 11:18:50.381,-10.824309136248422
2025-03-25 11:18:50.381,-10.290993779264081
2025-03-25 11:18:50.381,-3.475462659276951
2025-03-25 11:18:50.381,2.2391523015760155
2025-03-25 11:18:50.382,4.618231777345591
2025-03-25 11:18:50.391,5.3651696403446705
2025-03-25 11:18:50.391,4.389378059393692
2025-03-25 11:18:50.391,0.08088853085111408
2025-03-25 11:18:50.391,-5.611493561316637
2025-03-25 11:18:50.391,-7.117111451103881
2025-03-25 11:18:50.401,-1.9284302065937464
2025-03-25 11:18:50.401,5.228414253217599
2025-03-25 11:18:50.401,7.076983307178763
2025-03-25 11:18:50.401,1.9422494387389155
2025-03-25 11:18:50.402,-4.41860775141554
2025-03-25 11:18:50.411,-5.466025055277518
2025-03-25 11:18:50.411,-1.1630923343486097
2025-03-25 11:18:50.411,2.7188195158512145
2025-03-25 11:18:50.411,2.178091405279507
2025-03-25 11:18:50.412,-0.33522206227652024
2025-03-25 11:18:50.419,-0.11026693171059533
2025-03-25 11:18:50.420,2.6764336496286236
2025-03-25 11:18:50.420,2.8570636536781824
2025-03-25 11:18:50.420,-2.2775666429429107
2025-03-25 11:18:50.420,-7.917067210493045
2025-03-25 11:18:50.429,-6.477418503317263
2025-03-25 11:18:50.429,2.8858459148144933
2025-03-25 11:18:50.429,11.674333338849316
2025-03-25 11:18:50.430,10.376628979271876
2025-03-25 11:18:50.439,-1.0777592124719628
2025-03-25 11:18:50.439,-12.388169035871481
2025-03-25 11:18:50.439,-12.877867602293849
2025-03-25 11:18:50.439,-2.0939440525239754
2025-03-25 11:18:50.440,9.929429251821501
2025-03-25 11:18:50.447,12.718800347529497
2025-03-25 11:18:50.447,4.980586105056983
2025-03-25 11:18:50.448,-5.600102453629659
2025-03-25 11:18:50.448,-10.460636597936901
2025-03-25 11:18:50.457,-6.966458307677714
2025-03-25 11:18:50.457,1.1731818054920995
2025-03-25 11:18:50.457,7.6747359986315935
2025-03-25 11:18:50.458,7.988344572004849
2025-03-25 11:18:50.458,2.2601994856768424
2025-03-25 11:18:50.467,-4.804898547241722
2025-03-25 11:18:50.467,-7.742447475725952
2025-03-25 11:18:50.468,-4.6261827017227235
2025-03-25 11:18:50.468,1.9208692610534208
2025-03-25 11:18:50.468,6.850767291245891
2025-03-25 11:18:50.477,5.904215246241371
2025-03-25 11:18:50.477,-0.8212017187916649
2025-03-25 11:18:50.477,-7.226836171818345
2025-03-25 11:18:50.478,-5.849838361445662
2025-03-25 11:18:50.478,3.1520623274299355
2025-03-25 11:18:50.487,9.771532948423959
2025-03-25 11:18:50.487,4.881779335192835
2025-03-25 11:18:50.487,-7.411829786510735
2025-03-25 11:18:50.487,-12.766807130078979
2025-03-25 11:18:50.488,-3.639186173461881
2025-03-25 11:18:50.495,10.501668444867255
2025-03-25 11:18:50.495,13.650879177827475
2025-03-25 11:18:50.496,2.1808969360674704
2025-03-25 11:18:50.496,-11.039421459369722
2025-03-25 11:18:50.505,-11.929295813098811
2025-03-25 11:18:50.505,-0.839918861295635
2025-03-25 11:18:50.506,9.476642887345902
2025-03-25 11:18:50.506,9.184933504840476
2025-03-25 11:18:50.506,0.8703907805377384
2025-03-25 11:18:50.515,-6.149707560338892
2025-03-25 11:18:50.515,-6.85356588218455
2025-03-25 11:18:50.516,-3.219304744687675
2025-03-25 11:18:50.516,1.2765965847076528
2025-03-25 11:18:50.516,5.160056484602943
2025-03-25 11:18:50.525,6.868364361410964
2025-03-25 11:18:50.525,3.7995347412156284
2025-03-25 11:18:50.525,-3.6475646586063344
2025-03-25 11:18:50.525,-9.497029261644046
2025-03-25 11:18:50.526,-7.337340718883548
2025-03-25 11:18:50.535,1.9361969286463268
2025-03-25 11:18:50.535,9.938133823238857
2025-03-25 11:18:50.535,9.09156463596396
2025-03-25 11:18:50.535,0.031584452595292634
2025-03-25 11:18:50.536,-9.221754012758527
2025-03-25 11:18:50.543,-10.333506331121688
2025-03-25 11:18:50.544,-1.68100589536711
2025-03-25 11:18:50.544,9.364151525742093
2025-03-25 11:18:50.544,11.686659315593575
2025-03-25 11:18:50.544,1.5083352049557355
2025-03-25 11:18:50.553,-11.216956960975516
2025-03-25 11:18:50.553,-11.84592869004659
2025-03-25 11:18:50.553,1.3780768929030542
2025-03-25 11:18:50.554,13.304186024081675
2025-03-25 11:18:50.563,9.525635921406996
2025-03-25 11:18:50.563,-5.438659819991844
2025-03-25 11:18:50.563,-13.472454571077513
2025-03-25 11:18:50.563,-5.402083059883651
2025-03-25 11:18:50.564,8.131991055593543
2025-03-25 11:18:50.571,10.829434977349164
2025-03-25 11:18:50.571,1.0177972517360194
2025-03-25 11:18:50.572,-7.784961093835891
2025-03-25 11:18:50.572,-5.482072403416769
2025-03-25 11:18:50.572,2.261634018197329
2025-03-25 11:18:50.581,3.797145577510957
2025-03-25 11:18:50.581,-1.612374388080125
2025-03-25 11:18:50.582,-3.792074552532644
2025-03-25 11:18:50.582,2.4329456489887185
2025-03-25 11:18:50.582,8.802710879088378
2025-03-25 11:18:50.591,4.635669161711996
2025-03-25 11:18:50.591,-7.865197659114484
2025-03-25 11:18:50.592,-14.585091314377783
2025-03-25 11:18:50.592,-6.111636931596757
2025-03-25 11:18:50.601,10.152046709890078
2025-03-25 11:18:50.601,17.33631415535833
2025-03-25 11:18:50.601,7.860469034102869
2025-03-25 11:18:50.601,-8.295360659323345
2025-03-25 11:18:50.601,-15.31278547280534
2025-03-25 11:18:50.611,-8.636408652032486
2025-03-25 11:18:50.611,2.6263347414927134
2025-03-25 11:18:50.611,8.315226883571068
2025-03-25 11:18:50.612,7.262544651519362
2025-03-25 11:18:50.612,4.097247906911208
2025-03-25 11:18:50.619,1.081269515280739
2025-03-25 11:18:50.620,-2.912188231518937
2025-03-25 11:18:50.620,-7.380451928127592
2025-03-25 11:18:50.620,-8.591564319039934
2025-03-25 11:18:50.620,-3.8861681353992577
2025-03-25 11:18:50.629,4.553285690389368
2025-03-25 11:18:50.629,11.061561291304315
2025-03-25 11:18:50.630,10.711430960618227
2025-03-25 11:18:50.630,2.6707885137758343
2025-03-25 11:18:50.639,-8.489210163228881
2025-03-25 11:18:50.639,-14.529682559817624
2025-03-25 11:18:50.639,-9.502512195014525
2025-03-25 11:18:50.639,3.5867011189561517
2025-03-25 11:18:50.640,13.57080911364407
2025-03-25 11:18:50.649,11.608332080588285
2025-03-25 11:18:50.649,0.678404339056559
2025-03-25 11:18:50.649,-8.05542916152849
2025-03-25 11:18:50.649,-8.108529839803637
2025-03-25 11:18:50.650,-3.3012502138943627
2025-03-25 11:18:50.659,0.06618062981597587
2025-03-25 11:18:50.659,1.7248041482065277
2025-03-25 11:18:50.659,4.5449943348280835
2025-03-25 11:18:50.660,6.890442916158079
2025-03-25 11:18:50.660,3.9145290697129806
2025-03-25 11:18:50.669,-3.885064237615215
2025-03-25 11:18:50.669,-9.110412698648254
2025-03-25 11:18:50.669,-6.527650895659752
2025-03-25 11:18:50.670,0.4142808374249129
2025-03-25 11:18:50.670,4.956071256886658
2025-03-25 11:18:50.679,5.530003907294963
2025-03-25 11:18:50.679,4.9215107988794236
2025-03-25 11:18:50.679,3.3565463800894757
2025-03-25 11:18:50.679,-1.8593975571442298
2025-03-25 11:18:50.680,-9.248869899779464
2025-03-25 11:18:50.687,-11.140852827985421
2025-03-25 11:18:50.687,-2.5116208742709003
2025-03-25 11:18:50.688,10.503040790142958
2025-03-25 11:18:50.688,15.172614443913304
2025-03-25 11:18:50.697,5.870041942541278
2025-03-25 11:18:50.697,-9.13051681972196
2025-03-25 11:18:50.697,-15.74840039018704
2025-03-25 11:18:50.697,-8.026379237322159
2025-03-25 11:18:50.698,6.642126260286047
2025-03-25 11:18:50.705,15.087152812928982
2025-03-25 11:18:50.705,10.171405993694275
2025-03-25 11:18:50.706,-3.7402817859615967
2025-03-25 11:18:50.706,-14.833363080906379
2025-03-25 11:18:50.715,-13.272754166730918
2025-03-25 11:18:50.715,0.614999122018966
2025-03-25 11:18:50.715,15.333127945582953
2025-03-25 11:18:50.716,16.89592923340602
2025-03-25 11:18:50.716,2.0497090145725436
2025-03-25 11:18:50.723,-16.32208780335857
2025-03-25 11:18:50.724,-19.934751231080647
2025-03-25 11:18:50.724,-3.7957341084886727
2025-03-25 11:18:50.724,17.02378300350804
2025-03-25 11:18:50.733,21.886027747705935
2025-03-25 11:18:50.733,5.794064264594599
2025-03-25 11:18:50.733,-15.708973332353922
2025-03-25 11:18:50.734,-22.62547326038545
2025-03-25 11:18:50.734,-9.596262624830755
2025-03-25 11:18:50.741,10.792076580527421
2025-03-25 11:18:50.741,21.06172411281067
2025-03-25 11:18:50.742,14.057064803685133
2025-03-25 11:18:50.742,-2.7521990114830546
2025-03-25 11:18:50.751,-15.46428770720602
2025-03-25 11:18:50.751,-15.637834717773282
2025-03-25 11:18:50.751,-5.509644341169007
2025-03-25 11:18:50.752,6.282645789965311
2025-03-25 11:18:50.752,12.395970722193741
2025-03-25 11:18:50.759,10.608399938521082
2025-03-25 11:18:50.759,2.8616359841537227
2025-03-25 11:18:50.760,-6.495074951554525
2025-03-25 11:18:50.760,-11.664985044004126
2025-03-25 11:18:50.769,-8.199964275668162
2025-03-25 11:18:50.769,2.1451118297492604
2025-03-25 11:18:50.770,10.581054104828452
2025-03-25 11:18:50.770,8.922133947331233
2025-03-25 11:18:50.770,-1.0950332391513242
2025-03-25 11:18:50.779,-8.88964617911624
2025-03-25 11:18:50.779,-6.905116887892683
2025-03-25 11:18:50.780,1.1442676459781767
2025-03-25 11:18:50.780,6.057181881950694
2025-03-25 11:18:50.780,4.474438204758056
2025-03-25 11:18:50.789,0.5967103694074885
2025-03-25 11:18:50.789,-1.6787520740938526
2025-03-25 11:18:50.789,-2.938726960559581
2025-03-25 11:18:50.790,-3.976355225817324
2025-03-25 11:18:50.790,-2.675979711682896
2025-03-25 11:18:50.799,1.9311459632328298
2025-03-25 11:18:50.799,6.070575748978328
2025-03-25 11:18:50.799,5.238370690786019
2025-03-25 11:18:50.799,0.057080301327565086
2025-03-25 11:18:50.800,-4.704073772384043
2025-03-25 11:18:50.809,-5.742712280285575
2025-03-25 11:18:50.809,-3.413096238521278
2025-03-25 11:18:50.809,0.5380958089855494
2025-03-25 11:18:50.810,4.471157484238009
2025-03-25 11:18:50.810,6.231421974134404
2025-03-25 11:18:50.819,3.9166348510618825
2025-03-25 11:18:50.819,-1.547064186515412
2025-03-25 11:18:50.819,-6.166976677850792
2025-03-25 11:18:50.819,-6.387882480350785
2025-03-25 11:18:50.820,-2.260788389068144
2025-03-25 11:18:50.829,3.0824925752566736
2025-03-25 11:18:50.829,6.146200820224331
2025-03-25 11:18:50.829,5.169910821332049
2025-03-25 11:18:50.829,0.9273729104383152
2025-03-25 11:18:50.830,-3.722071041715212
2025-03-25 11:18:50.839,-5.688968804712736
2025-03-25 11:18:50.839,-3.809449074782405
2025-03-25 11:18:50.839,0.47419685698204805
2025-03-25 11:18:50.840,4.1271776666987465
2025-03-25 11:18:50.840,4.428834097292941
2025-03-25 11:18:50.849,1.2147047057396119
2025-03-25 11:18:50.849,-2.2507530170325167
2025-03-25 11:18:50.849,-2.173329302902851
2025-03-25 11:18:50.849,0.9097030479765709
2025-03-25 11:18:50.850,1.8961348585526285
2025-03-25 11:18:50.857,-2.173179296374995
2025-03-25 11:18:50.858,-6.60808430305433
2025-03-25 11:18:50.858,-3.8290627987873753
2025-03-25 11:18:50.858,5.931874877486745
2025-03-25 11:18:50.858,12.45476332300189
2025-03-25 11:18:50.867,6.890343688473667
2025-03-25 11:18:50.867,-6.612138133052329
2025-03-25 11:18:50.868,-14.300743283312213
2025-03-25 11:18:50.868,-8.225385723586113
2025-03-25 11:18:50.877,4.667496045472809
2025-03-25 11:18:50.877,10.745981131889629
2025-03-25 11:18:50.877,5.3225794971431135
2025-03-25 11:18:50.878,-3.0131232698138453
2025-03-25 11:18:50.878,-4.063013248892132
2025-03-25 11:18:50.887,1.3403833528167501
2025-03-25 11:18:50.887,3.582233131574679
2025-03-25 11:18:50.887,-2.057645377516114
2025-03-25 11:18:50.888,-8.457234939867778
2025-03-25 11:18:50.888,-5.663710409183578
2025-03-25 11:18:50.895,5.6184472923596145
2025-03-25 11:18:50.896,13.318480131384806
2025-03-25 11:18:50.896,7.538361153564672
2025-03-25 11:18:50.896,-7.313962352434202
2025-03-25 11:18:50.896,-15.97312985584618
2025-03-25 11:18:50.905,-8.348001768303662
2025-03-25 11:18:50.905,8.756700537942846
2025-03-25 11:18:50.906,17.571291703783587
2025-03-25 11:18:50.906,8.116379568669519
2025-03-25 11:18:50.915,-10.126504599508685
2025-03-25 11:18:50.915,-17.810076015662993
2025-03-25 11:18:50.915,-7.094268657894784
2025-03-25 11:18:50.915,9.799231692420314
2025-03-25 11:18:50.916,15.18091917584771
2025-03-25 11:18:50.925,5.730874838869856
2025-03-25 11:18:50.925,-6.255900506762638
2025-03-25 11:18:50.925,-9.375511437389127
2025-03-25 11:18:50.925,-4.713054386189893
2025-03-25 11:18:50.926,0.1483350332380472
2025-03-25 11:18:50.935,2.3507703330107326
2025-03-25 11:18:50.935,4.116021575720914
2025-03-25 11:18:50.935,5.506951030738425
2025-03-25 11:18:50.935,3.3337999570683703
2025-03-25 11:18:50.936,-2.6307289912700087
2025-03-25 11:18:50.945,-7.4146991866724195
2025-03-25 11:18:50.945,-6.554209280213218
2025-03-25 11:18:50.945,-1.0217601527505928
2025-03-25 11:18:50.945,4.77434495269096
2025-03-25 11:18:50.946,7.345678455975299
2025-03-25 11:18:50.953,5.512799207557983
2025-03-25 11:18:50.953,0.20398713409511326
2025-03-25 11:18:50.954,-5.419395327633474
2025-03-25 11:18:50.954,-7.462561574445921
2025-03-25 11:18:50.954,-4.604235008242821
2025-03-25 11:18:50.965,0.7945243926388565
2025-03-25 11:18:50.965,5.263700058609109
2025-03-25 11:18:50.965,6.713477014337427
2025-03-25 11:18:50.965,4.4744206304652625
2025-03-25 11:18:50.966,-0.7757100644160589
2025-03-25 11:18:50.973,-6.050896054687338
2025-03-25 11:18:50.974,-7.167654635878013
2025-03-25 11:18:50.974,-2.8997629286020468
2025-03-25 11:18:50.974,2.986244763319673
2025-03-25 11:18:50.974,5.674909416071238
2025-03-25 11:18:50.983,4.373269528698378
2025-03-25 11:18:50.983,1.4935164744214144
2025-03-25 11:18:50.984,-1.7255471274032266
2025-03-25 11:18:50.984,-5.095801746793694
2025-03-25 11:18:50.993,-5.775381160377342
2025-03-25 11:18:50.993,-0.4029924168555255
2025-03-25 11:18:50.993,7.382730136067075
2025-03-25 11:18:50.994,7.80720035511129
2025-03-25 11:18:50.994,-2.0911736986822667
2025-03-25 11:18:51.003,-11.314348972637584
2025-03-25 11:18:51.003,-7.254270266837703
2025-03-25 11:18:51.003,7.124143479771306
2025-03-25 11:18:51.004,15.235350690101665
2025-03-25 11:18:51.004,6.603698820229031
2025-03-25 11:18:51.011,-10.38885649475922
2025-03-25 11:18:51.012,-17.774494950488116
2025-03-25 11:18:51.012,-7.614376290280095
2025-03-25 11:18:51.012,9.902529735042373
2025-03-25 11:18:51.021,17.525595339667543
2025-03-25 11:18:51.021,8.655789419918833
2025-03-25 11:18:51.021,-6.725079123839822
2025-03-25 11:18:51.021,-13.408324915479923
2025-03-25 11:18:51.022,-6.837861156074295
2025-03-25 11:18:51.031,3.579627386569034
2025-03-25 11:18:51.031,6.422440876067171
2025-03-25 11:18:51.031,1.1103609742656153
2025-03-25 11:18:51.032,-3.0197125934113926
2025-03-25 11:18:51.032,0.4961866777265922
2025-03-25 11:18:51.041,6.650350752157615
2025-03-25 11:18:51.041,5.417423822892489
2025-03-25 11:18:51.041,-4.6006759374146124
2025-03-25 11:18:51.042,-12.766545519401907
2025-03-25 11:18:51.042,-8.551467368258784
2025-03-25 11:18:51.051,5.108709608941739
2025-03-25 11:18:51.051,14.13293229760405
2025-03-25 11:18:51.051,9.32506941059116
2025-03-25 11:18:51.051,-3.1754266305281718
2025-03-25 11:18:51.052,-9.859383981554386
2025-03-25 11:18:51.061,-6.047626338158209
2025-03-25 11:18:51.061,0.2986628184051836
2025-03-25 11:18:51.061,1.2688446352974512
2025-03-25 11:18:51.062,-0.17702851519725998
2025-03-25 11:18:51.062,3.115750481426694
2025-03-25 11:18:51.069,8.673391868174619
2025-03-25 11:18:51.069,5.878037034448442
2025-03-25 11:18:51.070,-7.063527861235474
2025-03-25 11:18:51.070,-16.099818832377174
2025-03-25 11:18:51.079,-8.042392396478347
2025-03-25 11:18:51.079,10.315668115091222
2025-03-25 11:18:51.079,18.341791938531504
2025-03-25 11:18:51.079,6.625281971057047
2025-03-25 11:18:51.080,-11.443824160024166
2025-03-25 11:18:51.087,-15.899676265584352
2025-03-25 11:18:51.088,-3.2052050920393267
2025-03-25 11:18:51.088,11.124651521879063
2025-03-25 11:18:51.088,11.277325547835959
2025-03-25 11:18:51.097,-1.3768060684508412
2025-03-25 11:18:51.097,-11.104994674385418
2025-03-25 11:18:51.097,-6.563444491975105
2025-03-25 11:18:51.098,6.308545262049403
2025-03-25 11:18:51.098,11.837803071283487
2025-03-25 11:18:51.105,3.167531043621568
2025-03-25 11:18:51.105,-10.103438586476393
2025-03-25 11:18:51.106,-13.119105042211924
2025-03-25 11:18:51.106,-1.9895644269778767
2025-03-25 11:18:51.115,12.280743283198303
2025-03-25 11:18:51.115,14.936749652613685
2025-03-25 11:18:51.115,2.3698261507454115
2025-03-25 11:18:51.115,-13.387033885130036
2025-03-25 11:18:51.116,-16.09834350690742
2025-03-25 11:18:51.123,-2.601774047772537
2025-03-25 11:18:51.124,12.993913337393979
2025-03-25 11:18:51.124,14.612700522038727
2025-03-25 11:18:51.124,1.9834581553112236
2025-03-25 11:18:51.133,-10.242662951510594
2025-03-25 11:18:51.133,-10.136942966329752
2025-03-25 11:18:51.134,-0.8353820787809841
2025-03-25 11:18:51.134,5.852038542248291
2025-03-25 11:18:51.134,4.2015962365857185
2025-03-25 11:18:51.143,-0.6406807368521695
2025-03-25 11:18:51.143,-1.5263758631437567
2025-03-25 11:18:51.143,1.1867765984931458
2025-03-25 11:18:51.144,1.6229091024338875
2025-03-25 11:18:51.144,-1.8949379706935425
2025-03-25 11:18:51.153,-3.7948432963332546
2025-03-25 11:18:51.153,0.022273705125096854
2025-03-25 11:18:51.153,4.467256220977519
2025-03-25 11:18:51.153,1.7516558168195553
2025-03-25 11:18:51.154,-5.651657316814297
2025-03-25 11:18:51.162,-5.989153489634518
2025-03-25 11:18:51.162,4.679547161390966
2025-03-25 11:18:51.162,13.286377220353485
2025-03-25 11:18:51.162,5.519932618649209
2025-03-25 11:18:51.162,-12.406036823877459
2025-03-25 11:18:51.171,-18.283999873582395
2025-03-25 11:18:51.171,-2.599217886709611
2025-03-25 11:18:51.172,17.063374302633086
2025-03-25 11:18:51.172,17.478240314300944
2025-03-25 11:18:51.179,-0.877419366725807
2025-03-25 11:18:51.180,-15.833857359183034
2025-03-25 11:18:51.180,-12.367953628342448
2025-03-25 11:18:51.180,1.4519069584150663
2025-03-25 11:18:51.180,9.229721058148591
2025-03-25 11:18:51.189,6.877216524094626
2025-03-25 11:18:51.190,2.1010094800509287
2025-03-25 11:18:51.190,-0.16756859160673807
2025-03-25 11:18:51.190,-2.6238915417773545
2025-03-25 11:18:51.199,-6.856452888018401
2025-03-25 11:18:51.199,-7.979993558017257
2025-03-25 11:18:51.199,-1.5611705809573375
2025-03-25 11:18:51.200,8.323202021474573
2025-03-25 11:18:51.200,12.33392547935188
2025-03-25 11:18:51.209,6.251005992591142
2025-03-25 11:18:51.209,-4.658353527057981
2025-03-25 11:18:51.209,-11.409736104408333
2025-03-25 11:18:51.209,-9.511697532631638
2025-03-25 11:18:51.210,-1.6107850020712986
2025-03-25 11:18:51.219,6.025173332610165
2025-03-25 11:18:51.219,8.748107984222617
2025-03-25 11:18:51.219,6.17889420644893
2025-03-25 11:18:51.220,0.995767983431865
2025-03-25 11:18:51.220,-3.8997404708920897
2025-03-25 11:18:51.229,-6.71074895696435
2025-03-25 11:18:51.229,-6.297692095727085
2025-03-25 11:18:51.229,-2.2650762638180106
2025-03-25 11:18:51.229,3.737440109441984
2025-03-25 11:18:51.230,7.870697537951177
2025-03-25 11:18:51.237,6.747805346734658
2025-03-25 11:18:51.238,0.7046818302748126
2025-03-25 11:18:51.238,-5.9290579389536795
2025-03-25 11:18:51.238,-8.25411141684939
2025-03-25 11:18:51.238,-4.725261891443952
2025-03-25 11:18:51.249,2.0215363936898627
2025-03-25 11:18:51.249,7.489357987765993
2025-03-25 11:18:51.249,7.957924500743415
2025-03-25 11:18:51.249,2.2280837743158006
2025-03-25 11:18:51.250,-6.586024458181081
2025-03-25 11:18:51.257,-11.087836311742945
2025-03-25 11:18:51.257,-5.376715976558245
2025-03-25 11:18:51.258,6.899044114942824
2025-03-25 11:18:51.258,13.55175167682954
2025-03-25 11:18:51.267,6.724618953134985
2025-03-25 11:18:51.267,-7.022123584694491
2025-03-25 11:18:51.268,-13.493373639556236
2025-03-25 11:18:51.268,-6.935395087010999
2025-03-25 11:18:51.268,4.680766077128147
2025-03-25 11:18:51.277,10.286724348224794
2025-03-25 11:18:51.277,7.058355346801561
2025-03-25 11:18:51.277,-0.10909877892567482
2025-03-25 11:18:51.277,-5.741704740249039
2025-03-25 11:18:51.278,-7.0664019985979145
2025-03-25 11:18:51.287,-3.546977618805496
2025-03-25 11:18:51.287,2.3545615230736443
2025-03-25 11:18:51.287,5.460965673312662
2025-03-25 11:18:51.287,3.105505848207179
2025-03-25 11:18:51.288,-0.7328092080180004
2025-03-25 11:18:51.295,-0.6431469476089804
2025-03-25 11:18:51.296,1.6477811727033609
2025-03-25 11:18:51.296,-0.4995783782230699
2025-03-25 11:18:51.296,-6.912960723083421
2025-03-25 11:18:51.305,-7.85131704912899
2025-03-25 11:18:51.305,2.357825493663107
2025-03-25 11:18:51.305,13.985652828969934
2025-03-25 11:18:51.306,11.916848039447885
2025-03-25 11:18:51.306,-3.993183741202192
2025-03-25 11:18:51.315,-16.454209264319605
2025-03-25 11:18:51.315,-11.48750497483091
2025-03-25 11:18:51.315,4.292325689315126
2025-03-25 11:18:51.315,12.48505398819251
2025-03-25 11:18:51.316,5.885480842388695
2025-03-25 11:18:51.323,-4.1844304142773785
2025-03-25 11:18:51.324,-4.366285082997043
2025-03-25 11:18:51.324,3.2697184893868623
2025-03-25 11:18:51.324,5.471440456306817
2025-03-25 11:18:51.324,-3.0306511910270015
2025-03-25 11:18:51.333,-11.58878699686881
2025-03-25 11:18:51.333,-7.596530638385143
2025-03-25 11:18:51.334,6.217076044950126
2025-03-25 11:18:51.334,14.264244089933849
2025-03-25 11:18:51.343,7.49314371535967
2025-03-25 11:18:51.343,-5.509072849309324
2025-03-25 11:18:51.343,-9.974708238393838
2025-03-25 11:18:51.344,-3.342449426102988
2025-03-25 11:18:51.344,3.5581216057549936
2025-03-25 11:18:51.353,2.3709549697431
2025-03-25 11:18:51.353,-2.6440393689273702
2025-03-25 11:18:51.353,-2.699118421237727
2025-03-25 11:18:51.354,2.775877791408373
2025-03-25 11:18:51.354,6.355644947149242
2025-03-25 11:18:51.363,3.275235946209204
2025-03-25 11:18:51.363,-2.923960570824756
2025-03-25 11:18:51.363,-5.693843590168092
2025-03-25 11:18:51.363,-3.245571293018455
2025-03-25 11:18:51.364,0.5630715524967869
2025-03-25 11:18:51.373,1.7909571520070116
2025-03-25 11:18:51.373,0.845700213634628
2025-03-25 11:18:51.374,0.693487771536888
2025-03-25 11:18:51.374,2.0415398192826397
2025-03-25 11:18:51.374,2.4085419693418375
2025-03-25 11:18:51.383,0.1130346667024898
2025-03-25 11:18:51.383,-2.927143681828948
2025-03-25 11:18:51.383,-3.5906474114910956
2025-03-25 11:18:51.384,-1.441295498729708
2025-03-25 11:18:51.384,1.1602832358544917
2025-03-25 11:18:51.393,2.123925543257098
2025-03-25 11:18:51.393,1.512028038183981
2025-03-25 11:18:51.393,0.6136680033706888
2025-03-25 11:18:51.394,0.22664764481196886
2025-03-25 11:18:51.394,0.04180993377791116
2025-03-25 11:18:51.403,-0.6959796680794501
2025-03-25 11:18:51.403,-1.9249757519994983
2025-03-25 11:18:51.403,-2.2627379119793103
2025-03-25 11:18:51.403,-0.4565703048359574
2025-03-25 11:18:51.404,2.53712405222265
2025-03-25 11:18:51.411,3.8951460878990525
2025-03-25 11:18:51.411,1.9063787884860717
2025-03-25 11:18:51.412,-1.98462146658774
2025-03-25 11:18:51.412,-4.5034193877288695
2025-03-25 11:18:51.412,-3.499573111819991
2025-03-25 11:18:51.423,0.4261591204310322
2025-03-25 11:18:51.423,4.44370879239087
2025-03-25 11:18:51.423,5.355219141315932
2025-03-25 11:18:51.423,1.854983423209351
2025-03-25 11:18:51.424,-3.965223934622359
2025-03-25 11:18:51.433,-7.363334993074994
2025-03-25 11:18:51.433,-4.501546511558958
2025-03-25 11:18:51.433,3.3217607378520135
2025-03-25 11:18:51.433,9.243386929626924
2025-03-25 11:18:51.434,6.671908529448024
2025-03-25 11:18:51.441,-3.15190965740545
2025-03-25 11:18:51.442,-10.753882002222909
2025-03-25 11:18:51.442,-7.689441796407078
2025-03-25 11:18:51.442,3.772543001787777
2025-03-25 11:18:51.451,11.966418255534302
2025-03-25 11:18:51.451,7.867478448582316
2025-03-25 11:18:51.451,-4.816299373599676
2025-03-25 11:18:51.452,-12.890980479558749
2025-03-25 11:18:51.452,-7.5926860495776465
2025-03-25 11:18:51.459,5.638049486684636
2025-03-25 11:18:51.460,12.780194337342197
2025-03-25 11:18:51.460,6.576776887447835
2025-03-25 11:18:51.460,-5.670311001737139
2025-03-25 11:18:51.460,-10.762523179798148
2025-03-25 11:18:51.469,-4.421783686863963
2025-03-25 11:18:51.470,4.915269111903618
2025-03-25 11:18:51.470,6.925274361561928
2025-03-25 11:18:51.470,1.2425990716062199
2025-03-25 11:18:51.470,-3.65509823287365
2025-03-25 11:18:51.479,-2.1103388088585326
2025-03-25 11:18:51.480,1.9379964571312132
2025-03-25 11:18:51.480,1.6114666470871448
2025-03-25 11:18:51.480,-2.6277436255653384
2025-03-25 11:18:51.489,-3.779121358002433
2025-03-25 11:18:51.490,1.1334221132999127
2025-03-25 11:18:51.490,6.149060818147578
2025-03-25 11:18:51.490,4.1972844359038595
2025-03-25 11:18:51.490,-3.262100599873715
2025-03-25 11:18:51.499,-7.66675073398878
2025-03-25 11:18:51.499,-3.730274937030121
2025-03-25 11:18:51.499,4.117324980974386
2025-03-25 11:18:51.500,6.792695201129444
2025-03-25 11:18:51.500,1.3991351077062706
2025-03-25 11:18:51.509,-4.864995321983988
2025-03-25 11:18:51.509,-3.4351314548314766
2025-03-25 11:18:51.509,3.990390981959602
2025-03-25 11:18:51.510,6.514398112982121
2025-03-25 11:18:51.510,-1.4740596848072056
2025-03-25 11:18:51.519,-10.899346471198449
2025-03-25 11:18:51.519,-8.2078319766786
2025-03-25 11:18:51.519,6.115130562283744
2025-03-25 11:18:51.520,15.66134251751068
2025-03-25 11:18:51.520,7.902289543285718
2025-03-25 11:18:51.529,-8.89781142080649
2025-03-25 11:18:51.529,-15.033838099245475
2025-03-25 11:18:51.529,-4.3010811146613595
2025-03-25 11:18:51.529,8.48590703953751
2025-03-25 11:18:51.530,7.945577290495998
2025-03-25 11:18:51.537,-1.6198807689603658
2025-03-25 11:18:51.538,-4.306969136263988
2025-03-25 11:18:51.538,3.305243815278741
2025-03-25 11:18:51.538,7.313289805769667
2025-03-25 11:18:51.538,-2.080105537746771
2025-03-25 11:18:51.547,-14.133047367878076
2025-03-25 11:18:51.548,-10.668992730492805
2025-03-25 11:18:51.548,8.224534866718411
2025-03-25 11:18:51.548,21.069039516300595
2025-03-25 11:18:51.555,10.58675293319283
2025-03-25 11:18:51.556,-13.382181696410589
2025-03-25 11:18:51.556,-23.333403197333563
2025-03-25 11:18:51.556,-6.552400959299838
2025-03-25 11:18:51.563,18.17028156350289
2025-03-25 11:18:51.564,21.51140798208129
2025-03-25 11:18:51.564,-1.0314159720302292
2025-03-25 11:18:51.564,-22.4153218751554
2025-03-25 11:18:51.564,-16.196745670154986
2025-03-25 11:18:51.573,10.507733305107323
2025-03-25 11:18:51.574,24.728281794370048
2025-03-25 11:18:51.574,8.165013885361995
2025-03-25 11:18:51.574,-19.43779665228514
2025-03-25 11:18:51.583,-24.095568020736327
2025-03-25 11:18:51.583,0.48735919146757745
2025-03-25 11:18:51.583,25.180383399266603
2025-03-25 11:18:51.583,21.100740830507704
2025-03-25 11:18:51.584,-6.27880034844434
2025-03-25 11:18:51.591,-25.59937827534785
2025-03-25 11:18:51.592,-17.194731941514352
2025-03-25 11:18:51.592,6.920098516844543
2025-03-25 11:18:51.592,20.66492456554872
2025-03-25 11:18:51.601,13.160309592544671
2025-03-25 11:18:51.601,-3.8986672098356188
2025-03-25 11:18:51.601,-13.070276321743371
2025-03-25 11:18:51.602,-8.922871555548632
2025-03-25 11:18:51.602,0.7470887207714183
2025-03-25 11:18:51.611,6.247731986379303
2025-03-25 11:18:51.611,5.083402721348655
2025-03-25 11:18:51.611,0.9600508840332145
2025-03-25 11:18:51.611,-2.3622558411052252
2025-03-25 11:18:51.612,-3.64984672040217
2025-03-25 11:18:51.621,-2.2962490518528
2025-03-25 11:18:51.621,1.9509426776105874
2025-03-25 11:18:51.621,6.107582394236255
2025-03-25 11:18:51.622,4.553743763569547
2025-03-25 11:18:51.622,-3.8920675762738277
2025-03-25 11:18:51.629,-11.299725207625624
2025-03-25 11:18:51.630,-7.70467985247176
2025-03-25 11:18:51.630,6.016016546718919
2025-03-25 11:18:51.630,16.072260878946466
2025-03-25 11:18:51.639,10.185063233263012
2025-03-25 11:18:51.639,-6.960317090391971
2025-03-25 11:18:51.640,-17.11376455439377
2025-03-25 11:18:51.640,-9.262776431106667
2025-03-25 11:18:51.640,6.808912231947094
2025-03-25 11:18:51.649,12.4663461674543
2025-03-25 11:18:51.649,3.5081967650820998
2025-03-25 11:18:51.649,-5.824894640963551
2025-03-25 11:18:51.650,-3.3938628613318733
2025-03-25 11:18:51.650,4.615620042892581
2025-03-25 11:18:51.657,4.177592299467043
2025-03-25 11:18:51.658,-5.5263192808270745
2025-03-25 11:18:51.658,-10.833161319502599
2025-03-25 11:18:51.658,-2.8845350860070638
2025-03-25 11:18:51.667,10.11111802141912
2025-03-25 11:18:51.667,13.303030408212575
2025-03-25 11:18:51.667,3.050261692918787
2025-03-25 11:18:51.667,-9.861275792110721
2025-03-25 11:18:51.667,-12.863262204617364
2025-03-25 11:18:51.677,-4.081589727143227
2025-03-25 11:18:51.677,7.257071576793084
2025-03-25 11:18:51.677,10.530168344739657
2025-03-25 11:18:51.678,3.738330587761599
2025-03-25 11:18:51.678,-5.0884672669051625
2025-03-25 11:18:51.685,-6.689206352996379
2025-03-25 11:18:51.686,-0.7061659405690071
2025-03-25 11:18:51.686,4.591716105648555
2025-03-25 11:18:51.686,2.780759199311031
2025-03-25 11:18:51.686,-3.3283820200871075
2025-03-25 11:18:51.696,-5.986094257582435
2025-03-25 11:18:51.696,-1.6383199999167504
2025-03-25 11:18:51.696,5.850380268781399
2025-03-25 11:18:51.696,9.212471818448588
2025-03-25 11:18:51.696,4.0686280610093855
2025-03-25 11:18:51.705,-6.490061616513665
2025-03-25 11:18:51.705,-12.793670490665523
2025-03-25 11:18:51.706,-7.200067602133855
2025-03-25 11:18:51.706,6.293685538634101
2025-03-25 11:18:51.715,14.061970123052351
2025-03-25 11:18:51.715,7.6142380891254
2025-03-25 11:18:51.715,-5.78033894701746
2025-03-25 11:18:51.716,-11.313605097912296
2025-03-25 11:18:51.716,-4.464556719922174
2025-03-25 11:18:51.725,4.56318848567742
2025-03-25 11:18:51.725,5.182783787969851
2025-03-25 11:18:51.725,-0.4782180721214596
2025-03-25 11:18:51.726,-2.736204870762862
2025-03-25 11:18:51.726,1.4259789265010043
2025-03-25 11:18:51.733,5.128248832630371
2025-03-25 11:18:51.733,1.898913937967589
2025-03-25 11:18:51.734,-5.589368185160208
2025-03-25 11:18:51.734,-8.714368055981256
2025-03-25 11:18:51.734,-2.9335918684857343
2025-03-25 11:18:51.743,6.751954514394849
2025-03-25 11:18:51.744,10.579415066106073
2025-03-25 11:18:51.744,4.356341140375011
2025-03-25 11:18:51.744,-5.755693044746281
2025-03-25 11:18:51.753,-9.834070059028276
2025-03-25 11:18:51.753,-4.749896455763444
2025-03-25 11:18:51.754,3.4542789659221653
2025-03-25 11:18:51.754,6.983145769509588
2025-03-25 11:18:51.754,3.9598878839827387
2025-03-25 11:18:51.763,-1.2530935337948588
2025-03-25 11:18:51.763,-3.4560402770117875
2025-03-25 11:18:51.764,-1.632722333500123
2025-03-25 11:18:51.764,0.733197672552772
2025-03-25 11:18:51.764,0.17757105393249914
2025-03-25 11:18:51.773,-2.164800955183415
2025-03-25 11:18:51.773,-1.9770018375665066
2025-03-25 11:18:51.774,1.859583516589706
2025-03-25 11:18:51.774,4.936020072814598
2025-03-25 11:18:51.774,3.313834230589974
2025-03-25 11:18:51.783,-0.827328129056553
2025-03-25 11:18:51.783,-2.912533965851918
2025-03-25 11:18:51.783,-3.037764498573158
2025-03-25 11:18:51.784,-4.2725843559760595
2025-03-25 11:18:51.784,-4.952936551257085
2025-03-25 11:18:51.792,0.5195056150401104
2025-03-25 11:18:51.792,10.995763065167324
2025-03-25 11:18:51.792,15.089579474553611
2025-03-25 11:18:51.792,4.1196901314836865
2025-03-25 11:18:51.792,-14.284208703669442
2025-03-25 11:18:51.801,-21.85339656877846
2025-03-25 11:18:51.801,-9.762297902712053
2025-03-25 11:18:51.802,11.10991526971959
2025-03-25 11:18:51.802,21.7159107831012
2025-03-25 11:18:51.809,13.955134053447669
2025-03-25 11:18:51.810,-3.4283269385635053
2025-03-25 11:18:51.810,-15.458416674333458
2025-03-25 11:18:51.810,-14.424550800662434
2025-03-25 11:18:51.819,-3.912950812401429
2025-03-25 11:18:51.820,6.880399521436164
2025-03-25 11:18:51.820,11.04358370137021
2025-03-25 11:18:51.820,7.614057347793007
2025-03-25 11:18:51.820,0.1594314063805673
2025-03-25 11:18:51.829,-6.331084667683213
2025-03-25 11:18:51.830,-7.747236251077945
2025-03-25 11:18:51.830,-3.105396436913609
2025-03-25 11:18:51.830,3.6318309143554663
2025-03-25 11:18:51.830,5.964698197518019
2025-03-25 11:18:51.839,1.6442247037977777
2025-03-25 11:18:51.839,-4.032685289388689
2025-03-25 11:18:51.840,-4.178155690244123
2025-03-25 11:18:51.840,1.2447486834706574
2025-03-25 11:18:51.840,5.59708099258649
2025-03-25 11:18:51.849,3.921925785761015
2025-03-25 11:18:51.849,-1.6303006849759265
2025-03-25 11:18:51.850,-5.357646208405261
2025-03-25 11:18:51.850,-4.600004643564942
2025-03-25 11:18:51.850,-1.245501102103472
2025-03-25 11:18:51.859,1.865807288611633
2025-03-25 11:18:51.861,3.7921348142603826
2025-03-25 11:18:51.861,4.56977207471445
2025-03-25 11:18:51.861,3.366945590763296
2025-03-25 11:18:51.861,-0.5984304601434484
2025-03-25 11:18:51.869,-5.480864047887487
2025-03-25 11:18:51.869,-7.066239128617507
2025-03-25 11:18:51.869,-2.9789025326593555
2025-03-25 11:18:51.869,3.90259875814444
2025-03-25 11:18:51.870,7.508079940189328
2025-03-25 11:18:51.879,4.53192233629306
2025-03-25 11:18:51.879,-2.013183135345792
2025-03-25 11:18:51.879,-5.745809631064322
2025-03-25 11:18:51.880,-3.608148664300248
2025-03-25 11:18:51.880,1.0814742185228634
2025-03-25 11:18:51.889,3.0639734294622327
2025-03-25 11:18:51.889,1.6273802594475133
2025-03-25 11:18:51.889,0.38226685954359707
2025-03-25 11:18:51.890,0.7754702558080145
2025-03-25 11:18:51.890,-0.2939890436794975
2025-03-25 11:18:51.899,-4.150914475233565
2025-03-25 11:18:51.899,-5.603904283168302
2025-03-25 11:18:51.899,0.28626343423975453
2025-03-25 11:18:51.900,8.64691540882365
2025-03-25 11:18:51.900,8.827134455526487
2025-03-25 11:18:51.907,-0.991290607983298
2025-03-25 11:18:51.908,-9.765888693610416
2025-03-25 11:18:51.908,-7.606713942278843
2025-03-25 11:18:51.908,1.444168970212567
2025-03-25 11:18:51.908,5.817422085212336
2025-03-25 11:18:51.919,2.1989818523903675
2025-03-25 11:18:51.919,-1.6395719303567462
2025-03-25 11:18:51.919,0.5514701863161406
2025-03-25 11:18:51.920,4.469539399476667
2025-03-25 11:18:51.920,2.141845314679251
2025-03-25 11:18:51.928,-5.724686556288888
2025-03-25 11:18:51.928,-9.399831303656029
2025-03-25 11:18:51.928,-2.7200164516289607
2025-03-25 11:18:51.928,7.953443263731993
2025-03-25 11:18:51.937,10.75134742859807
2025-03-25 11:18:51.938,2.768313291654048
2025-03-25 11:18:51.938,-6.7414308601611355
2025-03-25 11:18:51.938,-8.230755938133054
2025-03-25 11:18:51.938,-2.5951390000440595
2025-03-25 11:18:51.947,2.4778893374845405
2025-03-25 11:18:51.948,3.253002152944213
2025-03-25 11:18:51.948,2.551117781350651
2025-03-25 11:18:51.948,2.910146960215199
2025-03-25 11:18:51.948,2.163112211434796
2025-03-25 11:18:51.957,-2.173863166265237
2025-03-25 11:18:51.958,-7.012372530096791
2025-03-25 11:18:51.958,-6.019645349583871
2025-03-25 11:18:51.958,1.6266869483880795
2025-03-25 11:18:51.958,8.118763797379573
2025-03-25 11:18:51.967,5.933601060044738
2025-03-25 11:18:51.967,-1.7869582504395027
2025-03-25 11:18:51.967,-4.893875741774603
2025-03-25 11:18:51.968,-0.632151969554059
2025-03-25 11:18:51.968,2.2900791599220773
2025-03-25 11:18:51.977,-2.4447583395553094
2025-03-25 11:18:51.977,-7.607567343425051
2025-03-25 11:18:51.977,-2.463710819049617
2025-03-25 11:18:51.978,9.925572419256065
2025-03-25 11:18:51.978,14.482681457189589
2025-03-25 11:18:51.985,3.57526489322308
2025-03-25 11:18:51.986,-12.515562938584122
2025-03-25 11:18:51.986,-17.357092113448985
2025-03-25 11:18:51.986,-6.419772736026828
2025-03-25 11:18:51.995,9.394129260167057
2025-03-25 11:18:51.995,15.91074917075145
2025-03-25 11:18:51.995,8.850415618148585
2025-03-25 11:18:51.995,-4.050114507258711
2025-03-25 11:18:51.996,-11.516187695025149
2025-03-25 11:18:52.005,-8.645826065726423
2025-03-25 11:18:52.005,0.21212092894763068
2025-03-25 11:18:52.006,6.747239748623709
2025-03-25 11:18:52.006,6.311351556858239
2025-03-25 11:18:52.006,1.0169291304736783
2025-03-25 11:18:52.015,-3.549076110303144
2025-03-25 11:18:52.015,-3.8693583869708132
2025-03-25 11:18:52.016,-0.8651475289477224
2025-03-25 11:18:52.016,2.1795674878194577
2025-03-25 11:18:52.016,2.8694774231828664
2025-03-25 11:18:52.025,0.942290104881167
2025-03-25 11:18:52.025,-2.2260166991876122
2025-03-25 11:18:52.025,-4.147974522919473
2025-03-25 11:18:52.025,-2.224071392671775
2025-03-25 11:18:52.026,3.4420261138913295
2025-03-25 11:18:52.033,7.849130039705117
2025-03-25 11:18:52.034,4.672655658227955
2025-03-25 11:18:52.034,-5.431032321717131
2025-03-25 11:18:52.034,-12.28939501784673
2025-03-25 11:18:52.043,-6.558481360345349
2025-03-25 11:18:52.044,7.351832613436014
2025-03-25 11:18:52.044,14.02083292825752
2025-03-25 11:18:52.044,5.4132869263061085
2025-03-25 11:18:52.044,-8.188910940862241
2025-03-25 11:18:52.053,-10.770214813836846
2025-03-25 11:18:52.053,-0.9615756800302657
2025-03-25 11:18:52.054,7.281077026708048
2025-03-25 11:18:52.054,4.105417737785298
2025-03-25 11:18:52.054,-3.993422446903876
2025-03-25 11:18:52.063,-4.949558776978939
2025-03-25 11:18:52.063,1.9195890299600662
2025-03-25 11:18:52.064,6.298557842724288
2025-03-25 11:18:52.064,2.0898577185082163
2025-03-25 11:18:52.064,-4.643804234934144
2025-03-25 11:18:52.073,-4.8810478084427436
2025-03-25 11:18:52.073,0.9458599165499444
2025-03-25 11:18:52.074,4.268272072937563
2025-03-25 11:18:52.074,0.8262633201134825
2025-03-25 11:18:52.074,-3.4807541064894827
2025-03-25 11:18:52.083,-1.691569717573145
2025-03-25 11:18:52.083,3.3654975210610907
2025-03-25 11:18:52.083,3.08388870621648
2025-03-25 11:18:52.084,-3.1047602159301553
2025-03-25 11:18:52.084,-5.331635196729642
2025-03-25 11:18:52.093,2.042761056587176
2025-03-25 11:18:52.093,9.752014309568894
2025-03-25 11:18:52.093,4.900669211816946
2025-03-25 11:18:52.094,-9.59540680908925
2025-03-25 11:18:52.094,-15.826070734666656
2025-03-25 11:18:52.101,-3.743882101346793
2025-03-25 11:18:52.102,14.192422202437267
2025-03-25 11:18:52.102,17.56985244577806
2025-03-25 11:18:52.102,3.1817267148012407
2025-03-25 11:18:52.111,-12.173079536475647
2025-03-25 11:18:52.111,-13.279617434727525
2025-03-25 11:18:52.112,-2.930107847883817
2025-03-25 11:18:52.112,5.547842059139444
2025-03-25 11:18:52.112,5.389124677243211
2025-03-25 11:18:52.121,1.1059754379068378
2025-03-25 11:18:52.121,-0.24488404349936213
2025-03-25 11:18:52.122,2.419012480657175
2025-03-25 11:18:52.122,3.9528820212545166
2025-03-25 11:18:52.122,-0.5694524598455787
2025-03-25 11:18:52.129,-8.654250780457577
2025-03-25 11:18:52.130,-10.692153267107681
2025-03-25 11:18:52.130,-0.8836039642635796
2025-03-25 11:18:52.130,12.77244664844557
2025-03-25 11:18:52.130,14.967528655107268
2025-03-25 11:18:52.139,1.5287282086882006
2025-03-25 11:18:52.140,-13.66460122425668
2025-03-25 11:18:52.140,-14.238970586706678
2025-03-25 11:18:52.140,-0.6534832454896324
2025-03-25 11:18:52.149,11.072469913563753
2025-03-25 11:18:52.149,9.11805725566579
2025-03-25 11:18:52.149,-1.115909063902718
2025-03-25 11:18:52.150,-6.074415499205446
2025-03-25 11:18:52.150,-1.851680683774938
2025-03-25 11:18:52.159,2.7052656180688848
2025-03-25 11:18:52.159,0.15450205412598034
2025-03-25 11:18:52.159,-4.855615202295766
2025-03-25 11:18:52.160,-3.128202134439944
2025-03-25 11:18:52.160,4.894154074468123
2025-03-25 11:18:52.168,8.900935394555201
2025-03-25 11:18:52.168,2.6251262071885164
2025-03-25 11:18:52.168,-7.484567211474403
2025-03-25 11:18:52.168,-10.067084071410232
2025-03-25 11:18:52.168,-2.344314548226791
2025-03-25 11:18:52.177,7.318710096907562
2025-03-25 11:18:52.178,9.468678968295896
2025-03-25 11:18:52.178,3.283212015250844
2025-03-25 11:18:52.178,-4.528121856332647
2025-03-25 11:18:52.178,-7.980400111655535
2025-03-25 11:18:52.187,-6.223858685546916
2025-03-25 11:18:52.188,-0.9775890789373033
2025-03-25 11:18:52.188,5.892317987593576
2025-03-25 11:18:52.188,10.643960726239976
2025-03-25 11:18:52.197,7.86498565968818
2025-03-25 11:18:52.197,-3.129819359202233
2025-03-25 11:18:52.198,-13.801559519964004
2025-03-25 11:18:52.198,-13.189130209611237
2025-03-25 11:18:52.198,-0.3068403532415942
2025-03-25 11:18:52.205,13.216334917537417
2025-03-25 11:18:52.206,14.690434638092636
2025-03-25 11:18:52.206,3.389149051814034
2025-03-25 11:18:52.206,-9.258237723521141
2025-03-25 11:18:52.215,-11.907202700874217
2025-03-25 11:18:52.215,-4.302243180230385
2025-03-25 11:18:52.216,4.2882958133386575
2025-03-25 11:18:52.216,6.086075996073394
2025-03-25 11:18:52.216,2.199965825799651
2025-03-25 11:18:52.225,-0.9488461614676416
2025-03-25 11:18:52.225,-0.10197921968976009
2025-03-25 11:18:52.226,1.9090197545219354
2025-03-25 11:18:52.226,0.8872390858627095
2025-03-25 11:18:52.226,-3.149006684890915
2025-03-25 11:18:52.235,-5.8438387717442195
2025-03-25 11:18:52.235,-3.3646800360899642
2025-03-25 11:18:52.235,3.076861524380714
2025-03-25 11:18:52.236,7.720849060510666
2025-03-25 11:18:52.236,5.744892498148199
2025-03-25 11:18:52.245,-1.4522358206377204
2025-03-25 11:18:52.246,-7.118140010401132
2025-03-25 11:18:52.246,-6.0358422725122525
2025-03-25 11:18:52.246,0.02257832313698349
2025-03-25 11:18:52.246,4.72591392524487
2025-03-25 11:18:52.255,4.415825152159615
2025-03-25 11:18:52.255,1.1521403581635297
2025-03-25 11:18:52.255,-1.3621830112839421
2025-03-25 11:18:52.256,-2.2982657770580506
2025-03-25 11:18:52.256,-2.6309121643431714
2025-03-25 11:18:52.265,-1.8925130160884969
2025-03-25 11:18:52.265,0.8223255807713318
2025-03-25 11:18:52.265,3.5635467626050774
2025-03-25 11:18:52.265,3.0631751025736014
2025-03-25 11:18:52.266,-0.07456004683310422
2025-03-25 11:18:52.273,-1.6425340510426574
2025-03-25 11:18:52.274,-0.5333319194679031
2025-03-25 11:18:52.274,-0.7863455016185652
2025-03-25 11:18:52.274,-4.123562471823439
2025-03-25 11:18:52.283,-4.901562054952433
2025-03-25 11:18:52.283,2.0711151750950547
2025-03-25 11:18:52.284,11.141997006068978
2025-03-25 11:18:52.284,10.30941870025158
2025-03-25 11:18:52.284,-2.717414625219317
2025-03-25 11:18:52.292,-14.972526410487022
2025-03-25 11:18:52.292,-12.708308929484211
2025-03-25 11:18:52.292,1.878492591391002
2025-03-25 11:18:52.292,13.195252311046879
2025-03-25 11:18:52.292,10.697379594711874
2025-03-25 11:18:52.301,-0.12536500483979973
2025-03-25 11:18:52.301,-6.790436789347126
2025-03-25 11:18:52.302,-5.285275129923235
2025-03-25 11:18:52.302,-1.8037515494544998
2025-03-25 11:18:52.311,-1.2355995545524427
2025-03-25 11:18:52.312,-0.6860387798433216
2025-03-25 11:18:52.312,3.4685250320796075
2025-03-25 11:18:52.312,7.590316117802097
2025-03-25 11:18:52.312,4.990629630815451
2025-03-25 11:18:52.321,-3.8349900044038443
2025-03-25 11:18:52.321,-10.21396447493932
2025-03-25 11:18:52.322,-7.297222112328291
2025-03-25 11:18:52.322,2.1000058186724457
2025-03-25 11:18:52.322,9.042296402741982
2025-03-25 11:18:52.331,7.923239744780699
2025-03-25 11:18:52.331,0.9099270339841021
2025-03-25 11:18:52.332,-5.626446729409912
2025-03-25 11:18:52.332,-7.071017864474109
2025-03-25 11:18:52.332,-3.3271566254484806
2025-03-25 11:18:52.341,2.179614359374014
2025-03-25 11:18:52.341,5.2365940972043425
2025-03-25 11:18:52.341,3.79695687511634
2025-03-25 11:18:52.342,-0.3606162892502069
2025-03-25 11:18:52.342,-3.103581761039926
2025-03-25 11:18:52.350,-2.0760209085095718
2025-03-25 11:18:52.350,0.6569646459570859
2025-03-25 11:18:52.350,1.1002645261978068
2025-03-25 11:18:52.350,-1.3645998061473872
2025-03-25 11:18:52.350,-2.656867849811081
2025-03-25 11:18:52.359,0.6240906251278578
2025-03-25 11:18:52.360,5.5003461158138345
2025-03-25 11:18:52.360,5.0904758276442985
2025-03-25 11:18:52.360,-2.20303629630023
2025-03-25 11:18:52.360,-8.705966107560897
2025-03-25 11:18:52.370,-5.918762091843097
2025-03-25 11:18:52.370,4.013255195435871
2025-03-25 11:18:52.370,9.54140628436847
2025-03-25 11:18:52.370,3.8334257332569583
2025-03-25 11:18:52.370,-6.130067536613424
2025-03-25 11:18:52.380,-8.009411931007914
2025-03-25 11:18:52.380,0.3677218656851191
2025-03-25 11:18:52.380,8.306706360267388
2025-03-25 11:18:52.380,5.605384824658607
2025-03-25 11:18:52.380,-4.874748832373637
2025-03-25 11:18:52.389,-10.56188247741816
2025-03-25 11:18:52.390,-4.022868945271107
2025-03-25 11:18:52.390,8.25430194193875
2025-03-25 11:18:52.390,12.987255033751222
2025-03-25 11:18:52.399,4.577784481269675
2025-03-25 11:18:52.399,-9.149605086646142
2025-03-25 11:18:52.400,-15.172466688863265
2025-03-25 11:18:52.400,-7.805828631456766
2025-03-25 11:18:52.400,6.566150415247044
2025-03-25 11:18:52.407,15.62064012829743
2025-03-25 11:18:52.408,11.900058769868462
2025-03-25 11:18:52.408,-0.9892704868019221
2025-03-25 11:18:52.408,-12.156194226077721
2025-03-25 11:18:52.417,-13.41725647377167
2025-03-25 11:18:52.417,-5.480924042591064
2025-03-25 11:18:52.418,4.788320372969594
2025-03-25 11:18:52.418,10.876493096222164
2025-03-25 11:18:52.418,9.94671980825794
2025-03-25 11:18:52.427,2.892131182297403
2025-03-25 11:18:52.427,-5.973777808711872
2025-03-25 11:18:52.427,-10.475195220031233
2025-03-25 11:18:52.428,-7.029994275624413
2025-03-25 11:18:52.428,1.500560054549198
2025-03-25 11:18:52.437,7.781593906686245
2025-03-25 11:18:52.437,6.790865300170395
2025-03-25 11:18:52.437,0.4684696227613159
2025-03-25 11:18:52.437,-4.578249684051033
2025-03-25 11:18:52.438,-3.830298595065398
2025-03-25 11:18:52.447,0.7769597912712809
2025-03-25 11:18:52.447,3.2674886475929648
2025-03-25 11:18:52.447,0.41763892795638613
2025-03-25 11:18:52.448,-4.298228719753472
2025-03-25 11:18:52.448,-4.401948742557564
2025-03-25 11:18:52.457,1.7423004277972882
2025-03-25 11:18:52.457,7.937754781486253
2025-03-25 11:18:52.457,6.520231240665174
2025-03-25 11:18:52.458,-2.348644736815938
2025-03-25 11:18:52.458,-9.659573845707245
2025-03-25 11:18:52.467,-7.294382653304435
2025-03-25 11:18:52.467,2.3147259329576357
2025-03-25 11:18:52.467,8.653971742455406
2025-03-25 11:18:52.468,5.439630558577228
2025-03-25 11:18:52.468,-2.2780598697070333
2025-03-25 11:18:52.475,-5.168678179146382
2025-03-25 11:18:52.476,-1.4961041723667066
2025-03-25 11:18:52.476,1.8440134190625885
2025-03-25 11:18:52.476,-0.04467367863285632
2025-03-25 11:18:52.485,-2.9982088391486865
2025-03-25 11:18:52.486,-0.45296363094614783
2025-03-25 11:18:52.486,5.673327168634792
2025-03-25 11:18:52.486,6.23597311291567
2025-03-25 11:18:52.486,-2.0154366637701453
2025-03-25 11:18:52.495,-9.764015087481392
2025-03-25 11:18:52.495,-6.2680956751301515
2025-03-25 11:18:52.496,5.34148708127058
2025-03-25 11:18:52.496,10.531045275956695
2025-03-25 11:18:52.496,2.2862107107690477
2025-03-25 11:18:52.505,-8.81882257219148
2025-03-25 11:18:52.505,-8.100325998021924
2025-03-25 11:18:52.506,3.746447545746917
2025-03-25 11:18:52.506,11.36477911325649
2025-03-25 11:18:52.506,4.666036003353634
2025-03-25 11:18:52.515,-8.306873800790289
2025-03-25 11:18:52.515,-11.759565427975335
2025-03-25 11:18:52.515,-1.7911014252168627
2025-03-25 11:18:52.516,9.391516192539777
2025-03-25 11:18:52.516,8.992089572628268
2025-03-25 11:18:52.524,-1.1262531658621553
2025-03-25 11:18:52.524,-7.898454511933705
2025-03-25 11:18:52.524,-3.6853286081491246
2025-03-25 11:18:52.524,5.049621851749483
2025-03-25 11:18:52.524,6.702787637612761
2025-03-25 11:18:52.534,-1.200620065921632
2025-03-25 11:18:52.534,-9.511252643920942
2025-03-25 11:18:52.534,-8.234023811325228
2025-03-25 11:18:52.534,2.5189798460211748
2025-03-25 11:18:52.543,12.651146674998188
2025-03-25 11:18:52.543,12.044186390810308
2025-03-25 11:18:52.543,0.2902829252256943
2025-03-25 11:18:52.544,-12.585468803761831
2025-03-25 11:18:52.544,-14.995548874570703
2025-03-25 11:18:52.552,-4.535857983923907
2025-03-25 11:18:52.552,9.340956888362903
2025-03-25 11:18:52.552,14.06364540598001
2025-03-25 11:18:52.552,6.272821629973572
2025-03-25 11:18:52.552,-5.046908730027117
2025-03-25 11:18:52.561,-8.7452745435054
2025-03-25 11:18:52.562,-3.7890175093446063
2025-03-25 11:18:52.562,1.2920348928590761
2025-03-25 11:18:52.562,0.9711591948882462
2025-03-25 11:18:52.571,-0.3365597128053657
2025-03-25 11:18:52.572,2.7931299451212257
2025-03-25 11:18:52.572,6.107312236545804
2025-03-25 11:18:52.572,1.621447698567782
2025-03-25 11:18:52.572,-7.747881891918869
2025-03-25 11:18:52.581,-9.362494728454287
2025-03-25 11:18:52.581,0.9150713379327042
2025-03-25 11:18:52.582,10.800459430569232
2025-03-25 11:18:52.582,7.727961284179777
2025-03-25 11:18:52.582,-3.8305398554563035
2025-03-25 11:18:52.591,-9.026827189213142
2025-03-25 11:18:52.592,-2.935799854492388
2025-03-25 11:18:52.592,4.467642500870271
2025-03-25 11:18:52.592,3.5951012089024728
2025-03-25 11:18:52.592,-2.33550974451495
2025-03-25 11:18:52.601,-3.7135533286256126
2025-03-25 11:18:52.601,1.5507207350573453
2025-03-25 11:18:52.602,5.954805860868323
2025-03-25 11:18:52.602,3.2480379249935196
2025-03-25 11:18:52.602,-3.4563387544179736
2025-03-25 11:18:52.611,-6.373714189661168
2025-03-25 11:18:52.612,-3.0604324052500593
2025-03-25 11:18:52.612,1.6495157964072629
2025-03-25 11:18:52.612,3.0925876117015987
2025-03-25 11:18:52.612,2.282389945550317
2025-03-25 11:18:52.621,2.2650084668867754
2025-03-25 11:18:52.621,2.2371524270752166
2025-03-25 11:18:52.622,-0.8020322127063771
2025-03-25 11:18:52.622,-5.636065387131389
2025-03-25 11:18:52.622,-6.554515770292125
2025-03-25 11:18:52.631,-0.8253780085542448
2025-03-25 11:18:52.631,6.645860839439917
2025-03-25 11:18:52.632,8.313132944976282
2025-03-25 11:18:52.632,2.268213941138813
2025-03-25 11:18:52.632,-5.89071005644775
2025-03-25 11:18:52.641,-8.613540718393448
2025-03-25 11:18:52.641,-3.2764619549766856
2025-03-25 11:18:52.642,5.292528506982269
2025-03-25 11:18:52.642,8.790167392675997
2025-03-25 11:18:52.642,3.4270528106403306
2025-03-25 11:18:52.651,-5.509016858764653
2025-03-25 11:18:52.651,-8.625114858666793
2025-03-25 11:18:52.652,-2.7113208582527886
2025-03-25 11:18:52.652,5.571840582303782
2025-03-25 11:18:52.652,7.4472015517795755
2025-03-25 11:18:52.661,1.8231795910430773
2025-03-25 11:18:52.661,-4.530005496191565
2025-03-25 11:18:52.661,-5.439619143941394
2025-03-25 11:18:52.662,-1.434106530591607
2025-03-25 11:18:52.662,2.555544104761766
2025-03-25 11:18:52.671,3.1648792278084557
2025-03-25 11:18:52.671,1.155158385263035
2025-03-25 11:18:52.671,-0.6579301829757912
2025-03-25 11:18:52.671,-0.6904984307482392
2025-03-25 11:18:52.672,0.1058453576419108
2025-03-25 11:18:52.680,-0.19936194944216082
2025-03-25 11:18:52.680,-1.7878176082731823
2025-03-25 11:18:52.680,-2.467546813646935
2025-03-25 11:18:52.680,-0.41337237867856225
2025-03-25 11:18:52.689,3.0158699772492352
2025-03-25 11:18:52.690,4.407486343962677
2025-03-25 11:18:52.690,2.2032554477929946
2025-03-25 11:18:52.690,-1.6542300039231959
2025-03-25 11:18:52.690,-4.11154562932447
2025-03-25 11:18:52.699,-3.9022838774415254
2025-03-25 11:18:52.699,-1.7334062974548177
2025-03-25 11:18:52.700,1.171784431145231
2025-03-25 11:18:52.700,3.7039359834023675
2025-03-25 11:18:52.700,4.629621007352586
2025-03-25 11:18:52.709,2.972630311686305
2025-03-25 11:18:52.709,-0.8662526330122174
2025-03-25 11:18:52.710,-4.7124271460109854
2025-03-25 11:18:52.710,-5.8823644992402135
2025-03-25 11:18:52.710,-3.249273395180561
2025-03-25 11:18:52.719,1.689348180454478
2025-03-25 11:18:52.720,5.709997112060644
2025-03-25 11:18:52.720,6.098664623155579
2025-03-25 11:18:52.720,2.628789099135012
2025-03-25 11:18:52.720,-2.2764912020659622
2025-03-25 11:18:52.729,-5.548690918486236
2025-03-25 11:18:52.729,-5.776863490460834
2025-03-25 11:18:52.730,-3.3126634516005087
2025-03-25 11:18:52.730,1.1819782707112179
2025-03-25 11:18:52.730,6.487231593060012
2025-03-25 11:18:52.739,9.107803285702495
2025-03-25 11:18:52.739,4.921079005303509
2025-03-25 11:18:52.740,-5.047379897776663
2025-03-25 11:18:52.740,-12.528250310026122
2025-03-25 11:18:52.740,-9.433287554076326
2025-03-25 11:18:52.747,2.3953976821584293
2025-03-25 11:18:52.748,11.832252169368997
2025-03-25 11:18:52.748,10.194901245036379
2025-03-25 11:18:52.748,0.3826761950182692
2025-03-25 11:18:52.748,-7.340678974759306
2025-03-25 11:18:52.758,-7.1081301737098554
2025-03-25 11:18:52.758,-2.3198876477167536
2025-03-25 11:18:52.758,0.8987053464922244
2025-03-25 11:18:52.758,1.5799191524615868
2025-03-25 11:18:52.758,2.8798270646959168
2025-03-25 11:18:52.767,5.157018991499986
2025-03-25 11:18:52.767,4.227551367656513
2025-03-25 11:18:52.768,-2.1150410822816563
2025-03-25 11:18:52.768,-8.780327254662728
2025-03-25 11:18:52.777,-8.04998761926582
2025-03-25 11:18:52.778,0.6668222564178813
2025-03-25 11:18:52.778,8.918437165517163
2025-03-25 11:18:52.778,8.516211766543515
2025-03-25 11:18:52.778,0.6554506373854733
2025-03-25 11:18:52.778,-6.234498152736627
2025-03-25 11:18:52.788,-6.253637926917176
2025-03-25 11:18:52.788,-1.2315285843095345
2025-03-25 11:18:52.788,3.0486175854166344
2025-03-25 11:18:52.788,3.2104521407013187
2025-03-25 11:18:52.788,0.5578755999814451
2025-03-25 11:18:52.798,-1.2922058973212591
2025-03-25 11:18:52.798,-0.4353426956867906
2025-03-25 11:18:52.798,1.2778605096463798
2025-03-25 11:18:52.798,0.6669425570242062
2025-03-25 11:18:52.807,-2.1720733123549465
2025-03-25 11:18:52.807,-3.3003947620472665
2025-03-25 11:18:52.808,-0.10595707408508337
2025-03-25 11:18:52.808,4.4773721745152635
2025-03-25 11:18:52.808,4.899650777381462
2025-03-25 11:18:52.817,-0.2375756495486483
2025-03-25 11:18:52.818,-6.026317978493583
2025-03-25 11:18:52.818,-6.340648997108576
2025-03-25 11:18:52.818,-0.3560343704197554
2025-03-25 11:18:52.818,6.424136574997677
2025-03-25 11:18:52.827,7.4950547721726934
2025-03-25 11:18:52.827,1.7144401863243837
2025-03-25 11:18:52.828,-5.484317416308943
2025-03-25 11:18:52.828,-7.385444343950489
2025-03-25 11:18:52.828,-2.6279572684569508
2025-03-25 11:18:52.837,3.726720454301119
2025-03-25 11:18:52.837,5.703833128058751
2025-03-25 11:18:52.838,2.2344248178627675
2025-03-25 11:18:52.838,-2.6155983448409272
2025-03-25 11:18:52.838,-4.082975566308685
2025-03-25 11:18:52.847,-0.9465550031084401
2025-03-25 11:18:52.847,3.4926972086762103
2025-03-25 11:18:52.847,4.224450826987988
2025-03-25 11:18:52.848,-0.33139028086399314
2025-03-25 11:18:52.848,-5.6208452578774155
2025-03-25 11:18:52.857,-5.278088775998295
2025-03-25 11:18:52.857,1.031920894854715
2025-03-25 11:18:52.858,6.363456952485614
2025-03-25 11:18:52.858,4.801926151755691
2025-03-25 11:18:52.858,-1.1042282960049379
2025-03-25 11:18:52.865,-4.012261202164761
2025-03-25 11:18:52.866,-1.5590150812133459
2025-03-25 11:18:52.866,1.2488638303739852
2025-03-25 11:18:52.866,-0.22801159508231567
2025-03-25 11:18:52.875,-3.681196810127457
2025-03-25 11:18:52.876,-3.10499773683115
2025-03-25 11:18:52.876,3.1346844679194903
2025-03-25 11:18:52.876,9.462140961458058
2025-03-25 11:18:52.876,8.164179083485745
2025-03-25 11:18:52.885,-2.581326790675919
2025-03-25 11:18:52.885,-14.648373783848132
2025-03-25 11:18:52.886,-15.30332017414664
2025-03-25 11:18:52.886,-0.3412459984999622
2025-03-25 11:18:52.886,17.90683213443253
2025-03-25 11:18:52.893,20.564984978253662
2025-03-25 11:18:52.894,3.0307524672072867
2025-03-25 11:18:52.894,-17.77095248102398
2025-03-25 11:18:52.894,-20.870566212021306
2025-03-25 11:18:52.903,-4.086846204626907
2025-03-25 11:18:52.903,14.446078462775894
2025-03-25 11:18:52.903,16.75167469832783
2025-03-25 11:18:52.903,3.215509601630897
2025-03-25 11:18:52.904,-10.355292884308042
2025-03-25 11:18:52.912,-10.807316533637872
2025-03-25 11:18:52.912,-0.3646916037995481
2025-03-25 11:18:52.912,8.018061773673232
2025-03-25 11:18:52.912,5.606115003054445
2025-03-25 11:18:52.921,-3.502789376235613
2025-03-25 11:18:52.921,-8.275979694155087
2025-03-25 11:18:52.922,-3.2548266443395044
2025-03-25 11:18:52.922,6.142890519949747
2025-03-25 11:18:52.922,10.04672851317356
2025-03-25 11:18:52.931,4.342694209531219
2025-03-25 11:18:52.932,-5.701241656274863
2025-03-25 11:18:52.932,-10.943564865874736
2025-03-25 11:18:52.932,-6.907673594548357
2025-03-25 11:18:52.932,2.5961858966064355
2025-03-25 11:18:52.941,9.410201184330186
2025-03-25 11:18:52.942,8.230975625284755
2025-03-25 11:18:52.942,0.6106399595932908
2025-03-25 11:18:52.942,-6.833274070608525
2025-03-25 11:18:52.942,-7.757007316343875
2025-03-25 11:18:52.950,-1.2548289575509601
2025-03-25 11:18:52.950,6.54389471555872
2025-03-25 11:18:52.950,7.109926335186356
2025-03-25 11:18:52.950,-1.4690439600810763
2025-03-25 11:18:52.951,-10.234027141777984
2025-03-25 11:18:52.960,-7.748569281165382
2025-03-25 11:18:52.960,5.67041100665001
2025-03-25 11:18:52.960,15.675894260116861
2025-03-25 11:18:52.960,9.49825349466925
2025-03-25 11:18:52.969,-8.012778296457569
2025-03-25 11:18:52.969,-18.4926385703393
2025-03-25 11:18:52.970,-10.688429005149112
2025-03-25 11:18:52.970,6.9023408318545645
2025-03-25 11:18:52.970,16.168081372948137
2025-03-25 11:18:52.979,9.483275252847355
2025-03-25 11:18:52.979,-3.7657878407791756
2025-03-25 11:18:52.980,-9.877257553406585
2025-03-25 11:18:52.980,-5.760986515238224
2025-03-25 11:18:52.980,0.8593852370261366
2025-03-25 11:18:52.989,2.9629789877036203
2025-03-25 11:18:52.989,1.4144498884108778
2025-03-25 11:18:52.990,0.6289755132175179
2025-03-25 11:18:52.990,1.4817269601727832
2025-03-25 11:18:52.990,1.4283461630423362
2025-03-25 11:18:52.998,-0.45195411728228696
2025-03-25 11:18:52.998,-2.0847870234602297
2025-03-25 11:18:52.998,-1.9586215341299436
2025-03-25 11:18:52.998,-1.1169704318629343
2025-03-25 11:18:52.998,-0.6143442742589833
2025-03-25 11:18:53.009,0.6572441634990898
2025-03-25 11:18:53.009,3.511079256810952
2025-03-25 11:18:53.010,5.166107346930613
2025-03-25 11:18:53.010,1.5740025828110213
2025-03-25 11:18:53.010,-6.096413621082238
2025-03-25 11:18:53.018,-10.076156216974073
2025-03-25 11:18:53.018,-4.083909273140795
2025-03-25 11:18:53.018,7.80312828715405
2025-03-25 11:18:53.018,13.59784897506746
2025-03-25 11:18:53.027,6.296694629422899
2025-03-25 11:18:53.028,-7.435332209862433
2025-03-25 11:18:53.028,-13.784676998082716
2025-03-25 11:18:53.028,-6.8047622561732695
2025-03-25 11:18:53.028,5.264727657621022
2025-03-25 11:18:53.037,9.757927428847651
2025-03-25 11:18:53.037,3.8878483816773217
2025-03-25 11:18:53.038,-3.2894305896731098
2025-03-25 11:18:53.038,-3.022950684407996
2025-03-25 11:18:53.038,2.36231575437871
2025-03-25 11:18:53.047,3.423847246956518
2025-03-25 11:18:53.048,-3.2082719636069434
2025-03-25 11:18:53.048,-9.54569126875515
2025-03-25 11:18:53.048,-5.888302540065221
2025-03-25 11:18:53.048,6.363990080988519
2025-03-25 11:18:53.056,14.686186174612622
2025-03-25 11:18:53.056,9.060323251046343
2025-03-25 11:18:53.056,-6.088912885947661
2025-03-25 11:18:53.056,-15.714265089153898
2025-03-25 11:18:53.065,-10.245173946587654
2025-03-25 11:18:53.066,3.9348881613841957
2025-03-25 11:18:53.066,11.913558742238372
2025-03-25 11:18:53.066,7.178207807686549
2025-03-25 11:18:53.066,-2.0640115384945075
2025-03-25 11:18:53.075,-4.4751153444473255
2025-03-25 11:18:53.075,0.12620713154315621
2025-03-25 11:18:53.076,2.146529135252349
2025-03-25 11:18:53.076,-3.3115373003312776
2025-03-25 11:18:53.076,-8.841982609067383
2025-03-25 11:18:53.085,-4.523218199232772
2025-03-25 11:18:53.085,7.787587275838384
2025-03-25 11:18:53.086,14.859738426003995
2025-03-25 11:18:53.086,7.589339392696087
2025-03-25 11:18:53.086,-7.481260471759763
2025-03-25 11:18:53.095,-15.105050204949821
2025-03-25 11:18:53.095,-8.49059510780327
2025-03-25 11:18:53.096,3.909897124641732
2025-03-25 11:18:53.096,9.370017905870903
2025-03-25 11:18:53.096,5.2861833089825305
2025-03-25 11:18:53.103,-0.2629079982856858
2025-03-25 11:18:53.104,-0.59711528596133
2025-03-25 11:18:53.104,1.4196372647919788
2025-03-25 11:18:53.104,-0.9136168607080839
2025-03-25 11:18:53.113,-7.209564184108088
2025-03-25 11:18:53.113,-8.925278120671546
2025-03-25 11:18:53.114,-0.36087890308723125
2025-03-25 11:18:53.114,11.885017238191697
2025-03-25 11:18:53.114,14.16947739128744
2025-03-25 11:18:53.122,1.685051153861945
2025-03-25 11:18:53.122,-13.723380362136096
2025-03-25 11:18:53.122,-15.316973849340185
2025-03-25 11:18:53.122,-0.829180062679989
2025-03-25 11:18:53.131,13.902671500169765
2025-03-25 11:18:53.131,12.757145918013608
2025-03-25 11:18:53.132,-2.1326239337697865
2025-03-25 11:18:53.132,-13.32218356410087
2025-03-25 11:18:53.132,-8.62970915974924
2025-03-25 11:18:53.140,5.392849876411092
2025-03-25 11:18:53.140,12.249114684132682
2025-03-25 11:18:53.140,4.877581001788316
2025-03-25 11:18:53.140,-7.294898799937528
2025-03-25 11:18:53.141,-10.44728659413749
2025-03-25 11:18:53.150,-2.090550724423287
2025-03-25 11:18:53.150,7.486347883719845
2025-03-25 11:18:53.150,7.945816191282555
2025-03-25 11:18:53.150,0.061977695814310896
2025-03-25 11:18:53.150,-6.626671215991208
2025-03-25 11:18:53.160,-5.290756038963595
2025-03-25 11:18:53.160,1.2880657342515038
2025-03-25 11:18:53.160,5.2510516420634135
2025-03-25 11:18:53.160,2.978030205305536
2025-03-25 11:18:53.160,-1.8428230838631392
2025-03-25 11:18:53.170,-3.6566888680754044
2025-03-25 11:18:53.170,-1.272783836868927
2025-03-25 11:18:53.170,1.9924953212485157
2025-03-25 11:18:53.170,2.6791693582469307
2025-03-25 11:18:53.170,0.37940137564254717
2025-03-25 11:18:53.179,-2.5144380782726183
2025-03-25 11:18:53.180,-3.0568536147585794
2025-03-25 11:18:53.180,-0.31782923273291186
2025-03-25 11:18:53.180,3.315301003646843
2025-03-25 11:18:53.189,4.00824183036142
2025-03-25 11:18:53.189,0.6691607080944137
2025-03-25 11:18:53.190,-3.3318603207621313
2025-03-25 11:18:53.190,-3.8042778999901126
2025-03-25 11:18:53.190,-0.6501735318030346
2025-03-25 11:18:53.199,2.2195293233924187
2025-03-25 11:18:53.199,1.8407304006077694
2025-03-25 11:18:53.200,-0.38507037406511313
2025-03-25 11:18:53.200,-1.01288721030233
2025-03-25 11:18:53.200,0.7066130953828078
2025-03-25 11:18:53.209,2.025443640870284
2025-03-25 11:18:53.209,0.7227633695136377
2025-03-25 11:18:53.210,-1.8522171495201207
2025-03-25 11:18:53.210,-2.8547186121181825
2025-03-25 11:18:53.210,-1.5865863395413156
2025-03-25 11:18:53.219,0.5513883415335357
2025-03-25 11:18:53.219,2.4239167372367927
2025-03-25 11:18:53.220,3.301367767848089
2025-03-25 11:18:53.220,1.801644570197036
2025-03-25 11:18:53.220,-2.222371693904565
2025-03-25 11:18:53.229,-5.094153935365612
2025-03-25 11:18:53.229,-2.4294624554313
2025-03-25 11:18:53.230,4.002584115847189
2025-03-25 11:18:53.230,6.303515871304014
2025-03-25 11:18:53.230,0.23960093349979295
2025-03-25 11:18:53.239,-7.658940483870166
2025-03-25 11:18:53.239,-7.040517966466092
2025-03-25 11:18:53.240,2.8210462344131906
2025-03-25 11:18:53.240,10.904236166518132
2025-03-25 11:18:53.240,7.445912216466032
2025-03-25 11:18:53.249,-4.043870316605983
2025-03-25 11:18:53.249,-10.945301314176401
2025-03-25 11:18:53.250,-6.555211292242029
2025-03-25 11:18:53.250,2.7981509911298237
2025-03-25 11:18:53.250,6.739167998115933
2025-03-25 11:18:53.258,3.4481222214601477
2025-03-25 11:18:53.258,-0.32316982880510736
2025-03-25 11:18:53.258,-0.12991894687934089
2025-03-25 11:18:53.258,0.6761009704379537
2025-03-25 11:18:53.258,-2.0359229044018736
2025-03-25 11:18:53.268,-5.436627915756818
2025-03-25 11:18:53.268,-3.4964407958374286
2025-03-25 11:18:53.268,3.457478442122391
2025-03-25 11:18:53.268,7.825583975822216
2025-03-25 11:18:53.268,4.153268206354099
2025-03-25 11:18:53.278,-3.8173215033021446
2025-03-25 11:18:53.278,-7.403544067893492
2025-03-25 11:18:53.278,-2.97595702605811
2025-03-25 11:18:53.278,4.012364383021604
2025-03-25 11:18:53.287,5.344413432979625
2025-03-25 11:18:53.288,-0.23105487997653051
2025-03-25 11:18:53.288,-5.111736143243465
2025-03-25 11:18:53.288,-2.158304746629458
2025-03-25 11:18:53.288,5.358882643607349
2025-03-25 11:18:53.297,6.8518830052314055
2025-03-25 11:18:53.297,-1.532444432371729
2025-03-25 11:18:53.298,-10.24784424434987
2025-03-25 11:18:53.298,-7.712966151881771
2025-03-25 11:18:53.298,4.212919429297298
2025-03-25 11:18:53.306,11.763988705534494
2025-03-25 11:18:53.306,6.480888392875158
2025-03-25 11:18:53.306,-4.642789787118854
2025-03-25 11:18:53.306,-8.873405159918311
2025-03-25 11:18:53.306,-3.3526863193023013
2025-03-25 11:18:53.316,3.4514854638837784
2025-03-25 11:18:53.316,3.9228720565779165
2025-03-25 11:18:53.316,-0.22102043858920206
2025-03-25 11:18:53.316,-2.4899407340446373
2025-03-25 11:18:53.326,-0.602913282790885
2025-03-25 11:18:53.326,2.085616230878805
2025-03-25 11:18:53.326,2.3914060888943616
2025-03-25 11:18:53.326,0.9733579482920558
2025-03-25 11:18:53.326,-0.3151873872609031
2025-03-25 11:18:53.335,-1.7588075965379437
2025-03-25 11:18:53.336,-4.0987831022865695
2025-03-25 11:18:53.336,-5.0195015504497515
2025-03-25 11:18:53.336,-0.8773763622013558
2025-03-25 11:18:53.336,7.024215480304146
2025-03-25 11:18:53.345,10.916556737602614
2025-03-25 11:18:53.345,4.675595854122168
2025-03-25 11:18:53.346,-7.288312659498095
2025-03-25 11:18:53.346,-13.084118854322162
2025-03-25 11:18:53.346,-6.712087431238455
2025-03-25 11:18:53.355,4.668405607071036
2025-03-25 11:18:53.355,9.427383948528801
2025-03-25 11:18:53.355,5.024249445812773
2025-03-25 11:18:53.356,-0.9590793538182915
2025-03-25 11:18:53.356,-2.155827875516317
2025-03-25 11:18:53.363,-0.6867918697870817
2025-03-25 11:18:53.364,-1.5561100213847392
2025-03-25 11:18:53.364,-4.155752268570369
2025-03-25 11:18:53.364,-3.4475636245160266
2025-03-25 11:18:53.373,1.8617225926890528
2025-03-25 11:18:53.374,6.519453096825472
2025-03-25 11:18:53.374,5.193155414995032
2025-03-25 11:18:53.374,-0.7919275665007366
2025-03-25 11:18:53.374,-5.163526415846318
2025-03-25 11:18:53.384,-4.149020217339061
2025-03-25 11:18:53.384,-0.16263577362969778
2025-03-25 11:18:53.384,2.0965109970087537
2025-03-25 11:18:53.384,1.3702575736820901
2025-03-25 11:18:53.384,0.28145132779971094
2025-03-25 11:18:53.393,0.8691621914283405
2025-03-25 11:18:53.393,1.6829307146493437
2025-03-25 11:18:53.394,0.21697374113937956
2025-03-25 11:18:53.394,-2.8962467216221337
2025-03-25 11:18:53.394,-3.95322927417303
2025-03-25 11:18:53.403,-0.8715158366158952
2025-03-25 11:18:53.404,3.6165756775076847
2025-03-25 11:18:53.404,4.823039384156875
2025-03-25 11:18:53.404,1.5495986132179167
2025-03-25 11:18:53.404,-2.789085691628933
2025-03-25 11:18:53.413,-4.263746925731293
2025-03-25 11:18:53.414,-2.1681151316465326
2025-03-25 11:18:53.414,1.257503774495468
2025-03-25 11:18:53.414,3.176602178888045
2025-03-25 11:18:53.414,2.0637857379132463
2025-03-25 11:18:53.423,-1.010140699362218
2025-03-25 11:18:53.423,-2.6664109200110486
2025-03-25 11:18:53.424,-0.6146038174075519
2025-03-25 11:18:53.424,2.8190672127529792
2025-03-25 11:18:53.424,2.787323233711835
2025-03-25 11:18:53.433,-1.5069936921658078
2025-03-25 11:18:53.433,-4.844624647079241
2025-03-25 11:18:53.434,-2.5860108939469217
2025-03-25 11:18:53.434,2.8077437679480837
2025-03-25 11:18:53.434,4.762627364835137
2025-03-25 11:18:53.443,1.238223651580312
2025-03-25 11:18:53.443,-2.8139178975848433
2025-03-25 11:18:53.444,-2.295759849823714
2025-03-25 11:18:53.444,1.360200348056773
2025-03-25 11:18:53.444,2.4527314596514653
2025-03-25 11:18:53.453,-1.0670765851435906
2025-03-25 11:18:53.454,-4.5391900374928715
2025-03-25 11:18:53.454,-2.5447815141059067
2025-03-25 11:18:53.454,3.636022066190207
2025-03-25 11:18:53.454,6.841043760356223
2025-03-25 11:18:53.463,2.6815267729708707
2025-03-25 11:18:53.463,-4.601717835902745
2025-03-25 11:18:53.464,-6.791499994707878
2025-03-25 11:18:53.464,-1.5701536010195936
2025-03-25 11:18:53.464,4.579466168352313
2025-03-25 11:18:53.471,4.344423176601243
2025-03-25 11:18:53.472,-1.3400740813738958
2025-03-25 11:18:53.472,-4.66353019839181
2025-03-25 11:18:53.472,-1.1880867430851336
2025-03-25 11:18:53.472,4.365380292241866
2025-03-25 11:18:53.481,4.544659775533103
2025-03-25 11:18:53.482,-0.866289183815121
2025-03-25 11:18:53.482,-4.884793008936478
2025-03-25 11:18:53.482,-2.9424941798039024
2025-03-25 11:18:53.491,1.503174868741864
2025-03-25 11:18:53.492,2.5740628505688394
2025-03-25 11:18:53.492,0.009320328449289372
2025-03-25 11:18:53.492,-1.530169404298443
2025-03-25 11:18:53.492,0.26294292195559993
2025-03-25 11:18:53.501,2.3573282593588014
2025-03-25 11:18:53.502,1.2582463643318094
2025-03-25 11:18:53.502,-1.8234416896543126
2025-03-25 11:18:53.502,-2.6498701360919217
2025-03-25 11:18:53.502,0.10314884991396236
2025-03-25 11:18:53.511,2.713730290073081
2025-03-25 11:18:53.512,1.122320903405592
2025-03-25 11:18:53.512,-3.2909136976644504
2025-03-25 11:18:53.512,-4.536193947046613
2025-03-25 11:18:53.512,0.6177772536752505
2025-03-25 11:18:53.521,7.474753964287368
2025-03-25 11:18:53.521,7.710963806306314
2025-03-25 11:18:53.521,-0.8060279275717704
2025-03-25 11:18:53.522,-10.327481113726648
2025-03-25 11:18:53.522,-10.941018416436028
2025-03-25 11:18:53.531,-1.3121848690023548
2025-03-25 11:18:53.531,9.814213121457033
2025-03-25 11:18:53.532,12.585239640744042
2025-03-25 11:18:53.532,5.070579024933389
2025-03-25 11:18:53.532,-6.201797650097732
2025-03-25 11:18:53.540,-12.391645717485272
2025-03-25 11:18:53.540,-8.725396689626532
2025-03-25 11:18:53.540,2.221959315274961
2025-03-25 11:18:53.540,11.521970060513508
2025-03-25 11:18:53.549,10.430514779001737
2025-03-25 11:18:53.549,-0.7399245410132211
2025-03-25 11:18:53.550,-11.003656416697986
2025-03-25 11:18:53.550,-9.40829401212086
2025-03-25 11:18:53.550,2.223000413131361
2025-03-25 11:18:53.558,10.594769339867998
2025-03-25 11:18:53.558,6.394095444777671
2025-03-25 11:18:53.558,-4.744354690986276
2025-03-25 11:18:53.558,-9.520375387185213
2025-03-25 11:18:53.558,-3.0392782899853414
2025-03-25 11:18:53.568,6.300713709169306
2025-03-25 11:18:53.568,7.8246861160284915
2025-03-25 11:18:53.568,0.7846838152566638
2025-03-25 11:18:53.568,-6.253813992335777
2025-03-25 11:18:53.568,-6.064012229648604
2025-03-25 11:18:53.578,-0.09443188254421148
2025-03-25 11:18:53.578,4.709976480143118
2025-03-25 11:18:53.578,4.143567866869172
2025-03-25 11:18:53.578,0.30593933384269245
2025-03-25 11:18:53.578,-2.209674273955705
2025-03-25 11:18:53.588,-1.6683664678478465
2025-03-25 11:18:53.588,-0.009768941037915202
2025-03-25 11:18:53.588,0.34048210849786315
2025-03-25 11:18:53.588,-0.9024276018166301
2025-03-25 11:18:53.597,-2.0022412042240894
2025-03-25 11:18:53.598,-0.9395681603004831
2025-03-25 11:18:53.598,2.5194902532157952
2025-03-25 11:18:53.598,5.580268696759363
2025-03-25 11:18:53.598,4.120636367148277
2025-03-25 11:18:53.607,-2.5914326972182242
2025-03-25 11:18:53.608,-9.120490757852794
2025-03-25 11:18:53.608,-8.09810923888995
2025-03-25 11:18:53.608,1.4370619165676828
2025-03-25 11:18:53.608,11.151026464262717
2025-03-25 11:18:53.616,10.933317405351362
2025-03-25 11:18:53.616,-0.11503680005444405
2025-03-25 11:18:53.616,-11.508994167601092
2025-03-25 11:18:53.616,-11.721795776015918
2025-03-25 11:18:53.625,-0.550534344739897
2025-03-25 11:18:53.625,10.452713889594392
2025-03-25 11:18:53.626,10.472383233421105
2025-03-25 11:18:53.626,0.7381324071239522
2025-03-25 11:18:53.626,-7.966029652888887
2025-03-25 11:18:53.635,-7.656140676859904
2025-03-25 11:18:53.636,-0.6757436254834511
2025-03-25 11:18:53.636,4.785247369024152
2025-03-25 11:18:53.636,4.067049803729369
2025-03-25 11:18:53.636,-0.2777964962842561
2025-03-25 11:18:53.645,-2.7159497839733264
2025-03-25 11:18:53.645,-0.9412592496664486
2025-03-25 11:18:53.645,2.304052042322266
2025-03-25 11:18:53.646,2.8836609441051437
2025-03-25 11:18:53.646,-0.06061155303269533
2025-03-25 11:18:53.655,-3.60115043392112
2025-03-25 11:18:53.655,-4.567755203815515
2025-03-25 11:18:53.656,-2.2471980884649225
2025-03-25 11:18:53.656,2.111184110461233
2025-03-25 11:18:53.656,6.209708294463337
2025-03-25 11:18:53.664,6.718121838089739
2025-03-25 11:18:53.664,1.4284090325384344
2025-03-25 11:18:53.664,-6.629655655015603
2025-03-25 11:18:53.664,-9.835692765908757
2025-03-25 11:18:53.664,-3.9799158602177394
2025-03-25 11:18:53.674,5.573038603030686
2025-03-25 11:18:53.674,9.040433486499683
2025-03-25 11:18:53.674,3.478581840236699
2025-03-25 11:18:53.674,-4.074461810526871
2025-03-25 11:18:53.675,-5.424140975459539
2025-03-25 11:18:53.684,-0.5235684961926538
2025-03-25 11:18:53.684,3.7698272287657812
2025-03-25 11:18:53.684,2.4426181035876753
2025-03-25 11:18:53.684,-2.540088793628791
2025-03-25 11:18:53.693,-5.342457677597533
2025-03-25 11:18:53.694,-2.5178077163175865
2025-03-25 11:18:53.694,3.8571052722250116
2025-03-25 11:18:53.694,7.850745993294229
2025-03-25 11:18:53.694,4.773419981637244
2025-03-25 11:18:53.703,-3.629137448696856
2025-03-25 11:18:53.704,-9.38057442951388
2025-03-25 11:18:53.704,-6.079556660655939
2025-03-25 11:18:53.704,3.1792613795854785
2025-03-25 11:18:53.704,8.409932601556632
2025-03-25 11:18:53.713,4.402149862996325
2025-03-25 11:18:53.714,-3.053441781587992
2025-03-25 11:18:53.714,-4.924524581833347
2025-03-25 11:18:53.714,-0.4464597087565719
2025-03-25 11:18:53.714,2.994665024771064
2025-03-25 11:18:53.723,0.6302858597877257
2025-03-25 11:18:53.724,-3.6198419375265343
2025-03-25 11:18:53.724,-3.3257732331810907
2025-03-25 11:18:53.724,1.764951061836269
2025-03-25 11:18:53.724,6.023542000797157
2025-03-25 11:18:53.733,5.0141793818674945
2025-03-25 11:18:53.733,-0.42797781245563543
2025-03-25 11:18:53.734,-6.0922761577683335
2025-03-25 11:18:53.734,-7.834498999818465
2025-03-25 11:18:53.734,-3.8082354748302323
2025-03-25 11:18:53.743,3.923181966233343
2025-03-25 11:18:53.743,9.58212535642258
2025-03-25 11:18:53.743,7.899662265810701
2025-03-25 11:18:53.744,-0.33619788140548507
2025-03-25 11:18:53.744,-8.056487944802452
2025-03-25 11:18:53.753,-8.688710959131832
2025-03-25 11:18:53.754,-2.7864600801503148
2025-03-25 11:18:53.754,3.291397035686133
2025-03-25 11:18:53.754,4.922529914473044
2025-03-25 11:18:53.754,3.467235236900625
2025-03-25 11:18:53.763,2.3805059123415804
2025-03-25 11:18:53.763,1.6075006055831533
2025-03-25 11:18:53.764,-1.3801692396352259
2025-03-25 11:18:53.764,-5.94923947764878
2025-03-25 11:18:53.764,-7.278420272316245
2025-03-25 11:18:53.773,-2.2291780500895237
2025-03-25 11:18:53.773,5.844525323574396
2025-03-25 11:18:53.774,9.825111276543373
2025-03-25 11:18:53.774,5.807281767492416
2025-03-25 11:18:53.774,-3.14042081164845
2025-03-25 11:18:53.783,-9.50479673066085
2025-03-25 11:18:53.783,-7.75267267157227
2025-03-25 11:18:53.784,0.43998196141171064
2025-03-25 11:18:53.784,7.284762128597302
2025-03-25 11:18:53.784,6.604709815820654
2025-03-25 11:18:53.792,0.4585201483590915
2025-03-25 11:18:53.792,-3.6972329939917077
2025-03-25 11:18:53.792,-2.3514002317543934
2025-03-25 11:18:53.792,0.4058416695937493
2025-03-25 11:18:53.793,-0.30864943630989256
2025-03-25 11:18:53.802,-2.8893138720820764
2025-03-25 11:18:53.802,-1.978666327797944
2025-03-25 11:18:53.802,3.0537569185172453
2025-03-25 11:18:53.802,6.393170062318275
2025-03-25 11:18:53.802,3.311553096450619
2025-03-25 11:18:53.812,-3.521416718385332
2025-03-25 11:18:53.812,-7.0921993000963734
2025-03-25 11:18:53.812,-3.961869047832037
2025-03-25 11:18:53.812,2.49722728209978
2025-03-25 11:18:53.821,6.107372406062855
2025-03-25 11:18:53.822,3.8835303638516194
2025-03-25 11:18:53.822,-1.6492294539697718
2025-03-25 11:18:53.822,-5.128725131059001
2025-03-25 11:18:53.822,-3.3517603599246226
2025-03-25 11:18:53.831,1.7053584207506494
2025-03-25 11:18:53.832,4.771460786231107
2025-03-25 11:18:53.832,2.6858405019588227
2025-03-25 11:18:53.832,-2.1311301715129014
2025-03-25 11:18:53.832,-4.340314704250777
2025-03-25 11:18:53.841,-1.8178868855751793
2025-03-25 11:18:53.842,2.0777818156395242
2025-03-25 11:18:53.842,2.939283820515476
2025-03-25 11:18:53.842,0.6272579450052269
2025-03-25 11:18:53.842,-1.3188164061813672
2025-03-25 11:18:53.851,-0.7749638119448832
2025-03-25 11:18:53.851,0.5665735380754573
2025-03-25 11:18:53.852,0.3005188498819535
2025-03-25 11:18:53.852,-1.0471303347790661
2025-03-25 11:18:53.852,-1.0539758886904638
2025-03-25 11:18:53.861,0.6900003167094051
2025-03-25 11:18:53.862,1.7082072706045808
2025-03-25 11:18:53.862,0.22219210931591388
2025-03-25 11:18:53.862,-1.9339902131866618
2025-03-25 11:18:53.862,-1.473361991352943
2025-03-25 11:18:53.871,1.734541903584757
2025-03-25 11:18:53.872,3.834297486727843
2025-03-25 11:18:53.872,1.487335351625972
2025-03-25 11:18:53.872,-3.607352585208787
2025-03-25 11:18:53.872,-5.957797950126961
2025-03-25 11:18:53.881,-2.398650360904394
2025-03-25 11:18:53.882,3.932887139944932
2025-03-25 11:18:53.882,6.7322467643136
2025-03-25 11:18:53.882,3.34108905589008
2025-03-25 11:18:53.882,-2.595781367581251
2025-03-25 11:18:53.891,-5.288183759969283
2025-03-25 11:18:53.892,-2.7314832601094716
2025-03-25 11:18:53.892,1.6739187256833443
2025-03-25 11:18:53.892,2.9334967856610414
2025-03-25 11:18:53.892,-0.10700498028445182
2025-03-25 11:18:53.901,-3.2043399304053812
2025-03-25 11:18:53.902,-1.5106778907490934
2025-03-25 11:18:53.902,3.9396128972724034
2025-03-25 11:18:53.902,6.393994244838397
2025-03-25 11:18:53.902,1.4682900966919963
2025-03-25 11:18:53.911,-6.460030019276885
2025-03-25 11:18:53.912,-8.519232143297321
2025-03-25 11:18:53.912,-1.8911876254070976
2025-03-25 11:18:53.912,6.477633985713743
2025-03-25 11:18:53.912,7.884631869877461
2025-03-25 11:18:53.921,1.7023080725033877
2025-03-25 11:18:53.921,-4.775345938950845
2025-03-25 11:18:53.922,-5.296629192746643
2025-03-25 11:18:53.922,-0.929550371979999
2025-03-25 11:18:53.922,2.846924187989886
2025-03-25 11:18:53.930,2.8675557619418948
2025-03-25 11:18:53.930,0.5155822984405505
2025-03-25 11:18:53.930,-1.366126843546057
2025-03-25 11:18:53.930,-1.631671830175358
2025-03-25 11:18:53.931,-0.8583445081347788
2025-03-25 11:18:53.941,0.1361969201225881
2025-03-25 11:18:53.942,0.9141764432546136
2025-03-25 11:18:53.942,1.2162399807847675
2025-03-25 11:18:53.942,0.953761582222647
2025-03-25 11:18:53.942,0.2918140914998442
2025-03-25 11:18:53.950,-0.6175959635788899
2025-03-25 11:18:53.950,-1.6640562665086414
2025-03-25 11:18:53.950,-2.1757302791137683
2025-03-25 11:18:53.950,-0.9876180640906649
2025-03-25 11:18:53.950,1.866801017107908
2025-03-25 11:18:53.959,3.9679007733723615
2025-03-25 11:18:53.960,2.5937504952531247
2025-03-25 11:18:53.960,-1.6049707196351815
2025-03-25 11:18:53.960,-4.460285364422456
2025-03-25 11:18:53.970,-2.9244627390385576
2025-03-25 11:18:53.970,1.0705204153991057
2025-03-25 11:18:53.970,2.9172864965166427
2025-03-25 11:18:53.970,1.188494613120102
2025-03-25 11:18:53.970,-0.7549543330122687
2025-03-25 11:18:53.971,0.20644865651423105
2025-03-25 11:18:53.980,2.2106712803370545
2025-03-25 11:18:53.980,0.9992408163483629
2025-03-25 11:18:53.980,-3.372716304758868
2025-03-25 11:18:53.980,-5.4548685603710885
2025-03-25 11:18:53.990,-1.432951677130901
2025-03-25 11:18:53.990,4.994671881510854
2025-03-25 11:18:53.990,6.518118878806318
2025-03-25 11:18:53.990,1.3692648312690126
2025-03-25 11:18:53.990,-4.404241870094889
2025-03-25 11:18:53.999,-4.667952063620048
2025-03-25 11:18:54.000,-0.5769121737543572
2025-03-25 11:18:54.000,1.9968624811715288
2025-03-25 11:18:54.000,0.7640050842672887
2025-03-25 11:18:54.000,-0.6402561846014677
2025-03-25 11:18:54.009,1.0425500183343328
2025-03-25 11:18:54.010,3.3665867772970177
2025-03-25 11:18:54.010,1.714195759939709
2025-03-25 11:18:54.010,-3.371022777491481
2025-03-25 11:18:54.010,-5.8307238223962345
2025-03-25 11:18:54.019,-1.9148802295821767
2025-03-25 11:18:54.020,4.282505859283363
2025-03-25 11:18:54.020,5.5482685694536285
2025-03-25 11:18:54.020,0.7420021334173643
2025-03-25 11:18:54.020,-3.820930126492659
2025-03-25 11:18:54.029,-2.806938321021122
2025-03-25 11:18:54.030,1.3503329452764228
2025-03-25 11:18:54.030,2.4726393485596763
2025-03-25 11:18:54.030,-0.6263297830123398
2025-03-25 11:18:54.030,-3.046279816136139
2025-03-25 11:18:54.039,-1.1542199756586418
2025-03-25 11:18:54.039,2.572942238943398
2025-03-25 11:18:54.040,3.40541492177728
2025-03-25 11:18:54.040,0.5739821956473801
2025-03-25 11:18:54.040,-2.3975497611721552
2025-03-25 11:18:54.049,-2.442700027644183
2025-03-25 11:18:54.049,-0.20973289194086425
2025-03-25 11:18:54.050,1.3497876937857654
2025-03-25 11:18:54.050,0.5860008616119581
2025-03-25 11:18:54.050,-1.0630521971177942
2025-03-25 11:18:54.059,-0.8806649501775846
2025-03-25 11:18:54.060,1.5536916669276377
2025-03-25 11:18:54.060,3.2475151931268873
2025-03-25 11:18:54.060,1.2475900831094748
2025-03-25 11:18:54.060,-3.0828510115653036
2025-03-25 11:18:54.069,-4.913615903691226
2025-03-25 11:18:54.070,-1.7542677374876798
2025-03-25 11:18:54.070,3.1435401677458708
2025-03-25 11:18:54.070,4.657290776849906
2025-03-25 11:18:54.070,1.9517719674574066
2025-03-25 11:18:54.078,-1.3189551434844502
2025-03-25 11:18:54.078,-2.4094495585784483
2025-03-25 11:18:54.078,-2.2323693427107205
2025-03-25 11:18:54.078,-2.057977940562125
2025-03-25 11:18:54.078,-0.6344016749407007
2025-03-25 11:18:54.088,2.9208214243449544
2025-03-25 11:18:54.088,5.522874403932809
2025-03-25 11:18:54.088,3.091112389595298
2025-03-25 11:18:54.088,-3.1916699391218213
2025-03-25 11:18:54.088,-7.028132409661292
2025-03-25 11:18:54.099,-4.390657810672988
2025-03-25 11:18:54.099,1.8128949943495816
2025-03-25 11:18:54.100,5.728148701158195
2025-03-25 11:18:54.100,4.925635124223227
2025-03-25 11:18:54.100,1.145563707448111
2025-03-25 11:18:54.108,-3.0108825785881184
2025-03-25 11:18:54.108,-5.420926013482481
2025-03-25 11:18:54.108,-4.040317071008859
2025-03-25 11:18:54.108,1.181181434357292
2025-03-25 11:18:54.109,6.006807241947694
2025-03-25 11:18:54.118,5.1235472115501315
2025-03-25 11:18:54.118,-1.073145851256557
2025-03-25 11:18:54.118,-5.83030364224613
2025-03-25 11:18:54.118,-4.082903461576467
2025-03-25 11:18:54.127,1.3267775696848565
2025-03-25 11:18:54.128,3.9498242924821936
2025-03-25 11:18:54.128,2.1290089865648394
2025-03-25 11:18:54.128,-0.2987865729570579
2025-03-25 11:18:54.128,-0.6103107970138627
2025-03-25 11:18:54.137,-0.46194104120488033
2025-03-25 11:18:54.138,-1.7930112183500808
2025-03-25 11:18:54.138,-2.8966454039405582
2025-03-25 11:18:54.138,-0.9233210960915839
2025-03-25 11:18:54.138,3.3021556393636153
2025-03-25 11:18:54.147,5.415208634982913
2025-03-25 11:18:54.148,2.4979388283232717
2025-03-25 11:18:54.148,-3.337148906120958
2025-03-25 11:18:54.148,-6.678991624725901
2025-03-25 11:18:54.148,-3.9524173652235604
2025-03-25 11:18:54.157,2.7709453939943907
2025-03-25 11:18:54.158,7.057975625969576
2025-03-25 11:18:54.158,4.323340304062532
2025-03-25 11:18:54.158,-2.7764218138574916
2025-03-25 11:18:54.158,-6.605190855008489
2025-03-25 11:18:54.167,-3.204596637211174
2025-03-25 11:18:54.168,2.9856439311926253
2025-03-25 11:18:54.168,4.848947084594784
2025-03-25 11:18:54.168,1.3871991241502735
2025-03-25 11:18:54.168,-2.1143325337021257
2025-03-25 11:18:54.177,-1.9071274666375477
2025-03-25 11:18:54.178,-0.03194321642425016
2025-03-25 11:18:54.178,0.09612390400913938
2025-03-25 11:18:54.178,-1.0349485755191978
2025-03-25 11:18:54.178,-0.5776356211694545
2025-03-25 11:18:54.187,1.7037258388538155
2025-03-25 11:18:54.187,2.8244978347776826
2025-03-25 11:18:54.188,0.8276459015401413
2025-03-25 11:18:54.188,-2.3749218719561496
2025-03-25 11:18:54.188,-3.2105741293584233
2025-03-25 11:18:54.196,-0.6595583155554468
2025-03-25 11:18:54.196,2.5243158890469664
2025-03-25 11:18:54.196,2.786947098467407
2025-03-25 11:18:54.196,-0.31230557910058376
2025-03-25 11:18:54.197,-3.3690841863104506
2025-03-25 11:18:54.206,-2.6026716799126897
2025-03-25 11:18:54.206,1.7886949249397182
2025-03-25 11:18:54.206,5.196540823471255
2025-03-25 11:18:54.206,3.300004725810093
2025-03-25 11:18:54.206,-2.7628833942224857
2025-03-25 11:18:54.216,-6.87747534057221
2025-03-25 11:18:54.216,-4.363459835066631
2025-03-25 11:18:54.216,2.588033237029489
2025-03-25 11:18:54.216,6.956210658703514
2025-03-25 11:18:54.216,4.511435830735257
2025-03-25 11:18:54.226,-1.6469931961083604
2025-03-25 11:18:54.226,-4.9602511815646775
2025-03-25 11:18:54.226,-2.980110320975009
2025-03-25 11:18:54.226,0.6185448787306984
2025-03-25 11:18:54.236,1.6347367449647148
2025-03-25 11:18:54.236,0.5781480543064714
2025-03-25 11:18:54.236,0.5417101100895384
2025-03-25 11:18:54.236,1.6524822599318791
2025-03-25 11:18:54.236,0.9379916995370894
2025-03-25 11:18:54.236,-2.231893608054428
2025-03-25 11:18:54.246,-3.9304018181095217
2025-03-25 11:18:54.246,-0.8307158254620592
2025-03-25 11:18:54.246,4.361885283129063
2025-03-25 11:18:54.246,5.32384615344165
2025-03-25 11:18:54.256,-0.07437476003086585
2025-03-25 11:18:54.256,-6.416322450495492
2025-03-25 11:18:54.256,-6.425505679165119
2025-03-25 11:18:54.256,0.6612097232265137
2025-03-25 11:18:54.256,7.740545180292944
2025-03-25 11:18:54.265,7.3047241075444305
2025-03-25 11:18:54.266,-0.45276496361220475
2025-03-25 11:18:54.266,-7.78406571495971
2025-03-25 11:18:54.266,-7.525033723731811
2025-03-25 11:18:54.266,-0.32401657198733297
2025-03-25 11:18:54.275,6.572384691722139
2025-03-25 11:18:54.276,6.99973059550486
2025-03-25 11:18:54.276,1.3975119257782394
2025-03-25 11:18:54.276,-4.831731012014842
2025-03-25 11:18:54.276,-6.708591669663861
2025-03-25 11:18:54.285,-3.0504694428301047
2025-03-25 11:18:54.286,3.3904562129859963
2025-03-25 11:18:54.286,7.529346196378211
2025-03-25 11:18:54.286,5.273234911949648
2025-03-25 11:18:54.286,-2.29527751528804
2025-03-25 11:18:54.295,-8.453963173445512
2025-03-25 11:18:54.296,-6.898702942588523
2025-03-25 11:18:54.296,1.1785236868735556
2025-03-25 11:18:54.296,7.726033523899546
2025-03-25 11:18:54.296,6.435064464958188
2025-03-25 11:18:54.305,-0.47152869029369143
2025-03-25 11:18:54.306,-5.240183335290463
2025-03-25 11:18:54.306,-3.6118014126557556
2025-03-25 11:18:54.306,0.9647120490278651
2025-03-25 11:18:54.306,2.5051518742876135
2025-03-25 11:18:54.315,-0.026153779582771153
2025-03-25 11:18:54.316,-2.3106469812698958
2025-03-25 11:18:54.316,-0.9944114984571102
2025-03-25 11:18:54.316,2.1551353534201576
2025-03-25 11:18:54.316,3.192104750750928
2025-03-25 11:18:54.324,1.0837084871835558
2025-03-25 11:18:54.324,-1.7280404600941068
2025-03-25 11:18:54.324,-2.7669017718315114
2025-03-25 11:18:54.324,-1.8506719534102232
2025-03-25 11:18:54.334,-0.2630502429353583
2025-03-25 11:18:54.334,1.0491362193093376
2025-03-25 11:18:54.334,1.9879200867052766
2025-03-25 11:18:54.334,2.4293560600391726
2025-03-25 11:18:54.335,1.5011532908125558
2025-03-25 11:18:54.335,-1.345760557487572
2025-03-25 11:18:54.344,-4.292412914965538
2025-03-25 11:18:54.344,-3.792631003374124
2025-03-25 11:18:54.344,0.9841080012835044
2025-03-25 11:18:54.344,5.480219442766683
2025-03-25 11:18:54.345,4.3049823159651845
2025-03-25 11:18:54.354,-1.5750843506421748
2025-03-25 11:18:54.354,-5.246025394130578
2025-03-25 11:18:54.354,-2.516863839234388
2025-03-25 11:18:54.354,2.644741374544372
2025-03-25 11:18:54.364,3.545544771955649
2025-03-25 11:18:54.364,-0.3921646022739842
2025-03-25 11:18:54.364,-3.3899764712534957
2025-03-25 11:18:54.364,-1.4436073484293848
2025-03-25 11:18:54.364,2.601678058123581
2025-03-25 11:18:54.373,3.391417233823418
2025-03-25 11:18:54.374,0.14829153778473494
2025-03-25 11:18:54.374,-2.9456772421831565
2025-03-25 11:18:54.374,-2.596278286826799
2025-03-25 11:18:54.374,-0.08922611447924136
2025-03-25 11:18:54.384,1.3874949025704402
2025-03-25 11:18:54.384,1.0831486853343257
2025-03-25 11:18:54.384,0.7474509327350696
2025-03-25 11:18:54.384,1.2414147667353799
2025-03-25 11:18:54.384,1.056402059429155
2025-03-25 11:18:54.394,-1.1724217507727994
2025-03-25 11:18:54.394,-3.836528693655169
2025-03-25 11:18:54.394,-3.493765194728298
2025-03-25 11:18:54.394,0.8219714137953914
2025-03-25 11:18:54.394,5.42072891082165
2025-03-25 11:18:54.403,5.350175867848371
2025-03-25 11:18:54.404,0.07306511443231917
2025-03-25 11:18:54.404,-5.381482708823975
2025-03-25 11:18:54.404,-5.682831199481199
2025-03-25 11:18:54.404,-0.9154607075269234
2025-03-25 11:18:54.414,3.883268174421771
2025-03-25 11:18:54.414,4.438570333996426
2025-03-25 11:18:54.414,1.2965975737595659
2025-03-25 11:18:54.414,-1.8408239571026648
2025-03-25 11:18:54.414,-2.4863376722911297
2025-03-25 11:18:54.424,-1.2054092379142705
2025-03-25 11:18:54.424,0.15352132377364885
2025-03-25 11:18:54.424,0.728151511558599
2025-03-25 11:18:54.424,0.8413692642485735
2025-03-25 11:18:54.424,0.8161393937971412
2025-03-25 11:18:54.433,0.4649122727098207
2025-03-25 11:18:54.434,-0.300170444067748
2025-03-25 11:18:54.434,-1.0111807277267373
2025-03-25 11:18:54.434,-1.094750197154302
2025-03-25 11:18:54.434,-0.46835976178241456
2025-03-25 11:18:54.444,0.5053551429349895
2025-03-25 11:18:54.444,1.320758198100993
2025-03-25 11:18:54.444,1.3794441046266868
2025-03-25 11:18:54.444,0.2670408002775244
2025-03-25 11:18:54.444,-1.4500195788250259
2025-03-25 11:18:54.453,-2.1175789576378787
2025-03-25 11:18:54.454,-0.6307259714339182
2025-03-25 11:18:54.454,1.7816481161610005
2025-03-25 11:18:54.454,2.418290297449397
2025-03-25 11:18:54.454,0.29111814585964313
2025-03-25 11:18:54.464,-2.309610715923082
2025-03-25 11:18:54.464,-2.3107619733026445
2025-03-25 11:18:54.464,0.4109697712890622
2025-03-25 11:18:54.464,2.758526285062553
2025-03-25 11:18:54.464,2.034409236642766
2025-03-25 11:18:54.473,-0.9433339125367023
2025-03-25 11:18:54.474,-2.8736546974336656
2025-03-25 11:18:54.474,-1.7468828122201507
2025-03-25 11:18:54.474,1.0738487831087988
2025-03-25 11:18:54.474,2.6013865221175116
2025-03-25 11:18:54.483,1.4733582809099526
2025-03-25 11:18:54.484,-0.9369172594785674
2025-03-25 11:18:54.484,-2.264697861669747
2025-03-25 11:18:54.484,-1.411578985322796
2025-03-25 11:18:54.484,0.7690712000391585
2025-03-25 11:18:54.492,2.349300396485512
2025-03-25 11:18:54.492,1.834401849925154
2025-03-25 11:18:54.492,-0.523279397095861
2025-03-25 11:18:54.493,-2.660634619055853
2025-03-25 11:18:54.493,-2.498198105283003
2025-03-25 11:18:54.502,-0.1235100751947167
2025-03-25 11:18:54.502,2.2226029508362504
2025-03-25 11:18:54.502,2.5729901867249647
2025-03-25 11:18:54.502,1.1399821628486513
2025-03-25 11:18:54.503,-0.5106455309337532
2025-03-25 11:18:54.512,-1.4678142296828902
2025-03-25 11:18:54.512,-1.8385143842714913
2025-03-25 11:18:54.512,-1.585513308747571
2025-03-25 11:18:54.512,-0.31314028464977706
2025-03-25 11:18:54.521,1.5182976708695184
2025-03-25 11:18:54.522,2.367683382646254
2025-03-25 11:18:54.522,1.4273931240694704
2025-03-25 11:18:54.522,-0.16529208291168299
2025-03-25 11:18:54.522,-0.9193363151591575
2025-03-25 11:18:54.531,-1.0517969426947156
2025-03-25 11:18:54.532,-1.585963130254824
2025-03-25 11:18:54.532,-1.9160336044613362
2025-03-25 11:18:54.532,-0.2831040370815845
2025-03-25 11:18:54.532,2.909869201745595
2025-03-25 11:18:54.541,4.273686591807547
2025-03-25 11:18:54.542,1.4313620831677458
2025-03-25 11:18:54.542,-3.2771523627533243
2025-03-25 11:18:54.542,-4.955342701358911
2025-03-25 11:18:54.542,-1.8645520886660114
2025-03-25 11:18:54.551,2.6278435103882156
2025-03-25 11:18:54.552,4.167262769924247
2025-03-25 11:18:54.552,2.0651604555014167
2025-03-25 11:18:54.552,-0.9920799840064596
2025-03-25 11:18:54.552,-2.656278187253991
2025-03-25 11:18:54.561,-2.737921666137605
2025-03-25 11:18:54.562,-1.7100860995206197
2025-03-25 11:18:54.562,0.5683061089180738
2025-03-25 11:18:54.562,3.5818166073089266
2025-03-25 11:18:54.562,4.915160902848106
2025-03-25 11:18:54.570,2.2387661297071872
2025-03-25 11:18:54.570,-3.2588107347935305
2025-03-25 11:18:54.570,-6.892588090123917
2025-03-25 11:18:54.570,-4.9784577298976505
2025-03-25 11:18:54.571,1.0837919887468341
2025-03-25 11:18:54.580,6.0055646913834
2025-03-25 11:18:54.580,5.89858929831922
2025-03-25 11:18:54.580,1.7929168054865616
2025-03-25 11:18:54.580,-2.286601892888147
2025-03-25 11:18:54.581,-3.8842040891312024
2025-03-25 11:18:54.590,-3.628853160278466
2025-03-25 11:18:54.590,-2.5654838774954993
2025-03-25 11:18:54.590,-0.12470030442894195
2025-03-25 11:18:54.590,3.8130245897224393
2025-03-25 11:18:54.600,6.333879784514551
2025-03-25 11:18:54.600,3.7612713989177986
2025-03-25 11:18:54.600,-2.9998429338659034
2025-03-25 11:18:54.600,-7.674075271867999
2025-03-25 11:18:54.600,-5.076832259351362
2025-03-25 11:18:54.610,2.4000905068980027
2025-03-25 11:18:54.610,6.8052410214482855
2025-03-25 11:18:54.610,3.61218681835628
2025-03-25 11:18:54.610,-2.9404580113123817
2025-03-25 11:18:54.610,-4.936245929110435
2025-03-25 11:18:54.620,-0.3628286922601017
2025-03-25 11:18:54.620,4.5632074440386505
2025-03-25 11:18:54.620,3.2523323092697174
2025-03-25 11:18:54.620,-2.962239893103956
2025-03-25 11:18:54.620,-6.372188883787129
2025-03-25 11:18:54.630,-2.34158924656318
2025-03-25 11:18:54.630,4.949756561913025
2025-03-25 11:18:54.630,7.361623098969957
2025-03-25 11:18:54.630,2.2075014656802523
2025-03-25 11:18:54.630,-4.971164673055179
2025-03-25 11:18:54.639,-6.970065380906244
2025-03-25 11:18:54.640,-2.5443999804648434
2025-03-25 11:18:54.640,3.291584935454149
2025-03-25 11:18:54.640,5.26000222780362
2025-03-25 11:18:54.640,2.6988053715997724
2025-03-25 11:18:54.649,-1.072687363160872
2025-03-25 11:18:54.649,-2.7470406963689857
2025-03-25 11:18:54.650,-1.8415672725679901
2025-03-25 11:18:54.650,-0.2338183071513757
2025-03-25 11:18:54.650,0.30405391619979216
2025-03-25 11:18:54.659,-0.13405804449586906
2025-03-25 11:18:54.660,-0.1468159855461975
2025-03-25 11:18:54.660,0.9701780279960348
2025-03-25 11:18:54.660,2.154786400860067
2025-03-25 11:18:54.660,1.7145516417189965
2025-03-25 11:18:54.668,-0.5884066922354778
2025-03-25 11:18:54.668,-2.8952659644182
2025-03-25 11:18:54.668,-2.960936357494602
2025-03-25 11:18:54.668,-0.5509067504624013
2025-03-25 11:18:54.678,2.1257069126990373
2025-03-25 11:18:54.678,2.655346645784859
2025-03-25 11:18:54.678,0.9546662671693525
2025-03-25 11:18:54.678,-0.8449290993858491
2025-03-25 11:18:54.679,-1.0213207139936589
2025-03-25 11:18:54.687,-0.13642819536901574
2025-03-25 11:18:54.688,0.10667380601176432
2025-03-25 11:18:54.688,-0.6652781834289669
2025-03-25 11:18:54.688,-1.0611583554157726
2025-03-25 11:18:54.688,-0.027636450751659308
2025-03-25 11:18:54.697,1.484075886706324
2025-03-25 11:18:54.698,1.619085369060908
2025-03-25 11:18:54.698,0.038421647553215824
2025-03-25 11:18:54.698,-1.5450045600897282
2025-03-25 11:18:54.698,-1.4085737526367126
2025-03-25 11:18:54.707,0.17166931100510924
2025-03-25 11:18:54.708,1.3877026934673031
2025-03-25 11:18:54.708,1.0641848023031577
2025-03-25 11:18:54.708,-0.22538579974968878
2025-03-25 11:18:54.708,-1.156170487466773
2025-03-25 11:18:54.718,-1.1055732262797333
2025-03-25 11:18:54.718,-0.3598474319924616
2025-03-25 11:18:54.718,0.5578651782294616
2025-03-25 11:18:54.718,1.261891509594273
2025-03-25 11:18:54.718,1.4382499222874727
2025-03-25 11:18:54.727,0.8151830310124667
2025-03-25 11:18:54.728,-0.6684974970105807
2025-03-25 11:18:54.728,-2.4632845825672134
2025-03-25 11:18:54.728,-3.099243183181684
2025-03-25 11:18:54.728,-1.0644234843712437
2025-03-25 11:18:54.737,3.0332086324061107
2025-03-25 11:18:54.738,5.665602066662186
2025-03-25 11:18:54.738,3.370344551680141
2025-03-25 11:18:54.738,-2.881228865739542
2025-03-25 11:18:54.738,-7.455698935886593
2025-03-25 11:18:54.747,-5.420229688805608
2025-03-25 11:18:54.748,1.9379804076863425
2025-03-25 11:18:54.748,7.813348570378059
2025-03-25 11:18:54.748,6.583106390969429
2025-03-25 11:18:54.748,-0.46541121761819026
2025-03-25 11:18:54.756,-6.549290883144747
2025-03-25 11:18:54.756,-6.3735056249809166
2025-03-25 11:18:54.756,-1.0691687316997225
2025-03-25 11:18:54.757,3.8793943387522516
2025-03-25 11:18:54.757,4.624847331360391
2025-03-25 11:18:54.766,2.010315357897051
2025-03-25 11:18:54.766,-0.7406257668614359
2025-03-25 11:18:54.766,-1.8364005136686765
2025-03-25 11:18:54.766,-1.7958648451265073
2025-03-25 11:18:54.776,-1.5195014871778751
2025-03-25 11:18:54.776,-0.8600535448737323
2025-03-25 11:18:54.776,0.6099444299698706
2025-03-25 11:18:54.776,2.228594663498485
2025-03-25 11:18:54.776,2.4623206375546682
2025-03-25 11:18:54.786,0.629091676843705
2025-03-25 11:18:54.786,-1.9378112361027808
2025-03-25 11:18:54.786,-2.8646632428510643
2025-03-25 11:18:54.786,-1.1293585017483814
2025-03-25 11:18:54.786,1.632196600878989
2025-03-25 11:18:54.795,2.6254434875344614
2025-03-25 11:18:54.796,0.8852604124517249
2025-03-25 11:18:54.796,-1.6052488993629752
2025-03-25 11:18:54.796,-2.1589383990613285
2025-03-25 11:18:54.796,-0.44075400981916923
2025-03-25 11:18:54.805,1.3656685158063395
2025-03-25 11:18:54.806,1.3963414717925304
2025-03-25 11:18:54.806,0.21503791048358756
2025-03-25 11:18:54.806,-0.4354977342050136
2025-03-25 11:18:54.806,-0.18808378508482101
2025-03-25 11:18:54.816,-0.19119794164849827
2025-03-25 11:18:54.816,-0.8970502171300303
2025-03-25 11:18:54.816,-1.1317213804480184
2025-03-25 11:18:54.816,0.03643338358945773
2025-03-25 11:18:54.816,1.6043340656639655
2025-03-25 11:18:54.825,1.8389705489846144
2025-03-25 11:18:54.826,0.5510857352627264
2025-03-25 11:18:54.826,-0.912428328297968
2025-03-25 11:18:54.826,-1.5622204654127503
2025-03-25 11:18:54.826,-1.4738292113520057
2025-03-25 11:18:54.835,-0.7671992636331318
2025-03-25 11:18:54.836,0.7079897176097891
2025-03-25 11:18:54.836,2.26177134228822
2025-03-25 11:18:54.836,2.2334940566652244
2025-03-25 11:18:54.836,0.0023169667547944944
2025-03-25 11:18:54.845,-2.537687845805238
2025-03-25 11:18:54.846,-2.696206258389665
2025-03-25 11:18:54.846,-0.18000184211742176
2025-03-25 11:18:54.846,2.3440970092342472
2025-03-25 11:18:54.846,2.2416091929696766
2025-03-25 11:18:54.854,-0.12029664984502361
2025-03-25 11:18:54.854,-1.959426649313776
2025-03-25 11:18:54.854,-1.3816552493030756
2025-03-25 11:18:54.854,0.5964246944536529
2025-03-25 11:18:54.855,1.5388382656081863
2025-03-25 11:18:54.864,0.5485654467098666
2025-03-25 11:18:54.864,-0.9101400269128758
2025-03-25 11:18:54.864,-1.0709144954575998
2025-03-25 11:18:54.864,0.002091586956733879
2025-03-25 11:18:54.873,0.8329020884877744
2025-03-25 11:18:54.874,0.6153283041604213
2025-03-25 11:18:54.874,0.0007009467848793013
2025-03-25 11:18:54.874,-0.22497260238889338
2025-03-25 11:18:54.874,-0.29061310540546686
2025-03-25 11:18:54.884,-0.6841836607295373
2025-03-25 11:18:54.884,-0.9306195799692226
2025-03-25 11:18:54.884,-0.09507889174796973
2025-03-25 11:18:54.884,1.5638263646784425
2025-03-25 11:18:54.884,2.3212737461111494
2025-03-25 11:18:54.893,0.8708182007461582
2025-03-25 11:18:54.894,-1.8242305098827938
2025-03-25 11:18:54.894,-3.169516298765389
2025-03-25 11:18:54.894,-1.6921672714178595
2025-03-25 11:18:54.894,1.1757094855338326
2025-03-25 11:18:54.903,2.594560617960116
2025-03-25 11:18:54.904,1.5342235869004357
2025-03-25 11:18:54.904,-0.22972489060093426
2025-03-25 11:18:54.904,-0.6110763264022642
2025-03-25 11:18:54.904,0.13930635441769076
2025-03-25 11:18:54.914,0.1211402594871893
2025-03-25 11:18:54.914,-1.3411576875355136
2025-03-25 11:18:54.914,-2.5808400468023067
2025-03-25 11:18:54.914,-1.528022637964985
2025-03-25 11:18:54.914,1.7448253847444308
2025-03-25 11:18:54.922,4.553540751507402
2025-03-25 11:18:54.922,3.7613037856731624
2025-03-25 11:18:54.922,-0.9093640882628099
2025-03-25 11:18:54.922,-5.534274677383883
2025-03-25 11:18:54.923,-5.216376686702837
2025-03-25 11:18:54.932,0.3590235484811244
2025-03-25 11:18:54.932,5.673321464748316
2025-03-25 11:18:54.932,5.1349494475808655
2025-03-25 11:18:54.932,-0.5417373857222303
2025-03-25 11:18:54.932,-5.234803358519984
2025-03-25 11:18:54.942,-4.35454551202923
2025-03-25 11:18:54.942,0.617511495470674
2025-03-25 11:18:54.942,4.471526936456683
2025-03-25 11:18:54.943,3.76251578304282
2025-03-25 11:18:54.943,-0.29253939119268974
2025-03-25 11:18:54.952,-3.4431900521485077
2025-03-25 11:18:54.952,-2.6974378898566016
2025-03-25 11:18:54.952,0.5439424516495907
2025-03-25 11:18:54.952,2.024536069993615
2025-03-25 11:18:54.962,-0.07187945293270476
2025-03-25 11:18:54.962,-2.375742678035241
2025-03-25 11:18:54.962,-0.5832786493640916
2025-03-25 11:18:54.962,4.0942575961526115
2025-03-25 11:18:54.962,5.382066871759504
2025-03-25 11:18:54.972,-0.05760932338735961
2025-03-25 11:18:54.972,-7.213537324645314
2025-03-25 11:18:54.972,-7.780217637567167
2025-03-25 11:18:54.972,-0.17701008054495226
2025-03-25 11:18:54.972,7.922452203530435
2025-03-25 11:18:54.982,8.05829250190309
2025-03-25 11:18:54.982,0.43265013098403377
2025-03-25 11:18:54.982,-6.704667655133648
2025-03-25 11:18:54.982,-6.460867679746218
2025-03-25 11:18:54.982,-0.25344804778951247
2025-03-25 11:18:54.991,4.9191589489372625
2025-03-25 11:18:54.992,4.453001414940251
2025-03-25 11:18:54.992,0.08703902694176147
2025-03-25 11:18:54.992,-3.2882648073374017
2025-03-25 11:18:54.992,-3.010447163533371
2025-03-25 11:18:55.002,-0.37758620389546654
2025-03-25 11:18:55.002,1.7897222934120827
2025-03-25 11:18:55.002,2.046158809480822
2025-03-25 11:18:55.002,0.863775528954002
2025-03-25 11:18:55.002,-0.5649377959510847
2025-03-25 11:18:55.011,-1.2891612316366936
2025-03-25 11:18:55.012,-0.8617138480743564
2025-03-25 11:18:55.012,0.34562902628593967
2025-03-25 11:18:55.012,1.023326183209683
2025-03-25 11:18:55.012,0.10495865040153232
2025-03-25 11:18:55.021,-1.526078097595713
2025-03-25 11:18:55.022,-1.5410674621163039
2025-03-25 11:18:55.022,0.7851375143348571
2025-03-25 11:18:55.022,2.989929788017195
2025-03-25 11:18:55.022,2.2256163068401547
2025-03-25 11:18:55.031,-0.9154135097758105
2025-03-25 11:18:55.032,-2.961706328672974
2025-03-25 11:18:55.032,-1.9248008256196534
2025-03-25 11:18:55.032,0.4334664750378054
2025-03-25 11:18:55.032,1.2282305959058917
2025-03-25 11:18:55.041,0.14522567801233244
2025-03-25 11:18:55.042,-0.5642690136813138
2025-03-25 11:18:55.042,0.6162192691014728
2025-03-25 11:18:55.042,2.2981858513091398
2025-03-25 11:18:55.042,1.8623323020225153
2025-03-25 11:18:55.051,-1.1032627032369116
2025-03-25 11:18:55.052,-3.8456599117716603
2025-03-25 11:18:55.052,-3.3265936464708914
2025-03-25 11:18:55.052,0.2918959744752171
2025-03-25 11:18:55.052,3.631026615865669
2025-03-25 11:18:55.060,3.6300960729502174
2025-03-25 11:18:55.060,0.6458429890672138
2025-03-25 11:18:55.060,-2.221708949300907
2025-03-25 11:18:55.060,-2.5320406446428114
2025-03-25 11:18:55.061,-0.7369430853257506
2025-03-25 11:18:55.070,0.8952282464207604
2025-03-25 11:18:55.070,0.9346372837848491
2025-03-25 11:18:55.070,-0.03011247543351646
2025-03-25 11:18:55.070,-0.514288897633215
2025-03-25 11:18:55.071,0.11746086853508575
2025-03-25 11:18:55.080,1.0689198005582496
2025-03-25 11:18:55.080,1.0140815274224697
2025-03-25 11:18:55.080,-0.41630035371435253
2025-03-25 11:18:55.080,-1.9674187084852695
2025-03-25 11:18:55.090,-1.8392439900186293
2025-03-25 11:18:55.090,0.30862474349489344
2025-03-25 11:18:55.090,2.641773620846412
2025-03-25 11:18:55.090,2.779123591557968
2025-03-25 11:18:55.091,0.1965909327229743
2025-03-25 11:18:55.091,-2.990795381626753
2025-03-25 11:18:55.100,-3.7178550453394656
2025-03-25 11:18:55.100,-0.9296963575493035
2025-03-25 11:18:55.100,2.8575072713124827
2025-03-25 11:18:55.100,3.7225641797753406
2025-03-25 11:18:55.101,0.8139715337640729
2025-03-25 11:18:55.110,-2.2401077652577874
2025-03-25 11:18:55.110,-1.7408918514961635
2025-03-25 11:18:55.110,1.0559284204900299
2025-03-25 11:18:55.110,1.5054249745390347
2025-03-25 11:18:55.120,-1.7505372297257435
2025-03-25 11:18:55.120,-4.2306681855113135
2025-03-25 11:18:55.120,-1.355236376778134
2025-03-25 11:18:55.120,4.846481120836503
2025-03-25 11:18:55.120,7.25783437659846
