timestamp,bandpass_and_notch
2025-03-23 10:16:58.724,-0.3191472868893496
2025-03-23 10:16:58.724,2.2674445973921844
2025-03-23 10:16:58.724,4.7845395914196445
2025-03-23 10:16:58.724,-0.2694519736712117
2025-03-23 10:16:58.733,-13.540743096363954
2025-03-23 10:16:58.734,-17.00948403320666
2025-03-23 10:16:58.734,5.344842890222708
2025-03-23 10:16:58.734,37.34500485108041
2025-03-23 10:16:58.734,39.939783913787885
2025-03-23 10:16:58.742,-1.4464520001267391
2025-03-23 10:16:58.742,-50.98525498165655
2025-03-23 10:16:58.742,-56.991717968168984
2025-03-23 10:16:58.742,-10.027994275000674
2025-03-23 10:16:58.750,44.59872005826238
2025-03-23 10:16:58.750,55.43639713632971
2025-03-23 10:16:58.750,18.066305395496062
2025-03-23 10:16:58.750,-26.03433508854644
2025-03-23 10:16:58.760,-37.78357694150194
2025-03-23 10:16:58.760,-17.51613349651103
2025-03-23 10:16:58.760,6.178818647101615
2025-03-23 10:16:58.760,13.106584948640307
2025-03-23 10:16:58.760,7.990310607960188
2025-03-23 10:16:58.769,4.742661748312809
2025-03-23 10:16:58.770,6.029258861805395
2025-03-23 10:16:58.770,3.8269084377804
2025-03-23 10:16:58.770,-5.2706626703333574
2025-03-23 10:16:58.770,-13.34759251174099
2025-03-23 10:16:58.779,-11.025824591903264
2025-03-23 10:16:58.780,0.6192468126721318
2025-03-23 10:16:58.780,11.160323786411551
2025-03-23 10:16:58.780,12.110696095629162
2025-03-23 10:16:58.780,4.430157386192264
2025-03-23 10:16:58.788,-4.489215258236112
2025-03-23 10:16:58.788,-8.4335372441078
2025-03-23 10:16:58.788,-6.30888425958979
2025-03-23 10:16:58.789,-1.0003378326555863
2025-03-23 10:16:58.789,3.474236500235751
2025-03-23 10:16:58.798,4.452990206780772
2025-03-23 10:16:58.798,2.41256210831624
2025-03-23 10:16:58.798,0.450167352416708
2025-03-23 10:16:58.799,0.4836277608697856
2025-03-23 10:16:58.799,0.2566522531385817
2025-03-23 10:16:58.808,-3.3556055176273394
2025-03-23 10:16:58.808,-7.808997591311671
2025-03-23 10:16:58.808,-5.672648751351984
2025-03-23 10:16:58.808,5.103514311162651
2025-03-23 10:16:58.816,14.81651802873925
2025-03-23 10:16:58.816,11.192481478084686
2025-03-23 10:16:58.816,-4.965675814364753
2025-03-23 10:16:58.817,-18.09074217685481
2025-03-23 10:16:58.817,-14.383453906410933
2025-03-23 10:16:58.826,2.5947386820553247
2025-03-23 10:16:58.826,15.93330859261805
2025-03-23 10:16:58.826,13.828670588060149
2025-03-23 10:16:58.827,0.7888307119771009
2025-03-23 10:16:58.836,-9.665203398082317
2025-03-23 10:16:58.836,-9.850031506464779
2025-03-23 10:16:58.836,-3.200781984924279
2025-03-23 10:16:58.836,2.779072798105083
2025-03-23 10:16:58.836,4.673081992076381
2025-03-23 10:16:58.846,3.7333341951413144
2025-03-23 10:16:58.846,1.7802914640368044
2025-03-23 10:16:58.846,-0.6066941788590046
2025-03-23 10:16:58.846,-2.6726184648188855
2025-03-23 10:16:58.847,-2.964429030416494
2025-03-23 10:16:58.856,-1.1413278544112853
2025-03-23 10:16:58.856,1.0335865868754517
2025-03-23 10:16:58.856,1.5937058121255587
2025-03-23 10:16:58.856,0.659637776656333
2025-03-23 10:16:58.857,-0.04597626998985928
2025-03-23 10:16:58.857,0.3980983612685048
2025-03-23 10:16:58.866,1.0580785492413542
2025-03-23 10:16:58.866,0.4860517084898106
2025-03-23 10:16:58.866,-1.414799937002837
2025-03-23 10:16:58.866,-2.9697634169512757
2025-03-23 10:16:58.876,-2.1837857067421353
2025-03-23 10:16:58.876,1.0269108032940493
2025-03-23 10:16:58.876,4.07828283484726
2025-03-23 10:16:58.876,3.919062431965851
2025-03-23 10:16:58.876,0.3139178341627047
2025-03-23 10:16:58.886,-3.615286239695573
2025-03-23 10:16:58.886,-4.454475155261193
2025-03-23 10:16:58.886,-1.7372032886073812
2025-03-23 10:16:58.886,1.9601454144925454
2025-03-23 10:16:58.886,3.6106156295234157
2025-03-23 10:16:58.896,2.2518196777086996
2025-03-23 10:16:58.896,-0.4949656530388667
2025-03-23 10:16:58.896,-2.048384355103615
2025-03-23 10:16:58.896,-1.3517887072367702
2025-03-23 10:16:58.896,0.12147966605823228
2025-03-23 10:16:58.906,0.320917973298387
2025-03-23 10:16:58.906,-0.5365672323373107
2025-03-23 10:16:58.906,-0.2993513902280483
2025-03-23 10:16:58.906,1.5312385326525624
2025-03-23 10:16:58.906,2.315446629233142
2025-03-23 10:16:58.916,-0.038146903247187725
2025-03-23 10:16:58.916,-3.2767422932933674
2025-03-23 10:16:58.916,-3.1568250214610756
2025-03-23 10:16:58.916,0.7680617024340382
2025-03-23 10:16:58.916,4.225344203590637
2025-03-23 10:16:58.926,3.5108379019442433
2025-03-23 10:16:58.926,-0.46283310440060166
2025-03-23 10:16:58.926,-4.058040821329854
2025-03-23 10:16:58.926,-4.702055980461771
2025-03-23 10:16:58.926,-1.885083374869738
2025-03-23 10:16:58.936,3.1523986096999117
2025-03-23 10:16:58.936,6.9548794576217965
2025-03-23 10:16:58.936,5.3476224660652125
2025-03-23 10:16:58.936,-1.798541444047392
2025-03-23 10:16:58.936,-8.423084579531624
2025-03-23 10:16:58.945,-7.792827837287399
2025-03-23 10:16:58.946,-0.1618030706227343
2025-03-23 10:16:58.946,7.2080285288194625
2025-03-23 10:16:58.946,7.873546891232279
2025-03-23 10:16:58.946,2.356001659910354
2025-03-23 10:16:58.954,-3.6970803613507406
2025-03-23 10:16:58.954,-5.684154244938886
2025-03-23 10:16:58.954,-3.5246562253187537
2025-03-23 10:16:58.955,-0.14202532043361654
2025-03-23 10:16:58.955,2.098392903153124
2025-03-23 10:16:58.964,3.004879257135846
2025-03-23 10:16:58.964,3.070696648609949
2025-03-23 10:16:58.964,1.704550762914668
2025-03-23 10:16:58.965,-1.60761487633808
2025-03-23 10:16:58.965,-4.831897119021934
2025-03-23 10:16:58.974,-4.415287253062679
2025-03-23 10:16:58.974,0.1995770725583607
2025-03-23 10:16:58.974,4.8588852496932455
2025-03-23 10:16:58.975,5.081165828957225
2025-03-23 10:16:58.975,1.1379106876067238
2025-03-23 10:16:58.984,-2.7448944374988757
2025-03-23 10:16:58.984,-3.526011997836954
2025-03-23 10:16:58.984,-1.9894285750343403
2025-03-23 10:16:58.985,-0.4186407420493915
2025-03-23 10:16:58.994,0.5134686643551547
2025-03-23 10:16:58.994,1.5707563460068161
2025-03-23 10:16:58.994,2.690725776864077
2025-03-23 10:16:58.994,2.4214965984367076
2025-03-23 10:16:58.994,-0.03545026385062117
2025-03-23 10:16:59.004,-3.0834759119591273
2025-03-23 10:16:59.004,-3.923330484125816
2025-03-23 10:16:59.004,-1.531713110378299
2025-03-23 10:16:59.004,2.0846273483362325
2025-03-23 10:16:59.005,3.8264739177309512
2025-03-23 10:16:59.014,2.3896966657721577
2025-03-23 10:16:59.014,-0.8139818115902894
2025-03-23 10:16:59.014,-3.0739621500413765
2025-03-23 10:16:59.014,-2.5697469430268725
2025-03-23 10:16:59.014,0.12584492410210027
2025-03-23 10:16:59.024,2.381339971642018
2025-03-23 10:16:59.024,2.071738218365392
2025-03-23 10:16:59.024,0.03639848587499042
2025-03-23 10:16:59.024,-1.0986146141324613
2025-03-23 10:16:59.024,-0.6774342972114058
2025-03-23 10:16:59.034,-0.6481545861790402
2025-03-23 10:16:59.034,-1.67228453865898
2025-03-23 10:16:59.034,-1.2341461517354124
2025-03-23 10:16:59.034,2.138163428407988
2025-03-23 10:16:59.034,4.978056048294472
2025-03-23 10:16:59.044,2.7262070310079656
2025-03-23 10:16:59.044,-3.296050169385661
2025-03-23 10:16:59.044,-6.4962520758916895
2025-03-23 10:16:59.044,-3.230202447766363
2025-03-23 10:16:59.044,2.736944893540343
2025-03-23 10:16:59.054,5.328250723212842
2025-03-23 10:16:59.054,3.067410909173646
2025-03-23 10:16:59.054,-0.9036612387827153
2025-03-23 10:16:59.054,-3.3741063046915882
2025-03-23 10:16:59.054,-3.155302830458993
2025-03-23 10:16:59.064,-0.35637226342266676
2025-03-23 10:16:59.064,3.326674276880271
2025-03-23 10:16:59.064,4.271093408177864
2025-03-23 10:16:59.064,0.17783548822351297
2025-03-23 10:16:59.064,-5.714356542957476
2025-03-23 10:16:59.074,-6.5317680204306425
2025-03-23 10:16:59.074,0.2576991675048556
2025-03-23 10:16:59.074,8.43677947546512
2025-03-23 10:16:59.074,9.02351639526002
2025-03-23 10:16:59.074,0.4970433558701323
2025-03-23 10:16:59.082,-8.945410644459878
2025-03-23 10:16:59.082,-10.06000901951483
2025-03-23 10:16:59.082,-2.171719763118297
2025-03-23 10:16:59.082,6.799578619743537
2025-03-23 10:16:59.092,8.858233966331287
2025-03-23 10:16:59.092,3.2221985262041852
2025-03-23 10:16:59.092,-4.144890985793649
2025-03-23 10:16:59.092,-6.647189052255294
2025-03-23 10:16:59.092,-2.720714163715801
2025-03-23 10:16:59.102,3.2420292321766953
2025-03-23 10:16:59.102,5.187178181162597
2025-03-23 10:16:59.102,1.3310961563783374
2025-03-23 10:16:59.102,-3.99821240020242
2025-03-23 10:16:59.102,-4.940767958931182
2025-03-23 10:16:59.112,-0.4195092220289103
2025-03-23 10:16:59.112,4.80266441865328
2025-03-23 10:16:59.112,5.340960890864497
2025-03-23 10:16:59.112,0.6842250676990791
2025-03-23 10:16:59.112,-4.694042248163873
2025-03-23 10:16:59.122,-5.934433278005048
2025-03-23 10:16:59.122,-2.0521845093991025
2025-03-23 10:16:59.122,3.656997836231051
2025-03-23 10:16:59.122,6.5059199742726
2025-03-23 10:16:59.122,4.015161753027264
2025-03-23 10:16:59.131,-2.011661527433045
2025-03-23 10:16:59.132,-6.483910579312308
2025-03-23 10:16:59.132,-5.268869632871456
2025-03-23 10:16:59.132,0.4754794339970859
2025-03-23 10:16:59.132,4.991932790786871
2025-03-23 10:16:59.141,4.139497225006942
2025-03-23 10:16:59.142,0.083314629302571
2025-03-23 10:16:59.142,-1.8992589165115343
2025-03-23 10:16:59.142,-0.5029432552317911
2025-03-23 10:16:59.142,0.45414951346224414
2025-03-23 10:16:59.151,-1.6055030299665376
2025-03-23 10:16:59.152,-3.585345652938362
2025-03-23 10:16:59.152,-1.112196186166287
2025-03-23 10:16:59.152,4.2517454681333575
2025-03-23 10:16:59.152,5.780178137658435
2025-03-23 10:16:59.161,0.43423425553291084
2025-03-23 10:16:59.162,-5.960998731422405
2025-03-23 10:16:59.162,-5.250807192265136
2025-03-23 10:16:59.162,2.281871521732997
2025-03-23 10:16:59.162,7.258017169243013
2025-03-23 10:16:59.172,2.780138116987645
2025-03-23 10:16:59.172,-6.114920047309685
2025-03-23 10:16:59.172,-8.069502623307235
2025-03-23 10:16:59.172,0.14480219101290454
2025-03-23 10:16:59.172,8.932331444200502
2025-03-23 10:16:59.180,7.620164359368003
2025-03-23 10:16:59.180,-2.214842648198058
2025-03-23 10:16:59.180,-8.982883329966729
2025-03-23 10:16:59.180,-5.5452790967701855
2025-03-23 10:16:59.181,2.912212240941693
2025-03-23 10:16:59.190,6.5386185840813
2025-03-23 10:16:59.190,2.691801925511901
2025-03-23 10:16:59.190,-2.6579965033663155
2025-03-23 10:16:59.191,-3.5152158560903755
2025-03-23 10:16:59.200,-0.40301893906589986
2025-03-23 10:16:59.200,2.009277235447331
2025-03-23 10:16:59.200,1.2603833528087305
2025-03-23 10:16:59.200,-0.7174446737632375
2025-03-23 10:16:59.201,-1.012489942607869
2025-03-23 10:16:59.209,0.43851094088444786
2025-03-23 10:16:59.210,1.1624179500587337
2025-03-23 10:16:59.210,-0.3141502496951297
2025-03-23 10:16:59.210,-2.2381423704996832
2025-03-23 10:16:59.210,-1.6036402882210523
2025-03-23 10:16:59.220,1.7365776999474007
2025-03-23 10:16:59.220,4.0120821305085705
2025-03-23 10:16:59.220,1.7829838947743808
2025-03-23 10:16:59.220,-3.156280301133292
2025-03-23 10:16:59.220,-5.028412154882353
2025-03-23 10:16:59.230,-1.0399052235415727
2025-03-23 10:16:59.230,4.543420591636959
2025-03-23 10:16:59.230,5.0656175042045355
2025-03-23 10:16:59.230,-0.410896661073109
2025-03-23 10:16:59.230,-5.674450781866298
2025-03-23 10:16:59.240,-4.596367124189176
2025-03-23 10:16:59.240,1.6471401114565116
2025-03-23 10:16:59.240,5.988662776230203
2025-03-23 10:16:59.240,3.758314745301115
2025-03-23 10:16:59.240,-2.056054769937571
2025-03-23 10:16:59.250,-4.759690254943823
2025-03-23 10:16:59.250,-2.089429768349674
2025-03-23 10:16:59.250,1.6312713446435396
2025-03-23 10:16:59.250,1.8068873036331596
2025-03-23 10:16:59.250,-0.35343117617146225
2025-03-23 10:16:59.260,-0.4028204816862536
2025-03-23 10:16:59.260,2.014750615222799
2025-03-23 10:16:59.260,2.2603186662217514
2025-03-23 10:16:59.260,-1.8183639539783019
2025-03-23 10:16:59.260,-5.25058661474045
2025-03-23 10:16:59.269,-2.2458130980211397
2025-03-23 10:16:59.270,4.775664455335165
2025-03-23 10:16:59.270,6.96779244216867
2025-03-23 10:16:59.270,0.4931790385804095
2025-03-23 10:16:59.270,-7.5822077708045805
2025-03-23 10:16:59.280,-7.344773321382851
2025-03-23 10:16:59.280,1.7210151934503113
2025-03-23 10:16:59.280,9.489308420789087
2025-03-23 10:16:59.280,6.780900308310104
2025-03-23 10:16:59.280,-3.6708999682861867
2025-03-23 10:16:59.290,-9.980375770676044
2025-03-23 10:16:59.290,-4.974230424645827
2025-03-23 10:16:59.290,5.160880378702706
2025-03-23 10:16:59.290,8.411723764966846
2025-03-23 10:16:59.290,1.6999975490344328
2025-03-23 10:16:59.298,-5.774795621676318
2025-03-23 10:16:59.298,-4.771317784633862
2025-03-23 10:16:59.298,2.3145502847284813
2025-03-23 10:16:59.299,5.358120748118243
2025-03-23 10:16:59.299,0.2467167371901512
2025-03-23 10:16:59.308,-5.834454210569008
2025-03-23 10:16:59.308,-4.209676153341659
2025-03-23 10:16:59.308,3.5759577624763343
2025-03-23 10:16:59.309,7.5903827212176305
2025-03-23 10:16:59.309,2.466046668168639
2025-03-23 10:16:59.318,-5.564374499550177
2025-03-23 10:16:59.318,-6.733716842813287
2025-03-23 10:16:59.319,-0.17753585076199324
2025-03-23 10:16:59.319,5.467520055272449
2025-03-23 10:16:59.319,3.5751906384143064
2025-03-23 10:16:59.328,-2.27970684911069
2025-03-23 10:16:59.328,-3.8295535070918443
2025-03-23 10:16:59.328,0.591770896364699
2025-03-23 10:16:59.329,4.1444858255375925
2025-03-23 10:16:59.338,1.274064157459754
2025-03-23 10:16:59.338,-4.308397207565237
2025-03-23 10:16:59.338,-4.577305589979896
2025-03-23 10:16:59.338,1.5730166867986097
2025-03-23 10:16:59.339,6.410850263149539
2025-03-23 10:16:59.348,3.5839618566727554
2025-03-23 10:16:59.348,-3.5477642633079016
2025-03-23 10:16:59.348,-6.518593784841656
2025-03-23 10:16:59.348,-2.3955732749919108
2025-03-23 10:16:59.348,3.5718733825073428
2025-03-23 10:16:59.358,5.203548169995076
2025-03-23 10:16:59.358,2.0569057053169626
2025-03-23 10:16:59.358,-1.8004530031084582
2025-03-23 10:16:59.358,-3.2029579691346575
2025-03-23 10:16:59.358,-2.298040072482026
2025-03-23 10:16:59.368,-0.616173245522255
2025-03-23 10:16:59.368,1.086813859309175
2025-03-23 10:16:59.368,2.4238124685983284
2025-03-23 10:16:59.368,2.3354856191637774
2025-03-23 10:16:59.368,0.22311154149324483
2025-03-23 10:16:59.378,-2.183992656436703
2025-03-23 10:16:59.378,-2.1203379821832007
2025-03-23 10:16:59.378,0.32701030621918936
2025-03-23 10:16:59.378,1.5542116370974222
2025-03-23 10:16:59.378,-0.619969818801154
2025-03-23 10:16:59.388,-2.9306807701242183
2025-03-23 10:16:59.388,-0.5812213658865252
2025-03-23 10:16:59.388,5.034475859792503
2025-03-23 10:16:59.388,6.311171919632709
2025-03-23 10:16:59.388,-0.659118808828118
2025-03-23 10:16:59.397,-9.017200532248916
2025-03-23 10:16:59.398,-8.227618842919256
2025-03-23 10:16:59.398,2.1721179150903605
2025-03-23 10:16:59.398,10.564682296783765
2025-03-23 10:16:59.398,7.155799990949237
2025-03-23 10:16:59.406,-3.698161125676088
2025-03-23 10:16:59.406,-9.062812295455872
2025-03-23 10:16:59.406,-3.6349512689923724
2025-03-23 10:16:59.407,4.56221593784554
2025-03-23 10:16:59.407,5.487874846117719
2025-03-23 10:16:59.416,-0.4341323273133047
2025-03-23 10:16:59.416,-4.393564076695409
2025-03-23 10:16:59.416,-1.4237375197965219
2025-03-23 10:16:59.416,3.6919686856675127
2025-03-23 10:16:59.426,3.4635417017775914
2025-03-23 10:16:59.426,-2.244395825719182
2025-03-23 10:16:59.426,-5.891105905241228
2025-03-23 10:16:59.426,-1.9551463976633194
2025-03-23 10:16:59.427,5.433173639558349
2025-03-23 10:16:59.436,6.922578439869081
2025-03-23 10:16:59.436,-0.26156567202086084
2025-03-23 10:16:59.436,-7.936356952040856
2025-03-23 10:16:59.436,-6.520919538267906
2025-03-23 10:16:59.436,2.8202222999091155
2025-03-23 10:16:59.446,9.122244841637233
2025-03-23 10:16:59.446,4.96818023402753
2025-03-23 10:16:59.446,-4.570616462479711
2025-03-23 10:16:59.446,-8.491330128860755
2025-03-23 10:16:59.446,-3.102262133391033
2025-03-23 10:16:59.456,4.568133192769709
2025-03-23 10:16:59.456,6.179958074451761
2025-03-23 10:16:59.456,1.5057831683221299
2025-03-23 10:16:59.456,-3.065798991931095
2025-03-23 10:16:59.456,-3.083970601705652
2025-03-23 10:16:59.466,-0.2761970804733554
2025-03-23 10:16:59.466,1.270029901150902
2025-03-23 10:16:59.466,0.4199325642729706
2025-03-23 10:16:59.466,-0.682082510028462
2025-03-23 10:16:59.466,-0.16742124324796942
2025-03-23 10:16:59.476,1.2639967113627992
2025-03-23 10:16:59.476,1.5652926343772087
2025-03-23 10:16:59.476,-0.04580960420584132
2025-03-23 10:16:59.476,-2.1496400424599456
2025-03-23 10:16:59.476,-2.6059957257698074
2025-03-23 10:16:59.486,-0.6750484834781877
2025-03-23 10:16:59.486,2.2675655467865523
2025-03-23 10:16:59.486,3.798758381791652
2025-03-23 10:16:59.486,2.308953882630373
2025-03-23 10:16:59.486,-1.5189852005278712
2025-03-23 10:16:59.496,-4.713345252007811
2025-03-23 10:16:59.496,-4.152049590765022
2025-03-23 10:16:59.496,0.34819117942442335
2025-03-23 10:16:59.496,5.0392797079383955
2025-03-23 10:16:59.496,5.2563306147595945
2025-03-23 10:16:59.505,0.2501242133558086
2025-03-23 10:16:59.506,-5.222887904608736
2025-03-23 10:16:59.506,-5.281629679378242
2025-03-23 10:16:59.506,0.486868746173076
2025-03-23 10:16:59.506,5.8225354783524494
2025-03-23 10:16:59.514,4.534835367021118
2025-03-23 10:16:59.514,-2.113052979205086
2025-03-23 10:16:59.514,-6.603171410913201
2025-03-23 10:16:59.515,-3.8420291415063064
2025-03-23 10:16:59.515,3.2242565885384225
2025-03-23 10:16:59.524,7.259170055875029
2025-03-23 10:16:59.524,4.225878047880775
2025-03-23 10:16:59.524,-3.1619965303210105
2025-03-23 10:16:59.524,-8.167137408009067
2025-03-23 10:16:59.534,-5.757922031862452
2025-03-23 10:16:59.534,2.583170501914084
2025-03-23 10:16:59.534,9.13863274486628
2025-03-23 10:16:59.534,7.017015847262138
2025-03-23 10:16:59.535,-2.0569742121191
2025-03-23 10:16:59.544,-8.839435180439068
2025-03-23 10:16:59.544,-6.63301236580428
2025-03-23 10:16:59.544,1.4723093477249383
2025-03-23 10:16:59.544,6.81467918156621
2025-03-23 10:16:59.545,4.93268475945709
2025-03-23 10:16:59.554,-0.8498003397466736
2025-03-23 10:16:59.554,-4.492293063813701
2025-03-23 10:16:59.554,-3.4298756910268464
2025-03-23 10:16:59.554,0.36631029554306754
2025-03-23 10:16:59.555,3.3467542656656666
2025-03-23 10:16:59.564,3.2526012794812633
2025-03-23 10:16:59.564,0.22841873304651236
2025-03-23 10:16:59.564,-3.35684542693483
2025-03-23 10:16:59.564,-4.3246441438166
2025-03-23 10:16:59.565,-1.2924858067025056
2025-03-23 10:16:59.574,3.4702641484009367
2025-03-23 10:16:59.574,5.538709970153785
2025-03-23 10:16:59.574,2.6039373640676784
2025-03-23 10:16:59.574,-2.8355174499549194
2025-03-23 10:16:59.575,-5.704528475851367
2025-03-23 10:16:59.584,-3.443288037198249
2025-03-23 10:16:59.584,1.5095735704163
2025-03-23 10:16:59.584,4.483576082939276
2025-03-23 10:16:59.584,3.371687897730052
2025-03-23 10:16:59.585,0.1250379079055628
2025-03-23 10:16:59.594,-2.2312504825322206
2025-03-23 10:16:59.594,-2.802694371622901
2025-03-23 10:16:59.594,-2.30025936944727
2025-03-23 10:16:59.594,-0.6684403483990942
2025-03-23 10:16:59.594,2.4772478448884097
2025-03-23 10:16:59.604,5.141213103320085
2025-03-23 10:16:59.604,3.6337359926094535
2025-03-23 10:16:59.604,-2.3022754776290992
2025-03-23 10:16:59.604,-7.228437178402778
2025-03-23 10:16:59.604,-5.593647638878338
2025-03-23 10:16:59.614,1.3237130151920027
2025-03-23 10:16:59.614,6.640574294000843
2025-03-23 10:16:59.614,5.762529372574941
2025-03-23 10:16:59.614,0.6889784145983554
2025-03-23 10:16:59.614,-3.5703694982637195
2025-03-23 10:16:59.624,-4.359083889893659
2025-03-23 10:16:59.624,-2.386636749625618
2025-03-23 10:16:59.624,0.3956301738565942
2025-03-23 10:16:59.624,2.2884271931512354
2025-03-23 10:16:59.624,2.32325910646907
2025-03-23 10:16:59.634,0.8451754490667879
2025-03-23 10:16:59.634,-0.5826729621049616
2025-03-23 10:16:59.634,-0.7574454485143871
2025-03-23 10:16:59.634,-0.1504951826924191
2025-03-23 10:16:59.634,-0.04205480646270992
2025-03-23 10:16:59.644,-0.6809549447400987
2025-03-23 10:16:59.644,-1.057485991088985
2025-03-23 10:16:59.644,-0.38187877634925377
2025-03-23 10:16:59.644,0.9108371033845072
2025-03-23 10:16:59.644,1.7013730776227804
2025-03-23 10:16:59.654,1.2407166254115602
2025-03-23 10:16:59.654,-0.3426233717439316
2025-03-23 10:16:59.654,-2.0286361919413225
2025-03-23 10:16:59.654,-2.2797944280382088
2025-03-23 10:16:59.654,-0.20276173154423094
2025-03-23 10:16:59.664,2.9272127769671408
2025-03-23 10:16:59.664,3.8392868113222822
2025-03-23 10:16:59.664,0.48502779111588373
2025-03-23 10:16:59.664,-4.505586067014499
2025-03-23 10:16:59.664,-5.429916953491779
2025-03-23 10:16:59.673,-0.2720636619656209
2025-03-23 10:16:59.674,5.593526277931451
2025-03-23 10:16:59.674,5.23615424371194
2025-03-23 10:16:59.674,-0.8510098028459103
2025-03-23 10:16:59.674,-5.049721067538466
2025-03-23 10:16:59.682,-2.5578396967477657
2025-03-23 10:16:59.682,2.548698177793977
2025-03-23 10:16:59.682,3.344034675607299
2025-03-23 10:16:59.683,-0.673091493846396
2025-03-23 10:16:59.683,-3.7001229933822124
2025-03-23 10:16:59.692,-1.8789131491966644
2025-03-23 10:16:59.692,2.1324239114953105
2025-03-23 10:16:59.692,3.458231012391125
2025-03-23 10:16:59.693,1.1755010471496201
2025-03-23 10:16:59.693,-1.5438250992285352
2025-03-23 10:16:59.702,-2.0262698402919366
2025-03-23 10:16:59.702,-0.743811348715621
2025-03-23 10:16:59.702,0.4038725055761966
2025-03-23 10:16:59.702,0.5875244788766856
2025-03-23 10:16:59.712,0.19095815798426025
2025-03-23 10:16:59.712,-0.2509590862720607
2025-03-23 10:16:59.712,-0.30591317838545984
2025-03-23 10:16:59.712,0.3394870243860889
2025-03-23 10:16:59.713,1.2046499233179646
2025-03-23 10:16:59.722,1.0617844303254473
2025-03-23 10:16:59.722,-0.4084546729554238
2025-03-23 10:16:59.722,-1.734679517591693
2025-03-23 10:16:59.722,-1.5073652801440762
2025-03-23 10:16:59.722,-0.3527834234143621
2025-03-23 10:16:59.732,0.28422059837748787
2025-03-23 10:16:59.732,0.563578530838738
2025-03-23 10:16:59.732,1.5974109295368528
2025-03-23 10:16:59.732,2.7041373954549135
2025-03-23 10:16:59.732,1.5794189042578095
2025-03-23 10:16:59.742,-2.0991190092802325
2025-03-23 10:16:59.742,-5.053429832525016
2025-03-23 10:16:59.742,-3.8257098033319523
2025-03-23 10:16:59.742,0.9553476919309436
2025-03-23 10:16:59.742,5.019777978091959
2025-03-23 10:16:59.750,4.964100447536893
2025-03-23 10:16:59.750,1.3221226520895137
2025-03-23 10:16:59.750,-2.7245690895372596
2025-03-23 10:16:59.751,-4.482907835133353
2025-03-23 10:16:59.751,-3.276494775278052
2025-03-23 10:16:59.760,-0.12717396560699407
2025-03-23 10:16:59.761,2.961639708718242
2025-03-23 10:16:59.761,3.900760700706104
2025-03-23 10:16:59.761,1.9124142783271734
2025-03-23 10:16:59.761,-1.5385979771492446
2025-03-23 10:16:59.770,-3.6188558874163212
2025-03-23 10:16:59.770,-2.4698518049186835
2025-03-23 10:16:59.770,0.9720728706792434
2025-03-23 10:16:59.770,3.52317157212436
2025-03-23 10:16:59.780,2.6081371591831206
2025-03-23 10:16:59.780,-1.0298210386708548
2025-03-23 10:16:59.780,-3.774062969249937
2025-03-23 10:16:59.780,-2.811606290661358
2025-03-23 10:16:59.781,0.8333451720863415
2025-03-23 10:16:59.790,3.508078358376049
2025-03-23 10:16:59.790,2.898551230550496
2025-03-23 10:16:59.790,0.01610099336066617
2025-03-23 10:16:59.790,-2.436105754374192
2025-03-23 10:16:59.791,-2.5683182823833475
2025-03-23 10:16:59.800,-0.45868977557457336
2025-03-23 10:16:59.800,1.8190638482998434
2025-03-23 10:16:59.800,1.6055176559383901
2025-03-23 10:16:59.800,-1.2226033350847476
2025-03-23 10:16:59.800,-2.9333277311134447
2025-03-23 10:16:59.810,-0.12769873885284444
2025-03-23 10:16:59.810,4.765278879893774
2025-03-23 10:16:59.810,5.258775807208927
2025-03-23 10:16:59.810,-0.7871038825662761
2025-03-23 10:16:59.810,-7.362981830197412
2025-03-23 10:16:59.820,-7.089193040970882
2025-03-23 10:16:59.820,-0.029266662139040833
2025-03-23 10:16:59.820,6.6471351864057135
2025-03-23 10:16:59.820,6.986027736080919
2025-03-23 10:16:59.820,1.9863179015374304
2025-03-23 10:16:59.830,-2.979945144067209
2025-03-23 10:16:59.830,-4.413879999713894
2025-03-23 10:16:59.830,-3.1319526901543444
2025-03-23 10:16:59.830,-1.4263648295887104
2025-03-23 10:16:59.831,0.21898572976689296
2025-03-23 10:16:59.840,2.50081968359987
2025-03-23 10:16:59.840,4.4295436372549375
2025-03-23 10:16:59.840,3.3900709427479496
2025-03-23 10:16:59.840,-1.0223644347564376
2025-03-23 10:16:59.840,-4.976147643296159
2025-03-23 10:16:59.850,-4.27827876299699
2025-03-23 10:16:59.850,0.24484742266977877
2025-03-23 10:16:59.850,3.4113337314915193
2025-03-23 10:16:59.850,2.107799633694402
2025-03-23 10:16:59.850,-0.9739155667112835
2025-03-23 10:16:59.860,-1.2880959060369968
2025-03-23 10:16:59.860,1.3812160991363696
2025-03-23 10:16:59.860,2.8175434840310714
2025-03-23 10:16:59.860,0.2660220082203313
2025-03-23 10:16:59.860,-3.66900762625409
2025-03-23 10:16:59.870,-4.241049811912787
2025-03-23 10:16:59.870,-0.6163403687957929
2025-03-23 10:16:59.870,3.1658929913874103
2025-03-23 10:16:59.870,3.469100384779354
2025-03-23 10:16:59.870,1.2983000518610028
2025-03-23 10:16:59.880,-0.159920160348139
2025-03-23 10:16:59.880,-0.48265474561536076
2025-03-23 10:16:59.880,-1.6447334695924423
2025-03-23 10:16:59.880,-3.3305206974713975
2025-03-23 10:16:59.880,-2.3716066076235096
2025-03-23 10:16:59.890,1.887382483476104
2025-03-23 10:16:59.890,5.009771233521516
2025-03-23 10:16:59.890,2.9230820848167958
2025-03-23 10:16:59.890,-2.1471946657188705
2025-03-23 10:16:59.890,-4.300444050262691
2025-03-23 10:16:59.899,-1.5548903552223463
2025-03-23 10:16:59.900,2.17824496308974
2025-03-23 10:16:59.900,2.6345940001601114
2025-03-23 10:16:59.900,0.07292421765851784
2025-03-23 10:16:59.900,-2.060042529046477
2025-03-23 10:16:59.908,-1.4841777807424186
2025-03-23 10:16:59.908,0.8309646506061925
2025-03-23 10:16:59.908,2.06213131442804
2025-03-23 10:16:59.909,0.6285814491727262
2025-03-23 10:16:59.909,-1.7253625788203715
2025-03-23 10:16:59.918,-1.6370629475866827
2025-03-23 10:16:59.918,1.2087502792158278
2025-03-23 10:16:59.918,2.662127891357996
2025-03-23 10:16:59.919,-0.3601036568797786
2025-03-23 10:16:59.928,-4.300619130483352
2025-03-23 10:16:59.928,-2.7996421460151826
2025-03-23 10:16:59.928,3.771199616347508
2025-03-23 10:16:59.929,7.140945223561404
2025-03-23 10:16:59.929,1.8069577545030202
2025-03-23 10:16:59.938,-6.6958301604933705
2025-03-23 10:16:59.938,-8.059742680973757
2025-03-23 10:16:59.938,-0.24323270653477813
2025-03-23 10:16:59.938,7.779195189101551
2025-03-23 10:16:59.939,6.903547514017838
2025-03-23 10:16:59.948,-1.4196525579300099
2025-03-23 10:16:59.948,-7.402647887030991
2025-03-23 10:16:59.948,-4.649768285054504
2025-03-23 10:16:59.948,2.8279192033304774
2025-03-23 10:16:59.949,6.177966348561032
2025-03-23 10:16:59.958,2.3903615445987727
2025-03-23 10:16:59.958,-3.0999447693869544
2025-03-23 10:16:59.958,-4.155464814969768
2025-03-23 10:16:59.958,-1.0902375291397126
2025-03-23 10:16:59.959,1.526341796787124
2025-03-23 10:16:59.968,1.6407644832177755
2025-03-23 10:16:59.968,1.1345539312484667
2025-03-23 10:16:59.968,1.3393331655978076
2025-03-23 10:16:59.968,0.6820810447821632
2025-03-23 10:16:59.968,-1.981673610566088
2025-03-23 10:16:59.978,-4.136955718374398
2025-03-23 10:16:59.978,-2.219159716171022
2025-03-23 10:16:59.978,2.9963132722882655
2025-03-23 10:16:59.978,5.954017057637197
2025-03-23 10:16:59.979,2.555784259770336
2025-03-23 10:16:59.988,-4.188421414450441
2025-03-23 10:16:59.988,-6.718605654471908
2025-03-23 10:16:59.988,-1.672351178945231
2025-03-23 10:16:59.988,5.55332293823173
2025-03-23 10:16:59.989,6.678199569705799
2025-03-23 10:16:59.998,0.2976306297223922
2025-03-23 10:16:59.998,-6.400831560085842
2025-03-23 10:16:59.998,-6.096572473373046
2025-03-23 10:16:59.998,0.47002882760612497
2025-03-23 10:16:59.998,6.05218476190066
2025-03-23 10:17:00.008,5.288217418559897
2025-03-23 10:17:00.008,-0.2194266423582425
2025-03-23 10:17:00.008,-4.689150999762232
2025-03-23 10:17:00.008,-4.299732258358014
2025-03-23 10:17:00.008,-0.2885996552523436
2025-03-23 10:17:00.016,3.0032648049494775
2025-03-23 10:17:00.016,2.6922369530093837
2025-03-23 10:17:00.016,0.10727975480795157
2025-03-23 10:17:00.017,-1.2495023781843246
2025-03-23 10:17:00.017,-0.2999241281303914
2025-03-23 10:17:00.026,0.5103373589302443
2025-03-23 10:17:00.026,-0.6757498782587827
2025-03-23 10:17:00.026,-1.946289994113692
2025-03-23 10:17:00.027,-0.5575161169539061
2025-03-23 10:17:00.036,2.340096078585108
2025-03-23 10:17:00.036,2.7745438334970514
2025-03-23 10:17:00.036,-0.3143791588016559
2025-03-23 10:17:00.036,-3.1244793958276627
2025-03-23 10:17:00.037,-1.9061169624266263
2025-03-23 10:17:00.046,1.942526478455231
2025-03-23 10:17:00.046,3.4294499498063455
2025-03-23 10:17:00.046,0.1858164410154497
2025-03-23 10:17:00.046,-4.318298582283263
2025-03-23 10:17:00.047,-4.451570127932645
2025-03-23 10:17:00.056,1.0330300584756922
2025-03-23 10:17:00.056,6.913441711907829
2025-03-23 10:17:00.056,6.615035550684712
2025-03-23 10:17:00.056,-0.5806846931389706
2025-03-23 10:17:00.056,-8.150698773063189
2025-03-23 10:17:00.066,-8.740984138201352
2025-03-23 10:17:00.066,-1.648739873440858
2025-03-23 10:17:00.066,6.674819017140868
2025-03-23 10:17:00.066,9.190668608473013
2025-03-23 10:17:00.066,4.471314298728412
2025-03-23 10:17:00.076,-3.128200508651423
2025-03-23 10:17:00.076,-7.764808894944322
2025-03-23 10:17:00.076,-6.29297479974075
2025-03-23 10:17:00.076,-0.11720481355345036
2025-03-23 10:17:00.076,5.698033231698129
2025-03-23 10:17:00.084,6.2245001722252
2025-03-23 10:17:00.084,1.2555002526284142
2025-03-23 10:17:00.084,-4.063420780153723
2025-03-23 10:17:00.085,-4.435788294954017
2025-03-23 10:17:00.085,-0.2536825455055537
2025-03-23 10:17:00.094,3.0357573179081827
2025-03-23 10:17:00.094,1.6813115405567554
2025-03-23 10:17:00.095,-1.870626760391743
2025-03-23 10:17:00.095,-2.479083729405361
2025-03-23 10:17:00.095,0.91042475460394
2025-03-23 10:17:00.104,4.04123688544722
2025-03-23 10:17:00.104,2.7675255283664923
2025-03-23 10:17:00.104,-2.0772691614958503
2025-03-23 10:17:00.105,-5.711285134085728
2025-03-23 10:17:00.114,-4.298259812995577
2025-03-23 10:17:00.114,1.3964349879758737
2025-03-23 10:17:00.114,6.487007718120647
2025-03-23 10:17:00.115,6.188197716451258
2025-03-23 10:17:00.115,0.42242234367571946
2025-03-23 10:17:00.115,-5.723369900909005
2025-03-23 10:17:00.124,-6.782008292846526
2025-03-23 10:17:00.124,-2.2071334147268873
2025-03-23 10:17:00.125,3.4646045650916575
2025-03-23 10:17:00.125,5.452139999256895
2025-03-23 10:17:00.125,3.030776843096841
2025-03-23 10:17:00.134,-0.8540278355647717
2025-03-23 10:17:00.134,-3.1122668988718516
2025-03-23 10:17:00.134,-2.8560644623981872
2025-03-23 10:17:00.135,-0.9485709059513342
2025-03-23 10:17:00.144,1.2756930231584651
2025-03-23 10:17:00.144,2.4291599881538866
2025-03-23 10:17:00.144,1.4851707079690784
2025-03-23 10:17:00.144,-0.9591236320577254
2025-03-23 10:17:00.145,-2.353865525128658
2025-03-23 10:17:00.154,-0.7380601840884657
2025-03-23 10:17:00.154,2.186689184997442
2025-03-23 10:17:00.154,2.3765042633250912
2025-03-23 10:17:00.154,-1.08166325100527
2025-03-23 10:17:00.154,-3.789382415284737
2025-03-23 10:17:00.164,-1.615677034964382
2025-03-23 10:17:00.164,3.0489726122429515
2025-03-23 10:17:00.164,4.01492218329193
2025-03-23 10:17:00.164,-0.09277878071130874
2025-03-23 10:17:00.165,-3.7967108826306073
2025-03-23 10:17:00.174,-2.408677845400924
2025-03-23 10:17:00.174,1.747608299313425
2025-03-23 10:17:00.174,3.0579133144973345
2025-03-23 10:17:00.174,0.25866013649240555
2025-03-23 10:17:00.174,-2.561797000995652
2025-03-23 10:17:00.184,-1.8484289978978312
2025-03-23 10:17:00.184,1.1767832104383071
2025-03-23 10:17:00.184,2.715823237987787
2025-03-23 10:17:00.184,1.1484854095705757
2025-03-23 10:17:00.184,-1.5911518655080972
2025-03-23 10:17:00.194,-2.7123549677864887
2025-03-23 10:17:00.194,-1.4023731712714413
2025-03-23 10:17:00.194,1.0550831232556057
2025-03-23 10:17:00.194,2.815636238985711
2025-03-23 10:17:00.194,2.562744198613685
2025-03-23 10:17:00.202,0.1173071483653287
2025-03-23 10:17:00.202,-2.925218999068062
2025-03-23 10:17:00.203,-3.791065896866101
2025-03-23 10:17:00.203,-1.1577856102393211
2025-03-23 10:17:00.203,2.7854459538687224
2025-03-23 10:17:00.212,4.083849299760193
2025-03-23 10:17:00.212,1.309112239154159
2025-03-23 10:17:00.213,-2.6006967323640686
2025-03-23 10:17:00.213,-3.4485484134456486
2025-03-23 10:17:00.222,-0.4632990735484199
2025-03-23 10:17:00.222,2.845300742470865
2025-03-23 10:17:00.222,2.724258323322013
2025-03-23 10:17:00.222,-0.5810473861285719
2025-03-23 10:17:00.222,-3.3127919780440287
2025-03-23 10:17:00.232,-2.5981976224212557
2025-03-23 10:17:00.232,0.6174589933209901
2025-03-23 10:17:00.232,3.1486680506502123
2025-03-23 10:17:00.233,3.031842768381184
2025-03-23 10:17:00.233,0.7957830114832624
2025-03-23 10:17:00.242,-1.835914136868019
2025-03-23 10:17:00.242,-3.331823773840332
2025-03-23 10:17:00.242,-2.7372675668746025
2025-03-23 10:17:00.242,-0.09810242121087205
2025-03-23 10:17:00.243,2.913458365715686
2025-03-23 10:17:00.252,3.75505012683316
2025-03-23 10:17:00.252,1.4339508441551794
2025-03-23 10:17:00.252,-2.024455689064377
2025-03-23 10:17:00.252,-3.3449166615273405
2025-03-23 10:17:00.253,-1.4314539757206761
2025-03-23 10:17:00.262,1.4507062110970337
2025-03-23 10:17:00.262,2.2226209261137937
2025-03-23 10:17:00.262,0.4118515426548486
2025-03-23 10:17:00.262,-1.4988677526410676
2025-03-23 10:17:00.263,-1.1744080775281909
2025-03-23 10:17:00.272,0.7825180107580525
2025-03-23 10:17:00.272,1.7449945325744818
2025-03-23 10:17:00.272,0.43436060555765266
2025-03-23 10:17:00.272,-1.53820584948492
2025-03-23 10:17:00.273,-1.7743859430345439
2025-03-23 10:17:00.282,-0.02020768270823431
2025-03-23 10:17:00.282,1.6788987493016372
2025-03-23 10:17:00.282,1.5146485714535758
2025-03-23 10:17:00.282,-0.1123925028077229
2025-03-23 10:17:00.282,-1.3377247026934111
2025-03-23 10:17:00.292,-1.026155625606743
2025-03-23 10:17:00.292,0.17850624856148395
2025-03-23 10:17:00.292,0.8000223597043749
2025-03-23 10:17:00.292,0.24381727546327087
2025-03-23 10:17:00.293,-0.483677551699343
2025-03-23 10:17:00.302,-0.0006617154327718776
2025-03-23 10:17:00.302,1.303496642199515
2025-03-23 10:17:00.302,1.1261334826313192
2025-03-23 10:17:00.302,-1.5902634471594064
2025-03-23 10:17:00.302,-3.972400334489723
2025-03-23 10:17:00.312,-1.9403905805023944
2025-03-23 10:17:00.312,3.792074435838191
2025-03-23 10:17:00.312,6.905588161790601
2025-03-23 10:17:00.312,2.7518022975777416
2025-03-23 10:17:00.313,-5.061584377290814
2025-03-23 10:17:00.322,-8.179531544639717
2025-03-23 10:17:00.322,-3.35551668006045
2025-03-23 10:17:00.322,3.96492555832076
2025-03-23 10:17:00.322,6.579002818136363
2025-03-23 10:17:00.323,3.4391556193390005
2025-03-23 10:17:00.330,-0.9578291946572911
2025-03-23 10:17:00.330,-2.9360677617119557
2025-03-23 10:17:00.331,-2.7366838620230625
2025-03-23 10:17:00.331,-1.987172993151748
2025-03-23 10:17:00.331,-0.8706181591336517
2025-03-23 10:17:00.342,1.1746808158530295
2025-03-23 10:17:00.342,3.361632890667991
2025-03-23 10:17:00.342,3.636510702836655
2025-03-23 10:17:00.342,0.9654453929171719
2025-03-23 10:17:00.342,-3.0126131033626433
2025-03-23 10:17:00.352,-5.01167508495344
2025-03-23 10:17:00.352,-3.037099739127738
2025-03-23 10:17:00.352,1.5272520000033594
2025-03-23 10:17:00.352,4.908839546236607
2025-03-23 10:17:00.352,4.328678785682331
2025-03-23 10:17:00.360,0.46460694726901164
2025-03-23 10:17:00.360,-3.44684304617143
2025-03-23 10:17:00.360,-4.5929615839663995
2025-03-23 10:17:00.361,-2.480767929258339
2025-03-23 10:17:00.370,1.3054633137599496
2025-03-23 10:17:00.370,4.1805799635105
2025-03-23 10:17:00.370,3.880690164968333
2025-03-23 10:17:00.370,0.3558681863620247
2025-03-23 10:17:00.371,-3.3543555996273104
2025-03-23 10:17:00.380,-3.677609447504634
2025-03-23 10:17:00.380,-0.6566560058483324
2025-03-23 10:17:00.380,1.8750240364521116
2025-03-23 10:17:00.380,1.2354067898182404
2025-03-23 10:17:00.381,-0.5340202456102644
2025-03-23 10:17:00.390,0.1799744671684679
2025-03-23 10:17:00.390,2.8541501888312064
2025-03-23 10:17:00.390,2.911578539816705
2025-03-23 10:17:00.390,-1.822753151070997
2025-03-23 10:17:00.391,-6.903225610522619
2025-03-23 10:17:00.400,-5.7341300988565855
2025-03-23 10:17:00.400,2.0447893054217197
2025-03-23 10:17:00.400,8.924235001210901
2025-03-23 10:17:00.400,7.576750096070237
2025-03-23 10:17:00.401,-0.7494582851697706
2025-03-23 10:17:00.410,-7.708702125946807
2025-03-23 10:17:00.410,-7.203422480281702
2025-03-23 10:17:00.410,-1.2058538808963102
2025-03-23 10:17:00.410,3.9113849118048867
2025-03-23 10:17:00.411,4.601473110284796
2025-03-23 10:17:00.420,2.3616451948535895
2025-03-23 10:17:00.420,0.24650985002936388
2025-03-23 10:17:00.420,-0.7100161923526666
2025-03-23 10:17:00.420,-1.476122299076045
2025-03-23 10:17:00.421,-2.712521965029393
2025-03-23 10:17:00.430,-3.2933567672409074
2025-03-23 10:17:00.430,-1.36070531837476
2025-03-23 10:17:00.430,2.93878604660978
2025-03-23 10:17:00.430,6.194920794138876
2025-03-23 10:17:00.430,4.521384319620452
2025-03-23 10:17:00.440,-1.7367880036894108
2025-03-23 10:17:00.440,-7.128204164864866
2025-03-23 10:17:00.440,-6.2498175667105285
2025-03-23 10:17:00.440,0.33860479864248033
2025-03-23 10:17:00.440,6.335111278493323
2025-03-23 10:17:00.450,6.114608555947124
2025-03-23 10:17:00.450,0.38733873301247285
2025-03-23 10:17:00.450,-4.890419728400293
2025-03-23 10:17:00.450,-4.864766561306125
2025-03-23 10:17:00.450,-0.4175012694728395
2025-03-23 10:17:00.460,3.538353121252775
2025-03-23 10:17:00.460,3.515789487641069
2025-03-23 10:17:00.460,0.43321851930733524
2025-03-23 10:17:00.460,-2.3545535637614945
2025-03-23 10:17:00.460,-2.6890306395460106
2025-03-23 10:17:00.470,-0.9314584498101226
2025-03-23 10:17:00.470,1.226597596821867
2025-03-23 10:17:00.470,2.2826028808579153
2025-03-23 10:17:00.470,1.6321220493548134
2025-03-23 10:17:00.470,-0.2307271282854106
2025-03-23 10:17:00.480,-1.8976547251283127
2025-03-23 10:17:00.480,-1.9525766626314611
2025-03-23 10:17:00.480,-0.27691090078319563
2025-03-23 10:17:00.480,1.5572774861994254
2025-03-23 10:17:00.480,1.6927965159374787
2025-03-23 10:17:00.488,0.03972337510618554
2025-03-23 10:17:00.488,-1.468809280461502
2025-03-23 10:17:00.488,-1.0821096265028354
2025-03-23 10:17:00.489,0.6291833803444583
2025-03-23 10:17:00.489,1.4605830015332195
2025-03-23 10:17:00.498,0.33656603404349583
2025-03-23 10:17:00.498,-1.2934986511819189
2025-03-23 10:17:00.499,-1.1942293092338092
2025-03-23 10:17:00.499,0.7985171866933833
2025-03-23 10:17:00.499,2.2109345676360714
2025-03-23 10:17:00.508,0.682649116167932
2025-03-23 10:17:00.508,-2.756470597436341
2025-03-23 10:17:00.509,-4.011142082476217
2025-03-23 10:17:00.509,-0.454912796383487
2025-03-23 10:17:00.518,5.134254056369843
2025-03-23 10:17:00.518,6.569363518436069
2025-03-23 10:17:00.518,1.0694582918939661
2025-03-23 10:17:00.519,-6.639176563216857
2025-03-23 10:17:00.519,-8.546261817508704
2025-03-23 10:17:00.528,-2.157860532711975
2025-03-23 10:17:00.528,6.199204108874203
2025-03-23 10:17:00.528,8.185914619093351
2025-03-23 10:17:00.528,2.6998142002432353
2025-03-23 10:17:00.529,-3.6921583194400323
2025-03-23 10:17:00.538,-5.165669243884853
2025-03-23 10:17:00.538,-2.525172637198523
2025-03-23 10:17:00.538,0.17168035087475814
2025-03-23 10:17:00.539,1.5003673075970063
2025-03-23 10:17:00.539,2.4168789320479247
2025-03-23 10:17:00.548,2.4691209951679123
2025-03-23 10:17:00.548,0.26015029648097165
2025-03-23 10:17:00.548,-2.768015636638194
2025-03-23 10:17:00.548,-2.883596557404025
2025-03-23 10:17:00.549,0.5566272298326267
2025-03-23 10:17:00.558,3.271809692970877
2025-03-23 10:17:00.558,1.4907047861617744
2025-03-23 10:17:00.558,-2.713475693788314
2025-03-23 10:17:00.558,-3.8161516681571435
2025-03-23 10:17:00.559,0.10276732601603228
2025-03-23 10:17:00.568,4.746847161944249
2025-03-23 10:17:00.568,4.549709961388029
2025-03-23 10:17:00.568,-0.8127839749490557
2025-03-23 10:17:00.568,-5.80761950769477
2025-03-23 10:17:00.568,-5.05063611170176
2025-03-23 10:17:00.578,0.7153721470164376
2025-03-23 10:17:00.578,5.470538865309278
2025-03-23 10:17:00.578,4.631952602535621
2025-03-23 10:17:00.578,-0.25530670343025436
2025-03-23 10:17:00.578,-3.982128366445694
2025-03-23 10:17:00.588,-3.5249183542641416
2025-03-23 10:17:00.588,-0.3133485857645489
2025-03-23 10:17:00.588,2.3693463150910974
2025-03-23 10:17:00.588,2.637907243787102
2025-03-23 10:17:00.588,0.8567043729039517
2025-03-23 10:17:00.598,-1.3041364637721864
2025-03-23 10:17:00.598,-2.205184477982949
2025-03-23 10:17:00.598,-1.3573936340581654
2025-03-23 10:17:00.598,0.34870345251802826
2025-03-23 10:17:00.599,1.6234276686719273
2025-03-23 10:17:00.608,1.849514053942939
2025-03-23 10:17:00.608,1.0545958999976848
2025-03-23 10:17:00.608,-0.5602030006127244
2025-03-23 10:17:00.608,-2.3084076791683534
2025-03-23 10:17:00.608,-2.6329025411725713
2025-03-23 10:17:00.618,-0.37638256690890626
2025-03-23 10:17:00.618,3.011536995603194
2025-03-23 10:17:00.618,3.7792143249007797
2025-03-23 10:17:00.618,0.0429865963253413
2025-03-23 10:17:00.618,-4.655951575359444
2025-03-23 10:17:00.628,-4.271970298048276
2025-03-23 10:17:00.628,2.060513736020628
2025-03-23 10:17:00.628,7.286690700086453
2025-03-23 10:17:00.628,4.142022920120098
2025-03-23 10:17:00.628,-4.979616524944294
2025-03-23 10:17:00.636,-9.409061267325619
2025-03-23 10:17:00.637,-3.047456590746551
2025-03-23 10:17:00.637,7.119363727948521
2025-03-23 10:17:00.637,8.936377697483088
2025-03-23 10:17:00.637,0.3932564652977224
2025-03-23 10:17:00.646,-7.617275395135056
2025-03-23 10:17:00.647,-5.322422448184618
2025-03-23 10:17:00.647,3.4180763285796694
2025-03-23 10:17:00.647,6.7129309126553265
2025-03-23 10:17:00.647,0.5576570590583414
2025-03-23 10:17:00.656,-6.4220345630554085
2025-03-23 10:17:00.657,-5.086405381103274
2025-03-23 10:17:00.657,2.3976670621198566
2025-03-23 10:17:00.657,6.4875776649694386
2025-03-23 10:17:00.657,3.110176758320029
2025-03-23 10:17:00.666,-2.306910684742931
2025-03-23 10:17:00.666,-3.4019387081678647
2025-03-23 10:17:00.667,-0.8430898778090974
2025-03-23 10:17:00.667,0.47944385541997714
2025-03-23 10:17:00.676,-0.8002699683158874
2025-03-23 10:17:00.676,-1.3057478272103435
2025-03-23 10:17:00.676,1.0783935398150613
2025-03-23 10:17:00.677,3.5573240864182214
2025-03-23 10:17:00.677,2.3943235531258815
2025-03-23 10:17:00.686,-1.5707784540692056
2025-03-23 10:17:00.686,-3.7815337376587514
2025-03-23 10:17:00.686,-1.8342643235923624
2025-03-23 10:17:00.686,1.6296481308871886
2025-03-23 10:17:00.687,2.442885115724026
2025-03-23 10:17:00.696,-0.007319480686807989
2025-03-23 10:17:00.696,-2.263657889943597
2025-03-23 10:17:00.696,-1.1278409613569331
2025-03-23 10:17:00.696,2.280952541171215
2025-03-23 10:17:00.697,3.535589110511351
2025-03-23 10:17:00.706,0.27720738612128637
2025-03-23 10:17:00.706,-4.234663930278622
2025-03-23 10:17:00.706,-4.425188682949069
2025-03-23 10:17:00.706,0.6358551648743118
2025-03-23 10:17:00.707,5.388557142009704
2025-03-23 10:17:00.716,4.155937215495717
2025-03-23 10:17:00.716,-1.8323731376756527
2025-03-23 10:17:00.716,-5.6847988245964896
2025-03-23 10:17:00.716,-3.0078830132940415
2025-03-23 10:17:00.717,2.960931395841851
2025-03-23 10:17:00.726,5.325288435170704
2025-03-23 10:17:00.726,1.6409052657588306
2025-03-23 10:17:00.726,-3.5066805195617055
2025-03-23 10:17:00.726,-4.260389206530743
2025-03-23 10:17:00.726,-0.3928544322666751
2025-03-23 10:17:00.736,2.9983018399224943
2025-03-23 10:17:00.736,2.2434034569399404
2025-03-23 10:17:00.736,-0.5672176015382053
2025-03-23 10:17:00.736,-1.1776346463246998
2025-03-23 10:17:00.737,0.5792619303745788
2025-03-23 10:17:00.746,0.8716529471471701
2025-03-23 10:17:00.746,-1.7525482114218398
2025-03-23 10:17:00.746,-3.3406150240651127
2025-03-23 10:17:00.747,-0.16945156178538764
2025-03-23 10:17:00.747,4.782580479184231
2025-03-23 10:17:00.756,4.795603179765749
2025-03-23 10:17:00.756,-1.2648900575023723
2025-03-23 10:17:00.756,-6.434168671426288
2025-03-23 10:17:00.756,-4.291243606539172
2025-03-23 10:17:00.757,2.644946685158663
2025-03-23 10:17:00.766,6.101919465055666
2025-03-23 10:17:00.766,2.426863284273458
2025-03-23 10:17:00.766,-3.4118095835472677
2025-03-23 10:17:00.766,-4.578232487809669
2025-03-23 10:17:00.766,-0.4991841673598167
2025-03-23 10:17:00.774,3.4349435225724676
2025-03-23 10:17:00.774,2.9474534318631616
2025-03-23 10:17:00.775,-0.5551208445816291
2025-03-23 10:17:00.775,-2.6727663381442217
2025-03-23 10:17:00.775,-1.5226300051820492
2025-03-23 10:17:00.784,0.7158838176597749
2025-03-23 10:17:00.785,1.1915265400330424
2025-03-23 10:17:00.785,-0.09344530494664297
2025-03-23 10:17:00.785,-0.7684412690996587
2025-03-23 10:17:00.785,0.47664656837789887
2025-03-23 10:17:00.794,2.019553086275004
2025-03-23 10:17:00.794,1.3916423624646093
2025-03-23 10:17:00.795,-1.3516892283285975
2025-03-23 10:17:00.795,-3.385691372679214
2025-03-23 10:17:00.804,-2.3856130036424577
2025-03-23 10:17:00.804,0.812129797893065
2025-03-23 10:17:00.804,3.263797995709998
2025-03-23 10:17:00.805,3.0187793540993564
2025-03-23 10:17:00.805,0.6445187743995827
2025-03-23 10:17:00.805,-1.8388682793659714
2025-03-23 10:17:00.814,-2.8073008726331334
2025-03-23 10:17:00.814,-1.9264132680935309
2025-03-23 10:17:00.815,0.06310202934339326
2025-03-23 10:17:00.815,1.9346819968659676
2025-03-23 10:17:00.824,2.479898088961195
2025-03-23 10:17:00.824,1.1436933834472527
2025-03-23 10:17:00.824,-1.1939830593654917
2025-03-23 10:17:00.824,-2.4177736021067955
2025-03-23 10:17:00.825,-1.1762438659451548
2025-03-23 10:17:00.834,1.208073054895904
2025-03-23 10:17:00.834,1.8967537688075848
2025-03-23 10:17:00.834,0.06477891943045785
2025-03-23 10:17:00.835,-1.7745021484174734
2025-03-23 10:17:00.835,-0.9234423126886494
2025-03-23 10:17:00.844,1.7055946470084389
2025-03-23 10:17:00.844,2.379996334424117
2025-03-23 10:17:00.844,-0.5834326004084317
2025-03-23 10:17:00.844,-3.9475103314134556
2025-03-23 10:17:00.845,-2.8986584867562897
2025-03-23 10:17:00.854,2.6842949287240696
2025-03-23 10:17:00.854,6.736011753777066
2025-03-23 10:17:00.854,3.391818024130587
2025-03-23 10:17:00.854,-5.212720976561961
2025-03-23 10:17:00.855,-9.661186043892647
2025-03-23 10:17:00.862,-3.616485030368114
2025-03-23 10:17:00.863,7.58836892310048
2025-03-23 10:17:00.863,11.627404381915616
2025-03-23 10:17:00.863,3.2617313070163707
2025-03-23 10:17:00.863,-8.830189802339877
2025-03-23 10:17:00.872,-11.572382271073822
2025-03-23 10:17:00.872,-2.4213127422233973
2025-03-23 10:17:00.872,8.195010692585432
2025-03-23 10:17:00.873,9.34438958307892
2025-03-23 10:17:00.882,1.4366037862406595
2025-03-23 10:17:00.882,-5.956644803737847
2025-03-23 10:17:00.882,-5.858355812583632
2025-03-23 10:17:00.882,-0.5465422752095084
2025-03-23 10:17:00.883,3.174462274189067
2025-03-23 10:17:00.892,2.3738750338969234
2025-03-23 10:17:00.892,-0.09202307549975758
2025-03-23 10:17:00.892,-0.7101654629175013
2025-03-23 10:17:00.892,0.23714492278382301
2025-03-23 10:17:00.893,0.24311687556979855
2025-03-23 10:17:00.902,-1.0704343094942659
2025-03-23 10:17:00.902,-1.4414738654240724
2025-03-23 10:17:00.902,0.16219091974237498
2025-03-23 10:17:00.902,1.5961654012624127
2025-03-23 10:17:00.903,0.9166474610966882
2025-03-23 10:17:00.910,-0.3555728617369328
2025-03-23 10:17:00.910,0.08575732541298056
2025-03-23 10:17:00.911,0.8932167988020023
2025-03-23 10:17:00.911,-0.9411645443382441
2025-03-23 10:17:00.911,-3.954799841364449
2025-03-23 10:17:00.920,-2.726728009095111
2025-03-23 10:17:00.921,3.6703372379749943
2025-03-23 10:17:00.921,8.00056327838525
2025-03-23 10:17:00.921,3.573520766588521
2025-03-23 10:17:00.921,-5.818061662255945
2025-03-23 10:17:00.930,-9.511616098211212
2025-03-23 10:17:00.931,-3.281840326329942
2025-03-23 10:17:00.931,5.500652751442572
2025-03-23 10:17:00.931,7.463556907257955
2025-03-23 10:17:00.931,2.2278382912449866
2025-03-23 10:17:00.940,-3.031204104678242
2025-03-23 10:17:00.940,-3.4787244984750587
2025-03-23 10:17:00.941,-1.071373849478218
2025-03-23 10:17:00.941,0.3835986992240541
2025-03-23 10:17:00.950,0.47151447134392266
2025-03-23 10:17:00.950,0.7254333081982905
2025-03-23 10:17:00.950,0.8788474369038151
2025-03-23 10:17:00.950,-0.32306216356732737
2025-03-23 10:17:00.951,-1.7504303808329087
2025-03-23 10:17:00.960,-0.7308825037178708
2025-03-23 10:17:00.960,2.373820487928674
2025-03-23 10:17:00.960,3.4833986985154866
2025-03-23 10:17:00.960,0.2709676937026544
2025-03-23 10:17:00.961,-3.9365377160516193
2025-03-23 10:17:00.970,-4.126700108930268
2025-03-23 10:17:00.970,-0.2717251528068873
2025-03-23 10:17:00.970,2.7736663252852853
2025-03-23 10:17:00.971,2.0142886774720816
2025-03-23 10:17:00.971,0.040649163143742395
2025-03-23 10:17:00.980,0.5775194048799175
2025-03-23 10:17:00.980,2.587413694920815
2025-03-23 10:17:00.980,1.6610984724499491
2025-03-23 10:17:00.980,-3.1869930363113763
2025-03-23 10:17:00.981,-7.029611665774497
2025-03-23 10:17:00.990,-4.669783839439074
2025-03-23 10:17:00.990,2.7499040816829794
2025-03-23 10:17:00.990,8.492915787881142
2025-03-23 10:17:00.990,7.259533103539067
2025-03-23 10:17:00.991,0.2854872151718097
2025-03-23 10:17:01.000,-6.4497059259664615
2025-03-23 10:17:01.000,-7.90672425144567
2025-03-23 10:17:01.000,-3.6835888989766916
2025-03-23 10:17:01.000,2.5962847476557696
2025-03-23 10:17:01.001,6.429585002075527
2025-03-23 10:17:01.010,5.486018816619966
2025-03-23 10:17:01.010,0.9418150335794429
2025-03-23 10:17:01.010,-3.593128389004496
2025-03-23 10:17:01.010,-4.958569750300363
2025-03-23 10:17:01.011,-2.858647800671126
2025-03-23 10:17:01.020,0.4257792926042824
2025-03-23 10:17:01.020,2.5164647045636257
2025-03-23 10:17:01.020,2.762505713338454
2025-03-23 10:17:01.021,1.8549891051941525
2025-03-23 10:17:01.021,0.5797530444434779
2025-03-23 10:17:01.030,-0.6608051677897857
2025-03-23 10:17:01.030,-1.7642934402860744
2025-03-23 10:17:01.030,-2.764850691570654
2025-03-23 10:17:01.030,-3.1706366492401106
2025-03-23 10:17:01.031,-1.4971208862677614
2025-03-23 10:17:01.040,3.008775337631829
2025-03-23 10:17:01.040,7.495593345679806
2025-03-23 10:17:01.040,6.532883433739437
2025-03-23 10:17:01.040,-1.499067229196582
2025-03-23 10:17:01.041,-10.086882977287253
2025-03-23 10:17:01.048,-10.069830246094073
2025-03-23 10:17:01.048,-0.373706214133221
2025-03-23 10:17:01.049,9.466435679924732
2025-03-23 10:17:01.049,9.592464512526963
2025-03-23 10:17:01.058,0.9685034645209125
2025-03-23 10:17:01.058,-6.383153949427185
2025-03-23 10:17:01.059,-5.5543978602147694
2025-03-23 10:17:01.059,0.12462447953982192
2025-03-23 10:17:01.059,2.993441597468924
2025-03-23 10:17:01.068,0.8795085882788061
2025-03-23 10:17:01.068,-1.7796849265416523
2025-03-23 10:17:01.068,-1.022162296780706
2025-03-23 10:17:01.069,1.8383616028820544
2025-03-23 10:17:01.069,2.8617135051988183
2025-03-23 10:17:01.078,0.606410771492295
2025-03-23 10:17:01.078,-2.5062657512340794
2025-03-23 10:17:01.079,-3.0828401009537307
2025-03-23 10:17:01.079,-0.42428417752126313
2025-03-23 10:17:01.079,2.5475399010834443
2025-03-23 10:17:01.088,2.3496937941849985
2025-03-23 10:17:01.088,-0.8096855499613215
2025-03-23 10:17:01.088,-2.8198745441862783
2025-03-23 10:17:01.088,-0.705632232474165
2025-03-23 10:17:01.089,3.0775520310395112
2025-03-23 10:17:01.098,3.2718961638573707
2025-03-23 10:17:01.098,-1.2614903761576466
2025-03-23 10:17:01.098,-5.3429535968043655
2025-03-23 10:17:01.098,-3.521662665670792
2025-03-23 10:17:01.099,2.8677968410758035
2025-03-23 10:17:01.108,6.685382792641733
2025-03-23 10:17:01.108,3.2535043099829832
2025-03-23 10:17:01.108,-3.9162920862980415
2025-03-23 10:17:01.108,-6.915344153512308
2025-03-23 10:17:01.108,-2.459655579305846
2025-03-23 10:17:01.118,4.39629219424636
2025-03-23 10:17:01.118,6.174832235277652
2025-03-23 10:17:01.118,1.4358190774461697
2025-03-23 10:17:01.118,-4.132115620403833
2025-03-23 10:17:01.118,-4.705233280655852
2025-03-23 10:17:01.126,-0.5721133334118755
2025-03-23 10:17:01.127,3.274368319989649
2025-03-23 10:17:01.127,3.2308254904515925
2025-03-23 10:17:01.127,0.23425262150812998
2025-03-23 10:17:01.127,-2.456107091609505
2025-03-23 10:17:01.138,-2.751808641061727
2025-03-23 10:17:01.138,-0.7389907120235655
2025-03-23 10:17:01.138,2.117170518286919
2025-03-23 10:17:01.138,3.6269530931067213
2025-03-23 10:17:01.138,1.9065148423055114
2025-03-23 10:17:01.146,-2.3781315217718317
2025-03-23 10:17:01.147,-5.130212221315449
2025-03-23 10:17:01.147,-2.53605140078397
2025-03-23 10:17:01.147,3.5111350146900575
2025-03-23 10:17:01.147,6.054493151037162
2025-03-23 10:17:01.156,1.2729912501525604
2025-03-23 10:17:01.157,-5.622609267006231
2025-03-23 10:17:01.157,-5.894143646433176
2025-03-23 10:17:01.157,1.5446776938255842
2025-03-23 10:17:01.157,7.9278764659216066
2025-03-23 10:17:01.166,5.17928519877452
2025-03-23 10:17:01.166,-3.926751507903962
2025-03-23 10:17:01.167,-8.982549831500243
2025-03-23 10:17:01.167,-4.4098749837362075
2025-03-23 10:17:01.176,4.356768803926611
2025-03-23 10:17:01.176,7.858830218379735
2025-03-23 10:17:01.176,3.3640114341214487
2025-03-23 10:17:01.177,-3.2145276293873892
2025-03-23 10:17:01.177,-4.976452233694561
2025-03-23 10:17:01.186,-1.4453585174561872
2025-03-23 10:17:01.186,2.0833324841449494
2025-03-23 10:17:01.186,1.4313450783741166
2025-03-23 10:17:01.186,-1.5299318214220252
2025-03-23 10:17:01.187,-1.6742759142646202
2025-03-23 10:17:01.196,2.0702129732900305
2025-03-23 10:17:01.196,4.476885401773744
2025-03-23 10:17:01.196,0.9392289264311923
2025-03-23 10:17:01.196,-5.146699387325533
2025-03-23 10:17:01.197,-5.69772116164576
2025-03-23 10:17:01.206,1.0870608734694502
2025-03-23 10:17:01.206,7.192502858484326
2025-03-23 10:17:01.206,4.740754217808632
2025-03-23 10:17:01.206,-3.4881707762488916
2025-03-23 10:17:01.207,-7.444194541135722
2025-03-23 10:17:01.216,-2.6604074880540125
2025-03-23 10:17:01.216,4.564982760242976
2025-03-23 10:17:01.216,5.779185030305035
2025-03-23 10:17:01.216,0.6210373023853594
2025-03-23 10:17:01.217,-4.025474386610055
2025-03-23 10:17:01.226,-3.177054365335304
2025-03-23 10:17:01.226,0.9989113557053113
2025-03-23 10:17:01.226,3.045270144779258
2025-03-23 10:17:01.226,0.9606156225710443
2025-03-23 10:17:01.226,-2.2013487193024917
2025-03-23 10:17:01.236,-2.5811069493579657
2025-03-23 10:17:01.236,0.08745656523134637
2025-03-23 10:17:01.236,2.701704114259171
2025-03-23 10:17:01.236,2.5927540804486955
2025-03-23 10:17:01.236,0.16155228331011504
2025-03-23 10:17:01.244,-2.1808111453654275
2025-03-23 10:17:01.245,-2.671387440041383
2025-03-23 10:17:01.245,-1.301528730076168
2025-03-23 10:17:01.245,0.878451935133319
2025-03-23 10:17:01.245,2.5498912199284955
2025-03-23 10:17:01.254,2.5239617948292494
2025-03-23 10:17:01.254,0.5117566462455925
2025-03-23 10:17:01.255,-2.1039669182140606
2025-03-23 10:17:01.255,-3.031892045406303
2025-03-23 10:17:01.264,-1.3139194231799225
2025-03-23 10:17:01.264,1.4480080818114327
2025-03-23 10:17:01.265,2.6528948085090667
2025-03-23 10:17:01.265,1.3743123467571692
2025-03-23 10:17:01.265,-0.9251321916168186
2025-03-23 10:17:01.274,-2.119311303406738
2025-03-23 10:17:01.274,-1.3212492554854889
2025-03-23 10:17:01.274,0.7211972708252578
2025-03-23 10:17:01.275,2.343727052763032
2025-03-23 10:17:01.275,2.005265477092983
2025-03-23 10:17:01.284,-0.5006266003976326
2025-03-23 10:17:01.284,-3.31001448934122
2025-03-23 10:17:01.284,-3.5900400102250978
2025-03-23 10:17:01.285,-0.33096693400575056
2025-03-23 10:17:01.285,3.960737405870033
2025-03-23 10:17:01.294,5.200221305951676
2025-03-23 10:17:01.294,1.849684519448221
2025-03-23 10:17:01.294,-3.238137233336471
2025-03-23 10:17:01.295,-5.541151981109539
2025-03-23 10:17:01.295,-3.285693180309532
2025-03-23 10:17:01.304,1.1657331006256835
2025-03-23 10:17:01.304,4.049292407158643
2025-03-23 10:17:01.304,3.661388509912512
2025-03-23 10:17:01.305,1.112252440383476
2025-03-23 10:17:01.305,-1.421170634156629
2025-03-23 10:17:01.314,-2.5009162261368383
2025-03-23 10:17:01.314,-2.024246813276083
2025-03-23 10:17:01.314,-0.9101110290833135
2025-03-23 10:17:01.315,-0.12328648189122661
2025-03-23 10:17:01.315,0.4512448478008658
2025-03-23 10:17:01.324,1.7129807249393048
2025-03-23 10:17:01.324,3.353485772602559
2025-03-23 10:17:01.324,3.1128292037027405
2025-03-23 10:17:01.324,-0.49781193006184477
2025-03-23 10:17:01.325,-5.175479496577343
2025-03-23 10:17:01.334,-6.377683419747661
2025-03-23 10:17:01.334,-2.3367657245213733
2025-03-23 10:17:01.334,3.742256969686975
2025-03-23 10:17:01.335,6.976451390598008
2025-03-23 10:17:01.335,5.2976345074706135
2025-03-23 10:17:01.344,0.3803790473980134
2025-03-23 10:17:01.344,-4.472712796176981
2025-03-23 10:17:01.344,-6.386853152054255
2025-03-23 10:17:01.344,-4.137476218327994
2025-03-23 10:17:01.345,0.8113529899806272
2025-03-23 10:17:01.354,4.690402541461746
2025-03-23 10:17:01.354,4.557963612836417
2025-03-23 10:17:01.354,1.4213679539168866
2025-03-23 10:17:01.354,-1.089922652402889
2025-03-23 10:17:01.355,-1.3774748032130302
2025-03-23 10:17:01.364,-1.370538529482677
2025-03-23 10:17:01.364,-2.5909084976386754
2025-03-23 10:17:01.364,-2.974474915261389
2025-03-23 10:17:01.364,0.10093018386530102
2025-03-23 10:17:01.365,4.808794208579864
2025-03-23 10:17:01.372,5.863319962373582
2025-03-23 10:17:01.373,1.08372021406571
2025-03-23 10:17:01.373,-5.1308775498677655
2025-03-23 10:17:01.373,-6.347932310952397
2025-03-23 10:17:01.373,-1.3855329275442871
2025-03-23 10:17:01.382,4.287876512629888
2025-03-23 10:17:01.382,4.726353895677836
2025-03-23 10:17:01.383,0.23664767906369338
2025-03-23 10:17:01.383,-3.21964935890916
2025-03-23 10:17:01.383,-1.5176605933031584
2025-03-23 10:17:01.392,2.3415966071621424
2025-03-23 10:17:01.393,2.2416576902919294
2025-03-23 10:17:01.393,-2.4688571161017334
2025-03-23 10:17:01.393,-5.382026494768153
2025-03-23 10:17:01.402,-1.3905446615593766
2025-03-23 10:17:01.402,5.767813039134181
2025-03-23 10:17:01.403,7.424259138378533
2025-03-23 10:17:01.403,0.9390684478733607
2025-03-23 10:17:01.403,-6.616187648775994
2025-03-23 10:17:01.412,-7.1009940641181455
2025-03-23 10:17:01.412,-1.00406411961954
2025-03-23 10:17:01.413,4.196467455821652
2025-03-23 10:17:01.413,3.9271981767462414
2025-03-23 10:17:01.413,1.0744565434614013
2025-03-23 10:17:01.422,0.18581083178794983
2025-03-23 10:17:01.422,0.8466618830261597
2025-03-23 10:17:01.422,-0.4355942065556718
2025-03-23 10:17:01.423,-3.737552416475633
2025-03-23 10:17:01.423,-4.77319887692365
2025-03-23 10:17:01.432,-0.885505673007327
2025-03-23 10:17:01.432,4.605574338846752
2025-03-23 10:17:01.432,5.85706458717942
2025-03-23 10:17:01.433,1.5732180814907193
2025-03-23 10:17:01.433,-3.219762003039736
2025-03-23 10:17:01.442,-3.3229429498566883
2025-03-23 10:17:01.442,-0.0037402214926202104
2025-03-23 10:17:01.442,0.9205737639526578
2025-03-23 10:17:01.442,-2.2063290477943145
2025-03-23 10:17:01.443,-3.637468652681011
2025-03-23 10:17:01.452,1.4579607960651522
2025-03-23 10:17:01.452,8.229030904425047
2025-03-23 10:17:01.452,6.9894377925668865
2025-03-23 10:17:01.452,-3.2037713604605185
2025-03-23 10:17:01.453,-11.382571036870623
2025-03-23 10:17:01.460,-7.810001936363516
2025-03-23 10:17:01.461,3.643257582449575
2025-03-23 10:17:01.461,10.300701217482002
2025-03-23 10:17:01.461,5.921251900457533
2025-03-23 10:17:01.461,-3.100277033119718
2025-03-23 10:17:01.470,-6.698677005036424
2025-03-23 10:17:01.470,-2.6141033087552654
2025-03-23 10:17:01.471,2.7856560368176395
2025-03-23 10:17:01.471,3.1504834110616553
2025-03-23 10:17:01.471,-0.8311044057286334
2025-03-23 10:17:01.480,-3.3414786630345255
2025-03-23 10:17:01.481,-0.9382946115318938
2025-03-23 10:17:01.481,3.4093211170813995
2025-03-23 10:17:01.481,4.202923764175427
2025-03-23 10:17:01.490,0.17657608775101602
2025-03-23 10:17:01.490,-4.30723350205683
2025-03-23 10:17:01.491,-4.52318600538355
2025-03-23 10:17:01.491,-0.541837010165711
2025-03-23 10:17:01.491,3.487864549637707
2025-03-23 10:17:01.500,4.052265392504987
2025-03-23 10:17:01.500,1.2903934367422845
2025-03-23 10:17:01.501,-1.9490468328079644
2025-03-23 10:17:01.501,-2.936042070580274
2025-03-23 10:17:01.501,-1.2257063566507391
2025-03-23 10:17:01.510,1.0951090470501528
2025-03-23 10:17:01.510,1.4528328932741452
2025-03-23 10:17:01.510,-0.332560378795952
2025-03-23 10:17:01.511,-1.6520143769996527
2025-03-23 10:17:01.511,-0.34389631363872175
2025-03-23 10:17:01.520,2.2884653052171076
2025-03-23 10:17:01.520,2.922836646060343
2025-03-23 10:17:01.520,0.4334330966479352
2025-03-23 10:17:01.520,-2.7003515576713504
2025-03-23 10:17:01.521,-3.4251738975110344
2025-03-23 10:17:01.530,-1.4086983943024132
2025-03-23 10:17:01.530,1.2010310413341267
2025-03-23 10:17:01.530,2.416217787917664
2025-03-23 10:17:01.531,1.9929526236189765
2025-03-23 10:17:01.531,0.7780854680221018
2025-03-23 10:17:01.540,-0.5406303524372942
2025-03-23 10:17:01.540,-1.6225544429218004
2025-03-23 10:17:01.540,-1.9316026625315093
2025-03-23 10:17:01.541,-0.8931747911997248
2025-03-23 10:17:01.541,1.062916179708027
2025-03-23 10:17:01.550,2.2013200055876307
2025-03-23 10:17:01.550,1.082091051169143
2025-03-23 10:17:01.550,-1.398187533287199
2025-03-23 10:17:01.550,-2.3482826494839717
2025-03-23 10:17:01.551,-0.11791845369124485
2025-03-23 10:17:01.558,3.0265037148653384
2025-03-23 10:17:01.559,2.8232193519640534
2025-03-23 10:17:01.559,-1.559727592332292
2025-03-23 10:17:01.559,-5.291365107356882
2025-03-23 10:17:01.559,-3.109675343096834
2025-03-23 10:17:01.568,3.4687230758846836
2025-03-23 10:17:01.568,6.816949265881967
2025-03-23 10:17:01.569,2.3790981884060325
2025-03-23 10:17:01.569,-4.99743843525801
2025-03-23 10:17:01.569,-6.534316157198489
2025-03-23 10:17:01.578,-0.4822931314292981
2025-03-23 10:17:01.579,5.592547712112263
2025-03-23 10:17:01.579,4.412266349422562
2025-03-23 10:17:01.579,-1.9193363455969676
2025-03-23 10:17:01.579,-5.065717244033815
2025-03-23 10:17:01.588,-1.3824129276846877
2025-03-23 10:17:01.589,3.843875054957421
2025-03-23 10:17:01.589,3.8425479158422986
2025-03-23 10:17:01.589,-1.03665597078412
2025-03-23 10:17:01.598,-4.566465088673533
2025-03-23 10:17:01.598,-2.8563737732549273
2025-03-23 10:17:01.599,1.5745732134523844
2025-03-23 10:17:01.599,3.8515531616098744
2025-03-23 10:17:01.599,2.450871396179972
2025-03-23 10:17:01.599,-0.2050177529705221
2025-03-23 10:17:01.608,-1.5566557942322805
2025-03-23 10:17:01.608,-1.6859135453470098
2025-03-23 10:17:01.609,-1.9811096820119778
2025-03-23 10:17:01.609,-2.168309817105723
2025-03-23 10:17:01.618,-0.3653722753093925
2025-03-23 10:17:01.618,3.463291043703731
2025-03-23 10:17:01.619,5.8313068158672685
2025-03-23 10:17:01.619,3.331744019987081
2025-03-23 10:17:01.619,-2.709369077617867
2025-03-23 10:17:01.628,-7.061397446086564
2025-03-23 10:17:01.628,-6.081474274169223
2025-03-23 10:17:01.628,-0.8807952088625683
2025-03-23 10:17:01.629,4.784456250312994
2025-03-23 10:17:01.629,7.7097806553392605
2025-03-23 10:17:01.638,6.04423273883017
2025-03-23 10:17:01.638,-0.29483877957521576
2025-03-23 10:17:01.638,-7.880067319317479
2025-03-23 10:17:01.638,-10.294585055157249
2025-03-23 10:17:01.639,-3.8500959435645994
2025-03-23 10:17:01.646,6.807385605725294
2025-03-23 10:17:01.647,11.64546560806114
2025-03-23 10:17:01.647,5.655370952317
2025-03-23 10:17:01.647,-5.094637153711033
2025-03-23 10:17:01.656,-9.813963967505575
2025-03-23 10:17:01.656,-4.755401447518662
2025-03-23 10:17:01.657,3.4779487584761783
2025-03-23 10:17:01.657,6.310236451154316
2025-03-23 10:17:01.657,2.403928094962634
2025-03-23 10:17:01.666,-2.5922219949180336
2025-03-23 10:17:01.666,-3.439483352076336
2025-03-23 10:17:01.667,-0.34006557111919916
2025-03-23 10:17:01.667,2.6713209749032507
2025-03-23 10:17:01.667,2.4031065235941416
2025-03-23 10:17:01.676,-0.6743948125673225
2025-03-23 10:17:01.676,-3.239821008219885
2025-03-23 10:17:01.676,-2.4735290150559552
2025-03-23 10:17:01.677,0.9704830319364405
2025-03-23 10:17:01.677,3.4881583926357087
2025-03-23 10:17:01.686,2.424433923647641
2025-03-23 10:17:01.686,-0.9488623128146587
2025-03-23 10:17:01.686,-3.0007406499093348
2025-03-23 10:17:01.687,-1.9184863604706892
2025-03-23 10:17:01.687,0.6173604097191705
2025-03-23 10:17:01.696,1.8961056266103915
2025-03-23 10:17:01.696,1.239279453669083
2025-03-23 10:17:01.696,0.02971978382479433
2025-03-23 10:17:01.696,-0.5545804124861776
2025-03-23 10:17:01.697,-0.7076248930363183
2025-03-23 10:17:01.706,-0.8571904246758586
2025-03-23 10:17:01.706,-0.5389103861552305
2025-03-23 10:17:01.706,0.661495629687178
2025-03-23 10:17:01.706,1.6891867142763184
2025-03-23 10:17:01.707,0.9595597513328027
2025-03-23 10:17:01.716,-1.186516140622907
2025-03-23 10:17:01.716,-2.3241604965044895
2025-03-23 10:17:01.716,-0.8613041114538836
2025-03-23 10:17:01.716,1.843667616441705
2025-03-23 10:17:01.717,2.9508827042011685
2025-03-23 10:17:01.726,1.1195207079402316
2025-03-23 10:17:01.726,-2.276653986800124
2025-03-23 10:17:01.726,-4.209879785777041
2025-03-23 10:17:01.726,-2.317674672880475
2025-03-23 10:17:01.727,2.5789331193740366
2025-03-23 10:17:01.734,6.073059396154539
2025-03-23 10:17:01.735,3.9519722346281276
2025-03-23 10:17:01.735,-2.6669026688538424
2025-03-23 10:17:01.735,-7.3516661739443245
2025-03-23 10:17:01.735,-5.010750177709352
2025-03-23 10:17:01.746,2.134532076399784
2025-03-23 10:17:01.746,6.801035191951837
2025-03-23 10:17:01.746,4.777703751333864
2025-03-23 10:17:01.746,-0.8052511976649124
2025-03-23 10:17:01.746,-3.975271715397974
2025-03-23 10:17:01.754,-3.047639254928551
2025-03-23 10:17:01.755,-1.2446321539496736
2025-03-23 10:17:01.755,-0.8107476863796853
2025-03-23 10:17:01.755,0.25837225898125316
2025-03-23 10:17:01.764,3.7775243385067703
2025-03-23 10:17:01.764,6.275991081622
2025-03-23 10:17:01.764,2.4910993431591724
2025-03-23 10:17:01.765,-6.019796674653467
2025-03-23 10:17:01.765,-10.162485079022646
2025-03-23 10:17:01.774,-3.94352948477372
2025-03-23 10:17:01.774,6.852306294152847
2025-03-23 10:17:01.774,10.523448051809977
2025-03-23 10:17:01.775,3.3800580699940177
2025-03-23 10:17:01.775,-5.963858244370708
2025-03-23 10:17:01.784,-7.292960498469255
2025-03-23 10:17:01.784,-0.7649468194639549
2025-03-23 10:17:01.784,4.438125417873466
2025-03-23 10:17:01.785,2.183606033426519
2025-03-23 10:17:01.785,-3.2909132892704775
2025-03-23 10:17:01.794,-3.5840125373242375
2025-03-23 10:17:01.794,2.528956122880991
2025-03-23 10:17:01.794,7.2517589250589625
2025-03-23 10:17:01.794,3.7256129919856393
2025-03-23 10:17:01.795,-4.995649615801096
2025-03-23 10:17:01.804,-9.28787345147331
2025-03-23 10:17:01.804,-4.26835126761349
2025-03-23 10:17:01.804,4.7598052918134535
2025-03-23 10:17:01.804,8.63254085998277
2025-03-23 10:17:01.805,4.262887400649394
2025-03-23 10:17:01.814,-2.99806107374832
2025-03-23 10:17:01.814,-6.003369003492637
2025-03-23 10:17:01.814,-3.1203472786259665
2025-03-23 10:17:01.815,1.3973935276770695
2025-03-23 10:17:01.815,2.9514340787914954
2025-03-23 10:17:01.822,1.12938247003721
2025-03-23 10:17:01.823,-1.0438178222102703
2025-03-23 10:17:01.823,-0.9900962859400193
2025-03-23 10:17:01.823,0.9109537743936132
2025-03-23 10:17:01.823,2.0979545775056785
2025-03-23 10:17:01.832,0.6867171136972738
2025-03-23 10:17:01.833,-2.2326910303296508
2025-03-23 10:17:01.833,-3.410481928501346
2025-03-23 10:17:01.833,-1.1867897269530912
2025-03-23 10:17:01.844,2.1206951007125343
2025-03-23 10:17:01.844,2.8982101088409933
2025-03-23 10:17:01.844,0.9253184620150753
2025-03-23 10:17:01.844,-0.5562276199006833
2025-03-23 10:17:01.845,0.29420491787684366
2025-03-23 10:17:01.845,1.1918680615696353
2025-03-23 10:17:01.852,-0.7975578704437185
2025-03-23 10:17:01.853,-4.470652246106849
2025-03-23 10:17:01.853,-5.11322994897138
2025-03-23 10:17:01.853,-0.12914259681283652
2025-03-23 10:17:01.853,6.96818149385669
2025-03-23 10:17:01.862,9.191474705569428
2025-03-23 10:17:01.862,3.227219534463996
2025-03-23 10:17:01.863,-6.3365769080976095
2025-03-23 10:17:01.863,-10.858435986800544
2025-03-23 10:17:01.872,-6.165490353958305
2025-03-23 10:17:01.872,3.2697360768946435
2025-03-23 10:17:01.872,8.96803171248704
2025-03-23 10:17:01.873,6.683624681719852
2025-03-23 10:17:01.873,-0.2792823438044014
2025-03-23 10:17:01.882,-5.165752655789299
2025-03-23 10:17:01.882,-4.371379732515278
2025-03-23 10:17:01.882,-0.1975380570911559
2025-03-23 10:17:01.882,2.301558035935801
2025-03-23 10:17:01.883,0.8466497424415016
2025-03-23 10:17:01.892,-1.9385979483944638
2025-03-23 10:17:01.892,-1.9321946683100246
2025-03-23 10:17:01.892,1.5574773854929838
2025-03-23 10:17:01.893,4.828176876155241
2025-03-23 10:17:01.893,3.636240481119476
2025-03-23 10:17:01.902,-2.071377515538473
2025-03-23 10:17:01.902,-7.140932287386465
2025-03-23 10:17:01.902,-5.712751875570919
2025-03-23 10:17:01.902,2.07214882041123
2025-03-23 10:17:01.903,8.63793264634616
2025-03-23 10:17:01.910,6.492238557900841
2025-03-23 10:17:01.911,-2.714867758611647
2025-03-23 10:17:01.911,-9.13807643149717
2025-03-23 10:17:01.911,-5.781336279969496
2025-03-23 10:17:01.911,3.4890952993008333
2025-03-23 10:17:01.920,8.623335618035151
2025-03-23 10:17:01.921,4.676952974937889
2025-03-23 10:17:01.921,-3.547171383546602
2025-03-23 10:17:01.921,-7.59960969601177
2025-03-23 10:17:01.930,-4.155931300679152
2025-03-23 10:17:01.930,2.725133698998968
2025-03-23 10:17:01.931,6.5757652794671975
2025-03-23 10:17:01.931,4.485998918452228
2025-03-23 10:17:01.931,-1.2453920377533436
2025-03-23 10:17:01.940,-5.718989846505336
2025-03-23 10:17:01.940,-5.259802864939676
2025-03-23 10:17:01.940,-0.18190937538737023
2025-03-23 10:17:01.941,5.028321800320841
2025-03-23 10:17:01.941,5.331605644886085
2025-03-23 10:17:01.950,0.42649737716121133
2025-03-23 10:17:01.950,-4.323867908065361
2025-03-23 10:17:01.951,-3.8045066474322455
2025-03-23 10:17:01.951,0.7627513727445314
2025-03-23 10:17:01.951,3.5668007010102913
2025-03-23 10:17:01.960,1.5677725898422303
2025-03-23 10:17:01.960,-2.2362036421345777
2025-03-23 10:17:01.961,-3.2263156448824
2025-03-23 10:17:01.961,-0.6307802147101313
2025-03-23 10:17:01.961,2.551255471547292
2025-03-23 10:17:01.970,3.4986124027162906
2025-03-23 10:17:01.970,1.8495539369950664
2025-03-23 10:17:01.970,-1.120295975347361
2025-03-23 10:17:01.971,-3.719056793846869
2025-03-23 10:17:01.971,-4.116938886465643
2025-03-23 10:17:01.980,-1.246319555950463
2025-03-23 10:17:01.980,3.3237096157852584
2025-03-23 10:17:01.980,5.5255991341038255
2025-03-23 10:17:01.981,2.706417501431219
2025-03-23 10:17:01.981,-2.6632431836484898
2025-03-23 10:17:01.990,-5.001564946957577
2025-03-23 10:17:01.990,-2.0055273520743344
2025-03-23 10:17:01.990,2.455708310563133
2025-03-23 10:17:01.990,3.0792986361129024
2025-03-23 10:17:01.991,-0.2935502744514051
2025-03-23 10:17:02.000,-2.776733740591798
2025-03-23 10:17:02.000,-1.055255378834947
2025-03-23 10:17:02.000,2.3434410382407753
2025-03-23 10:17:02.000,2.7587996219052915
2025-03-23 10:17:02.001,-0.23836293376145745
2025-03-23 10:17:02.010,-2.607652888272143
2025-03-23 10:17:02.010,-1.6374615139310142
2025-03-23 10:17:02.010,0.6650852916394314
2025-03-23 10:17:02.010,1.0448346865864921
2025-03-23 10:17:02.010,-0.23878018816738822
2025-03-23 10:17:02.020,-0.34799894325848035
2025-03-23 10:17:02.020,1.2687996348035004
2025-03-23 10:17:02.020,1.7253268261141692
2025-03-23 10:17:02.020,-0.715199297478828
2025-03-23 10:17:02.021,-3.211873088237169
2025-03-23 10:17:02.030,-1.8365733613358737
2025-03-23 10:17:02.030,2.461546475632937
2025-03-23 10:17:02.030,4.258027049019266
2025-03-23 10:17:02.030,0.6660892343549415
2025-03-23 10:17:02.031,-4.408853250636367
2025-03-23 10:17:02.040,-4.778174830092467
2025-03-23 10:17:02.040,0.44636300872177864
2025-03-23 10:17:02.040,5.720895029151522
2025-03-23 10:17:02.040,5.427202299962251
2025-03-23 10:17:02.040,-0.1195167119266417
2025-03-23 10:17:02.048,-5.480903669193559
2025-03-23 10:17:02.049,-5.915788902132342
2025-03-23 10:17:02.049,-1.6050370076711007
2025-03-23 10:17:02.049,3.379623300806668
2025-03-23 10:17:02.049,5.199191684913383
2025-03-23 10:17:02.058,3.1552651193105787
2025-03-23 10:17:02.058,-0.5138978107719587
2025-03-23 10:17:02.059,-2.8904269181000513
2025-03-23 10:17:02.059,-2.732814859540917
2025-03-23 10:17:02.068,-1.2211456292587723
2025-03-23 10:17:02.068,-0.2873982230017105
2025-03-23 10:17:02.068,-0.11638527571936415
2025-03-23 10:17:02.069,0.8834841695959381
2025-03-23 10:17:02.069,3.0984669176958506
2025-03-23 10:17:02.078,3.960644334842103
2025-03-23 10:17:02.078,0.8859383710502076
2025-03-23 10:17:02.078,-4.423689022815565
2025-03-23 10:17:02.079,-6.669435956831713
2025-03-23 10:17:02.079,-2.8107248208227764
2025-03-23 10:17:02.088,3.9459735706477366
2025-03-23 10:17:02.088,7.145465898412324
2025-03-23 10:17:02.088,3.7908962269840716
2025-03-23 10:17:02.088,-2.59794561999318
2025-03-23 10:17:02.089,-5.6584938559266424
2025-03-23 10:17:02.098,-2.7697927992918174
2025-03-23 10:17:02.098,2.1607040405371314
2025-03-23 10:17:02.098,3.048352636948456
2025-03-23 10:17:02.098,-1.0032628331176072
2025-03-23 10:17:02.099,-4.029726891214067
2025-03-23 10:17:02.106,-0.5056801767245795
2025-03-23 10:17:02.107,6.582338096332218
2025-03-23 10:17:02.107,7.922175374768667
2025-03-23 10:17:02.107,-0.6596326392427818
2025-03-23 10:17:02.107,-11.271074963107786
2025-03-23 10:17:02.116,-11.58239181862237
2025-03-23 10:17:02.116,0.5181881159889694
2025-03-23 10:17:02.117,12.881846699085886
2025-03-23 10:17:02.117,12.110487136953719
2025-03-23 10:17:02.126,-0.7920957208909853
2025-03-23 10:17:02.126,-11.306248775083194
2025-03-23 10:17:02.127,-8.472146335293562
2025-03-23 10:17:02.127,2.6292468721579385
2025-03-23 10:17:02.127,8.14184320699871
2025-03-23 10:17:02.136,2.6007555740875334
2025-03-23 10:17:02.136,-5.497814452676287
2025-03-23 10:17:02.136,-5.3963599805549345
2025-03-23 10:17:02.137,2.5807604402827744
2025-03-23 10:17:02.137,8.095476501186358
2025-03-23 10:17:02.146,3.889093795180042
2025-03-23 10:17:02.146,-5.3960899980953
2025-03-23 10:17:02.146,-8.980166540434698
2025-03-23 10:17:02.147,-2.902847899753425
2025-03-23 10:17:02.147,5.604733921995163
2025-03-23 10:17:02.156,7.240418892213838
2025-03-23 10:17:02.156,1.4929133203956133
2025-03-23 10:17:02.156,-3.9592549632353915
2025-03-23 10:17:02.157,-3.40796541463527
2025-03-23 10:17:02.157,0.5979937223369876
2025-03-23 10:17:02.164,1.92509881370746
2025-03-23 10:17:02.165,-0.804471800639466
2025-03-23 10:17:02.165,-3.036883721900102
2025-03-23 10:17:02.165,-0.8769230981685944
2025-03-23 10:17:02.165,3.631013723132022
2025-03-23 10:17:02.174,5.06050426882787
2025-03-23 10:17:02.174,1.2961504896668679
2025-03-23 10:17:02.175,-4.043154192470558
2025-03-23 10:17:02.175,-5.8906845243433
2025-03-23 10:17:02.184,-2.938775443623981
2025-03-23 10:17:02.185,2.050394980847
2025-03-23 10:17:02.185,5.575381280911904
2025-03-23 10:17:02.185,5.505907326100059
2025-03-23 10:17:02.185,1.2672214617609323
2025-03-23 10:17:02.185,-5.153479096790146
2025-03-23 10:17:02.194,-8.504966651846285
2025-03-23 10:17:02.195,-4.205685410649781
2025-03-23 10:17:02.195,5.232118457720617
2025-03-23 10:17:02.195,10.59507167295393
2025-03-23 10:17:02.204,5.706849695928238
2025-03-23 10:17:02.204,-4.776373951115222
2025-03-23 10:17:02.205,-10.235317543619214
2025-03-23 10:17:02.205,-5.974709089724133
2025-03-23 10:17:02.205,2.5626225307622934
2025-03-23 10:17:02.214,7.157180385317853
2025-03-23 10:17:02.214,5.336030709695476
2025-03-23 10:17:02.214,0.7041039972223652
2025-03-23 10:17:02.214,-2.6034833973898466
2025-03-23 10:17:02.215,-3.5510651996568123
2025-03-23 10:17:02.224,-3.0810127605251565
2025-03-23 10:17:02.224,-1.6437547799361794
2025-03-23 10:17:02.225,0.9263129792962331
2025-03-23 10:17:02.225,3.6419804166198126
2025-03-23 10:17:02.225,4.0867746060284915
2025-03-23 10:17:02.234,1.0726875994035123
2025-03-23 10:17:02.234,-2.9697415926992803
2025-03-23 10:17:02.234,-3.9322960533895905
2025-03-23 10:17:02.235,-0.948556629615972
2025-03-23 10:17:02.235,2.0685599347935324
2025-03-23 10:17:02.244,1.2635679688097983
2025-03-23 10:17:02.244,-1.7249806386351287
2025-03-23 10:17:02.244,-1.5880863562950185
2025-03-23 10:17:02.244,2.975469686699143
2025-03-23 10:17:02.245,6.122577410932303
2025-03-23 10:17:02.252,1.8634250650147812
2025-03-23 10:17:02.253,-7.036380688354843
2025-03-23 10:17:02.253,-10.55554405493689
2025-03-23 10:17:02.253,-3.014180153008355
2025-03-23 10:17:02.253,9.051941188445289
2025-03-23 10:17:02.262,13.093485705807044
2025-03-23 10:17:02.262,4.4266066055731
2025-03-23 10:17:02.263,-8.218978297442819
2025-03-23 10:17:02.263,-12.183549784135502
2025-03-23 10:17:02.272,-4.626140910751638
2025-03-23 10:17:02.272,5.251467252557551
2025-03-23 10:17:02.273,7.559863071274886
2025-03-23 10:17:02.273,2.540455504511063
2025-03-23 10:17:02.273,-1.8481501729578103
2025-03-23 10:17:02.282,-1.0744183805623106
2025-03-23 10:17:02.282,1.1442045741687588
2025-03-23 10:17:02.282,-0.29668026550350757
2025-03-23 10:17:02.283,-4.018014947864847
2025-03-23 10:17:02.283,-4.287925454822188
2025-03-23 10:17:02.292,0.5495354321040768
2025-03-23 10:17:02.292,5.427217797135836
2025-03-23 10:17:02.293,4.9784472403933195
2025-03-23 10:17:02.293,0.08892818881087738
2025-03-23 10:17:02.293,-3.5968435339489027
2025-03-23 10:17:02.301,-2.6532559642856732
2025-03-23 10:17:02.301,0.3881534337858917
2025-03-23 10:17:02.301,0.7690239516933778
2025-03-23 10:17:02.301,-1.9695139206126975
2025-03-23 10:17:02.301,-2.9925616614021298
2025-03-23 10:17:02.310,1.239267031122828
2025-03-23 10:17:02.311,6.941768861830775
2025-03-23 10:17:02.311,6.485227745269534
2025-03-23 10:17:02.311,-1.7376353961344535
2025-03-23 10:17:02.320,-9.814677831132796
2025-03-23 10:17:02.320,-8.737926360293788
2025-03-23 10:17:02.321,1.0521213040549662
2025-03-23 10:17:02.321,9.740126712588355
2025-03-23 10:17:02.321,8.680817856129037
2025-03-23 10:17:02.330,-0.578790889774184
2025-03-23 10:17:02.330,-8.276030487287398
2025-03-23 10:17:02.331,-6.761204004098418
2025-03-23 10:17:02.331,1.6958479339148065
2025-03-23 10:17:02.331,7.526264741653691
2025-03-23 10:17:02.340,4.226295860829586
2025-03-23 10:17:02.340,-4.367657397368008
2025-03-23 10:17:02.340,-8.089849094019891
2025-03-23 10:17:02.341,-1.9948027254943095
2025-03-23 10:17:02.341,7.402493700291533
2025-03-23 10:17:02.350,9.052659791088969
2025-03-23 10:17:02.350,0.24902953273783646
2025-03-23 10:17:02.350,-9.577217907341431
2025-03-23 10:17:02.351,-9.281606034814939
2025-03-23 10:17:02.351,1.0827601509220686
2025-03-23 10:17:02.360,10.129402744341316
2025-03-23 10:17:02.360,8.166485147358676
2025-03-23 10:17:02.360,-1.9659427328747316
2025-03-23 10:17:02.361,-8.838722170734005
2025-03-23 10:17:02.361,-5.781405219459347
2025-03-23 10:17:02.370,2.43205258425865
2025-03-23 10:17:02.370,6.3654360688742715
2025-03-23 10:17:02.370,2.780727746097316
2025-03-23 10:17:02.371,-2.9399587567371652
2025-03-23 10:17:02.371,-4.02011852649688
2025-03-23 10:17:02.380,0.10039043794682823
2025-03-23 10:17:02.380,3.900043463877141
2025-03-23 10:17:02.380,2.6186171708124273
2025-03-23 10:17:02.381,-2.207964842153607
2025-03-23 10:17:02.381,-4.737254061313049
2025-03-23 10:17:02.390,-1.9043837774652987
2025-03-23 10:17:02.390,2.950591354861722
2025-03-23 10:17:02.390,4.334751648984231
2025-03-23 10:17:02.391,1.232691852833948
2025-03-23 10:17:02.391,-2.2614427226413065
2025-03-23 10:17:02.400,-2.5224935929815175
2025-03-23 10:17:02.400,-0.45244529870451183
2025-03-23 10:17:02.400,0.7791669673609505
2025-03-23 10:17:02.401,0.2800528599418136
2025-03-23 10:17:02.401,-0.06506221236815074
2025-03-23 10:17:02.410,0.8862126999481876
2025-03-23 10:17:02.410,1.5185672184427919
2025-03-23 10:17:02.410,-0.044428101172156474
2025-03-23 10:17:02.410,-2.5562258225573746
2025-03-23 10:17:02.411,-2.6223823762585043
2025-03-23 10:17:02.420,0.6750770876700981
2025-03-23 10:17:02.420,3.8347231652934664
2025-03-23 10:17:02.420,2.937056641406386
2025-03-23 10:17:02.420,-1.316173150210775
2025-03-23 10:17:02.421,-4.181784863937819
2025-03-23 10:17:02.430,-2.4121914478312307
2025-03-23 10:17:02.430,2.034290092461383
2025-03-23 10:17:02.430,4.142649141039588
2025-03-23 10:17:02.430,1.2063270038952516
2025-03-23 10:17:02.431,-3.9544756736603532
2025-03-23 10:17:02.438,-5.234536249915293
2025-03-23 10:17:02.439,0.23763576207533782
2025-03-23 10:17:02.439,7.538104800952886
2025-03-23 10:17:02.439,7.878047446879038
2025-03-23 10:17:02.439,-1.1823188119211738
2025-03-23 10:17:02.448,-11.019967376012103
2025-03-23 10:17:02.449,-10.424717904479625
2025-03-23 10:17:02.449,1.195555691371275
2025-03-23 10:17:02.449,12.031052342542216
2025-03-23 10:17:02.458,10.770201952949154
2025-03-23 10:17:02.458,-0.7516641376230402
2025-03-23 10:17:02.458,-10.073178916571672
2025-03-23 10:17:02.459,-8.329226234022236
2025-03-23 10:17:02.459,0.7649939592901179
2025-03-23 10:17:02.468,6.659338100568303
2025-03-23 10:17:02.468,4.239587945377711
2025-03-23 10:17:02.468,-1.7697561611328099
2025-03-23 10:17:02.468,-3.797284799779311
2025-03-23 10:17:02.469,-0.2783814653584009
2025-03-23 10:17:02.476,3.563401591169464
2025-03-23 10:17:02.477,2.5814406493771007
2025-03-23 10:17:02.477,-2.292710825321408
2025-03-23 10:17:02.477,-5.344191937159812
2025-03-23 10:17:02.477,-2.6925458263726996
2025-03-23 10:17:02.486,3.2471640831733355
2025-03-23 10:17:02.487,6.275852496916994
2025-03-23 10:17:02.487,3.0786626468191995
2025-03-23 10:17:02.487,-3.15659190979485
2025-03-23 10:17:02.487,-6.042896758649797
2025-03-23 10:17:02.497,-2.7861797238706503
2025-03-23 10:17:02.497,2.793894472147969
2025-03-23 10:17:02.497,4.6010396618259595
2025-03-23 10:17:02.497,1.3334666500487515
2025-03-23 10:17:02.497,-2.2618246056097253
2025-03-23 10:17:02.506,-1.8574576882657672
2025-03-23 10:17:02.507,0.7694846073814081
2025-03-23 10:17:02.507,0.8770243682830499
2025-03-23 10:17:02.507,-1.7431368361404682
2025-03-23 10:17:02.516,-2.2361581636583465
2025-03-23 10:17:02.516,1.6060299166410614
2025-03-23 10:17:02.517,4.940794206784764
2025-03-23 10:17:02.517,2.2112412283180576
2025-03-23 10:17:02.517,-4.281729899415188
2025-03-23 10:17:02.526,-6.370536024462067
2025-03-23 10:17:02.526,-0.8068480087683596
2025-03-23 10:17:02.527,5.86791582143229
2025-03-23 10:17:02.527,5.483789402329811
2025-03-23 10:17:02.527,-1.2746968414690758
2025-03-23 10:17:02.536,-5.915392566951752
2025-03-23 10:17:02.536,-3.0255448754381726
2025-03-23 10:17:02.537,3.2743803024068288
2025-03-23 10:17:02.537,5.025077584213946
2025-03-23 10:17:02.537,0.35900494058102506
2025-03-23 10:17:02.546,-4.66372564631242
2025-03-23 10:17:02.546,-3.8451162556868734
2025-03-23 10:17:02.547,1.697229602956216
2025-03-23 10:17:02.547,5.189678202600589
2025-03-23 10:17:02.547,2.503953440539661
2025-03-23 10:17:02.556,-3.0350460317090073
2025-03-23 10:17:02.556,-4.902027980537683
2025-03-23 10:17:02.556,-1.1990366139174586
2025-03-23 10:17:02.557,3.521982658088164
2025-03-23 10:17:02.557,4.1402592602126065
2025-03-23 10:17:02.566,0.6780681550236317
2025-03-23 10:17:02.566,-2.8070950294744397
2025-03-23 10:17:02.566,-3.3540090854164673
2025-03-23 10:17:02.567,-1.394553162902884
2025-03-23 10:17:02.567,1.0690688677096938
2025-03-23 10:17:02.574,2.517745932374938
2025-03-23 10:17:02.575,2.3022521261783493
2025-03-23 10:17:02.575,0.7112401190519404
2025-03-23 10:17:02.575,-1.0052219956936568
2025-03-23 10:17:02.575,-1.6939877973413644
2025-03-23 10:17:02.584,-1.4800273224125784
2025-03-23 10:17:02.585,-1.1507842610338792
2025-03-23 10:17:02.585,-0.647669099348436
2025-03-23 10:17:02.585,0.7459627659046042
2025-03-23 10:17:02.594,2.675591572315827
2025-03-23 10:17:02.594,3.2769805918453794
2025-03-23 10:17:02.595,1.1560937027103078
2025-03-23 10:17:02.595,-2.5287424007511414
2025-03-23 10:17:02.595,-4.6372896782798865
2025-03-23 10:17:02.604,-3.059113974564544
2025-03-23 10:17:02.605,0.9719477230675926
2025-03-23 10:17:02.605,3.9623632374885034
2025-03-23 10:17:02.605,3.629553616798969
2025-03-23 10:17:02.605,0.903825165254999
2025-03-23 10:17:02.614,-1.5948585379212545
2025-03-23 10:17:02.614,-2.3689412123587377
2025-03-23 10:17:02.615,-1.8264317766024425
2025-03-23 10:17:02.615,-0.9085153501447373
2025-03-23 10:17:02.615,0.0349624267454535
2025-03-23 10:17:02.624,0.9903881553992933
2025-03-23 10:17:02.625,1.7306365961722079
2025-03-23 10:17:02.625,1.8863091580403075
2025-03-23 10:17:02.625,1.223185186678801
2025-03-23 10:17:02.625,-0.27668084166173984
2025-03-23 10:17:02.634,-2.1990879964672105
2025-03-23 10:17:02.634,-3.380224908196251
2025-03-23 10:17:02.635,-2.3905586216624526
2025-03-23 10:17:02.635,0.8769944334615838
2025-03-23 10:17:02.635,4.145835059413741
2025-03-23 10:17:02.644,4.2973150085289875
2025-03-23 10:17:02.644,0.7462832007341078
2025-03-23 10:17:02.645,-3.2835185827664857
2025-03-23 10:17:02.645,-3.9478265087208655
2025-03-23 10:17:02.645,-1.131053578505357
2025-03-23 10:17:02.654,1.5961414619424479
2025-03-23 10:17:02.654,1.592565605409193
2025-03-23 10:17:02.655,0.20659190897335303
2025-03-23 10:17:02.655,0.1341256750999356
2025-03-23 10:17:02.655,1.096519324861576
2025-03-23 10:17:02.664,0.46097144717198396
2025-03-23 10:17:02.664,-1.9905959206999446
2025-03-23 10:17:02.665,-2.7264292736446207
2025-03-23 10:17:02.665,0.49766708104090174
2025-03-23 10:17:02.665,4.296574100626378
2025-03-23 10:17:02.674,3.2324995830530474
2025-03-23 10:17:02.674,-2.5980190727553634
2025-03-23 10:17:02.674,-6.528152105783293
2025-03-23 10:17:02.675,-3.2622026062220124
2025-03-23 10:17:02.675,4.097586693400319
2025-03-23 10:17:02.684,7.341161038893468
2025-03-23 10:17:02.684,2.997457491559986
2025-03-23 10:17:02.684,-3.664685928816344
2025-03-23 10:17:02.685,-5.478450243531626
2025-03-23 10:17:02.685,-2.0217315790378634
2025-03-23 10:17:02.694,1.1242914952487246
2025-03-23 10:17:02.694,0.7866186210418795
2025-03-23 10:17:02.695,0.09951057897762122
2025-03-23 10:17:02.695,2.5034823057428413
2025-03-23 10:17:02.695,5.169767961816246
2025-03-23 10:17:02.704,2.384868397361234
2025-03-23 10:17:02.704,-5.300769866014519
2025-03-23 10:17:02.705,-9.70706998441295
2025-03-23 10:17:02.705,-4.673830054130756
2025-03-23 10:17:02.705,5.6570178405175175
2025-03-23 10:17:02.712,10.945555219311663
2025-03-23 10:17:02.713,6.061128623842296
2025-03-23 10:17:02.713,-3.8280998504601644
2025-03-23 10:17:02.713,-9.287124316749763
2025-03-23 10:17:02.722,-6.0027103558601596
2025-03-23 10:17:02.723,1.9089090612531168
2025-03-23 10:17:02.723,6.627712079220995
2025-03-23 10:17:02.723,4.258855311158496
2025-03-23 10:17:02.723,-1.7068443357829786
2025-03-23 10:17:02.732,-4.484043881413949
2025-03-23 10:17:02.732,-1.5200599558171382
2025-03-23 10:17:02.733,2.968664395107738
2025-03-23 10:17:02.733,3.409568563971714
2025-03-23 10:17:02.733,-0.5502765660739859
2025-03-23 10:17:02.742,-4.188703929086647
2025-03-23 10:17:02.743,-3.5008230797558815
2025-03-23 10:17:02.743,0.7727458374747255
2025-03-23 10:17:02.743,4.558557480131115
2025-03-23 10:17:02.743,4.453787499045108
2025-03-23 10:17:02.752,0.43689136309448395
2025-03-23 10:17:02.752,-4.143904602272691
2025-03-23 10:17:02.753,-5.257980511653499
2025-03-23 10:17:02.753,-1.924714890791661
2025-03-23 10:17:02.753,2.6794798584780324
2025-03-23 10:17:02.762,4.55076318185943
2025-03-23 10:17:02.762,2.9152260715278233
2025-03-23 10:17:02.763,0.10640139893401998
2025-03-23 10:17:02.763,-1.8395254443812254
2025-03-23 10:17:02.763,-2.8075896523068713
2025-03-23 10:17:02.772,-3.00216201246464
2025-03-23 10:17:02.773,-1.7381996785470473
2025-03-23 10:17:02.773,1.1556584099445881
2025-03-23 10:17:02.773,3.912777970934643
2025-03-23 10:17:02.773,4.1704169140642176
2025-03-23 10:17:02.782,1.5071120930689144
2025-03-23 10:17:02.782,-2.130546507596063
2025-03-23 10:17:02.783,-4.260392016124761
2025-03-23 10:17:02.783,-3.6025016862677752
2025-03-23 10:17:02.783,-0.6817154076787342
2025-03-23 10:17:02.792,2.4115045432370716
2025-03-23 10:17:02.792,3.448764087730581
2025-03-23 10:17:02.792,2.15791980095935
2025-03-23 10:17:02.793,0.31970812984003233
2025-03-23 10:17:02.793,-0.8025370913201901
2025-03-23 10:17:02.802,-1.8198357598271826
2025-03-23 10:17:02.802,-2.9723020762680417
2025-03-23 10:17:02.802,-2.394644923484014
2025-03-23 10:17:02.803,1.0815608500462996
2025-03-23 10:17:02.803,4.5932457609866875
2025-03-23 10:17:02.810,3.7921590390564384
2025-03-23 10:17:02.811,-1.0916719842050149
2025-03-23 10:17:02.811,-4.583476956485116
2025-03-23 10:17:02.811,-2.6963974892335787
2025-03-23 10:17:02.811,1.80587330549963
2025-03-23 10:17:02.820,3.0692782805373473
2025-03-23 10:17:02.821,-0.06581582552200282
2025-03-23 10:17:02.821,-2.740789347510206
2025-03-23 10:17:02.821,-0.8892190676248826
2025-03-23 10:17:02.830,3.1941068061664954
2025-03-23 10:17:02.831,3.8643913950679045
2025-03-23 10:17:02.831,-0.560665243158553
2025-03-23 10:17:02.831,-5.567372118020263
2025-03-23 10:17:02.831,-5.5654437777520025
2025-03-23 10:17:02.840,0.07745718577495292
2025-03-23 10:17:02.840,6.45376594508105
2025-03-23 10:17:02.841,7.7731108243054585
2025-03-23 10:17:02.841,2.4493459229049823
2025-03-23 10:17:02.841,-5.491386946114951
2025-03-23 10:17:02.850,-9.505013753096113
2025-03-23 10:17:02.851,-5.8629875107341585
2025-03-23 10:17:02.851,2.8719000475176437
2025-03-23 10:17:02.851,9.528519343032315
2025-03-23 10:17:02.851,8.37925936374882
2025-03-23 10:17:02.860,0.37508137243594025
2025-03-23 10:17:02.861,-7.532743449744771
2025-03-23 10:17:02.861,-8.684402852495566
2025-03-23 10:17:02.861,-2.698889700166255
2025-03-23 10:17:02.861,4.587766150709243
2025-03-23 10:17:02.870,6.880138859053478
2025-03-23 10:17:02.870,3.0270650922611377
2025-03-23 10:17:02.870,-2.551950448095024
2025-03-23 10:17:02.871,-4.361080799235917
2025-03-23 10:17:02.871,-1.0832630096784057
2025-03-23 10:17:02.880,2.9625448935048606
2025-03-23 10:17:02.880,2.2733584110690197
2025-03-23 10:17:02.880,-2.9197482801859618
2025-03-23 10:17:02.881,-5.611867272593379
2025-03-23 10:17:02.881,-0.4828816909526408
2025-03-23 10:17:02.889,7.643623308375683
2025-03-23 10:17:02.889,8.165734992890684
2025-03-23 10:17:02.889,-1.4155329803747447
2025-03-23 10:17:02.889,-10.569271659462636
2025-03-23 10:17:02.898,-8.165603117776469
2025-03-23 10:17:02.899,3.1941574004097584
2025-03-23 10:17:02.899,10.128886960875137
2025-03-23 10:17:02.899,5.119532265279969
2025-03-23 10:17:02.899,-4.694603029696422
2025-03-23 10:17:02.908,-7.219877097387902
2025-03-23 10:17:02.909,-0.38813408727855037
2025-03-23 10:17:02.909,6.268380727129248
2025-03-23 10:17:02.909,4.17107467617309
2025-03-23 10:17:02.909,-3.92571283221293
2025-03-23 10:17:02.918,-7.915868706423461
2025-03-23 10:17:02.919,-2.777739158702494
2025-03-23 10:17:02.919,5.836834199650108
2025-03-23 10:17:02.919,8.686794822994859
2025-03-23 10:17:02.919,3.238942463188184
2025-03-23 10:17:02.928,-4.623872327265158
2025-03-23 10:17:02.929,-7.711198766406619
2025-03-23 10:17:02.929,-4.265984765239569
2025-03-23 10:17:02.929,1.8287300011917702
2025-03-23 10:17:02.929,5.382520204583768
2025-03-23 10:17:02.938,4.066178230772989
2025-03-23 10:17:02.938,-0.1447187114575687
2025-03-23 10:17:02.939,-2.9821078805071206
2025-03-23 10:17:02.939,-2.089181020239211
2025-03-23 10:17:02.939,0.6646188190238582
2025-03-23 10:17:02.948,1.6977511103226235
2025-03-23 10:17:02.949,0.04189954902515075
2025-03-23 10:17:02.949,-2.006295982238157
2025-03-23 10:17:02.949,-2.0867994990423715
2025-03-23 10:17:02.949,-0.12103151589728268
2025-03-23 10:17:02.958,2.34912843947207
2025-03-23 10:17:02.958,3.5713811654818253
2025-03-23 10:17:02.958,2.2816540624620485
2025-03-23 10:17:02.959,-1.3150679903047118
2025-03-23 10:17:02.959,-4.678680431008351
2025-03-23 10:17:02.968,-4.459550984559374
2025-03-23 10:17:02.968,-0.08028007799685502
2025-03-23 10:17:02.968,4.714479470003409
2025-03-23 10:17:02.969,5.117133178800376
2025-03-23 10:17:02.969,0.5055219249321106
2025-03-23 10:17:02.978,-4.344993988873887
2025-03-23 10:17:02.978,-4.308527302459816
2025-03-23 10:17:02.978,0.19264286150073157
2025-03-23 10:17:02.979,3.828112844748349
2025-03-23 10:17:02.979,2.938858560730122
2025-03-23 10:17:02.986,-0.563032530048881
2025-03-23 10:17:02.987,-2.6049534563380927
2025-03-23 10:17:02.987,-1.9619094631143823
2025-03-23 10:17:02.987,-0.26443963611989146
2025-03-23 10:17:02.998,1.0237513712435633
2025-03-23 10:17:02.998,1.5116506781081458
2025-03-23 10:17:02.998,1.019232530391829
2025-03-23 10:17:02.999,-0.19118508209732998
2025-03-23 10:17:02.999,-0.9841366470401626
2025-03-23 10:17:02.999,-0.5540678448408372
2025-03-23 10:17:03.006,0.44361275382212273
2025-03-23 10:17:03.007,0.7413448813281454
2025-03-23 10:17:03.007,-0.14849893639945158
2025-03-23 10:17:03.007,-1.5822538216336743
2025-03-23 10:17:03.016,-2.016165560691915
2025-03-23 10:17:03.017,-0.052112032836499476
2025-03-23 10:17:03.017,3.3128245199632174
2025-03-23 10:17:03.017,4.299162105999011
2025-03-23 10:17:03.017,0.5686182433358103
2025-03-23 10:17:03.026,-4.605165584413719
2025-03-23 10:17:03.027,-5.297973659135023
2025-03-23 10:17:03.027,-0.4195018682699725
2025-03-23 10:17:03.027,4.520392648385919
2025-03-23 10:17:03.027,4.122958091392266
2025-03-23 10:17:03.036,-0.584811423247523
2025-03-23 10:17:03.037,-3.8884680529521463
2025-03-23 10:17:03.037,-2.170172897473077
2025-03-23 10:17:03.037,2.3083025498879226
2025-03-23 10:17:03.037,4.161616163875989
2025-03-23 10:17:03.046,0.8982048922091569
2025-03-23 10:17:03.046,-4.111939701304112
2025-03-23 10:17:03.047,-5.164413213373822
2025-03-23 10:17:03.047,-0.6770456535847431
2025-03-23 10:17:03.047,4.817344076038558
2025-03-23 10:17:03.056,5.599699636852993
2025-03-23 10:17:03.056,0.9794577090231007
2025-03-23 10:17:03.057,-4.083319031440054
2025-03-23 10:17:03.057,-4.442855955754624
2025-03-23 10:17:03.057,-0.39543904233647215
2025-03-23 10:17:03.066,2.7864975834071393
2025-03-23 10:17:03.066,1.3127699040325311
2025-03-23 10:17:03.067,-2.2048709018395733
2025-03-23 10:17:03.067,-2.0506108988320157
2025-03-23 10:17:03.067,2.7213659563875394
2025-03-23 10:17:03.076,6.237260008339293
2025-03-23 10:17:03.076,2.8506100788710835
2025-03-23 10:17:03.077,-5.348801217072251
2025-03-23 10:17:03.077,-9.943672493705082
2025-03-23 10:17:03.077,-5.194910539736842
2025-03-23 10:17:03.085,5.259454936812682
2025-03-23 10:17:03.085,11.436844698257696
2025-03-23 10:17:03.085,7.119602720597372
2025-03-23 10:17:03.085,-3.3671910092549893
2025-03-23 10:17:03.094,-9.512914993450542
2025-03-23 10:17:03.095,-6.026411616647257
2025-03-23 10:17:03.095,1.6878290005636805
2025-03-23 10:17:03.095,4.754841289798244
2025-03-23 10:17:03.095,1.682571383036004
2025-03-23 10:17:03.104,-1.2021094553572809
2025-03-23 10:17:03.104,0.38440760617173364
2025-03-23 10:17:03.105,2.891170135193833
2025-03-23 10:17:03.105,1.1292755533240229
2025-03-23 10:17:03.105,-3.4025803064198707
2025-03-23 10:17:03.114,-4.531125880082063
2025-03-23 10:17:03.115,-0.4093855230114073
2025-03-23 10:17:03.115,3.8180979774203574
2025-03-23 10:17:03.115,3.117542507347121
2025-03-23 10:17:03.115,-0.975422816340062
2025-03-23 10:17:03.124,-3.0272656184444915
2025-03-23 10:17:03.125,-0.9212063610347544
2025-03-23 10:17:03.125,2.1819810833953195
2025-03-23 10:17:03.125,2.6143218652976814
2025-03-23 10:17:03.125,0.3713727883651837
2025-03-23 10:17:03.134,-2.1865605223995868
2025-03-23 10:17:03.135,-3.495352791130495
2025-03-23 10:17:03.135,-2.9113939753385862
2025-03-23 10:17:03.135,0.36975353349951257
2025-03-23 10:17:03.135,5.506492503046749
2025-03-23 10:17:03.144,7.939363575934456
2025-03-23 10:17:03.144,3.0323693589531375
2025-03-23 10:17:03.144,-6.9158318105681555
2025-03-23 10:17:03.145,-12.465105950720025
2025-03-23 10:17:03.145,-6.739132652014835
2025-03-23 10:17:03.152,5.827495195028509
2025-03-23 10:17:03.153,13.239462106653177
2025-03-23 10:17:03.153,8.690859348088168
2025-03-23 10:17:03.153,-2.4709573895341603
2025-03-23 10:17:03.153,-9.355778323471288
2025-03-23 10:17:03.164,-7.306645298447694
2025-03-23 10:17:03.164,-1.1117033184132548
2025-03-23 10:17:03.165,2.6371239742844548
2025-03-23 10:17:03.165,3.08432663814046
2025-03-23 10:17:03.165,3.336382369824402
2025-03-23 10:17:03.172,3.800749300909503
2025-03-23 10:17:03.173,1.4276855652679297
2025-03-23 10:17:03.173,-4.103467085334243
2025-03-23 10:17:03.173,-7.453975714480087
2025-03-23 10:17:03.182,-3.7884631406734797
2025-03-23 10:17:03.183,4.0146477313134605
2025-03-23 10:17:03.183,7.777686454062869
2025-03-23 10:17:03.183,3.653464511620483
2025-03-23 10:17:03.183,-3.4606423730572375
2025-03-23 10:17:03.192,-6.014998434971415
2025-03-23 10:17:03.192,-2.219421467000335
2025-03-23 10:17:03.193,2.9467181859540443
2025-03-23 10:17:03.193,3.8439652263397472
2025-03-23 10:17:03.193,0.01918460169932823
2025-03-23 10:17:03.202,-3.6240378847766306
2025-03-23 10:17:03.203,-2.1469301078789123
2025-03-23 10:17:03.203,3.429421219609984
2025-03-23 10:17:03.203,6.120761629812589
2025-03-23 10:17:03.203,0.8835112429143015
2025-03-23 10:17:03.212,-7.734615158901355
2025-03-23 10:17:03.212,-9.146477643997088
2025-03-23 10:17:03.213,0.30274307386273724
2025-03-23 10:17:03.213,10.947247980205312
2025-03-23 10:17:03.213,10.245705026689754
2025-03-23 10:17:03.220,-1.557671142708697
2025-03-23 10:17:03.221,-11.016588977253383
2025-03-23 10:17:03.221,-7.914901447531456
2025-03-23 10:17:03.221,2.5202055309554257
2025-03-23 10:17:03.221,7.432368526928691
2025-03-23 10:17:03.231,2.996629259734852
2025-03-23 10:17:03.231,-2.497276060798725
2025-03-23 10:17:03.231,-1.7118872962731015
2025-03-23 10:17:03.231,1.9592511786499993
2025-03-23 10:17:03.231,0.9791867808894796
2025-03-23 10:17:03.240,-4.1052300384818174
2025-03-23 10:17:03.241,-4.875859005714791
2025-03-23 10:17:03.241,2.294571471018737
2025-03-23 10:17:03.241,9.128310318006244
2025-03-23 10:17:03.250,5.262415288165676
2025-03-23 10:17:03.250,-6.85098042362905
2025-03-23 10:17:03.251,-12.741249508930615
2025-03-23 10:17:03.251,-3.729995038223385
2025-03-23 10:17:03.251,10.684802194095916
2025-03-23 10:17:03.258,13.43139875083053
2025-03-23 10:17:03.259,1.257411656781525
2025-03-23 10:17:03.259,-10.942718405025472
2025-03-23 10:17:03.259,-9.34531077496142
2025-03-23 10:17:03.268,1.3111984174213434
2025-03-23 10:17:03.269,5.697974180893144
2025-03-23 10:17:03.269,-0.003281327762165498
2025-03-23 10:17:03.269,-3.55571846542172
2025-03-23 10:17:03.269,3.6425387565380323
2025-03-23 10:17:03.278,11.767500975148328
2025-03-23 10:17:03.278,5.646989825308651
2025-03-23 10:17:03.278,-11.92678605513162
2025-03-23 10:17:03.279,-20.49921894452961
2025-03-23 10:17:03.279,-7.508898549652294
2025-03-23 10:17:03.286,14.499994724558423
2025-03-23 10:17:03.287,22.0177752926976
2025-03-23 10:17:03.287,8.065644685539642
2025-03-23 10:17:03.287,-11.110780522009646
2025-03-23 10:17:03.296,-16.398199708731724
2025-03-23 10:17:03.297,-6.401998308924631
2025-03-23 10:17:03.297,5.133642496381025
2025-03-23 10:17:03.297,7.520440097630785
2025-03-23 10:17:03.297,2.9541041582527505
2025-03-23 10:17:03.305,-0.6132609257149761
2025-03-23 10:17:03.305,-0.29213275626411533
2025-03-23 10:17:03.305,0.7489661939846234
2025-03-23 10:17:03.305,-0.28914377160164806
2025-03-23 10:17:03.305,-2.331109050315641
2025-03-23 10:17:03.316,-2.941430483936303
2025-03-23 10:17:03.316,-1.538532118335828
2025-03-23 10:17:03.317,0.7288268610007389
2025-03-23 10:17:03.317,2.661155973743692
2025-03-23 10:17:03.317,3.412447232042254
2025-03-23 10:17:03.325,2.2593083287069495
2025-03-23 10:17:03.325,-0.5254072130702832
2025-03-23 10:17:03.325,-2.9651354780697923
2025-03-23 10:17:03.325,-3.166435756814363
2025-03-23 10:17:03.325,-1.7817413953084682
2025-03-23 10:17:03.335,-0.842146339982962
2025-03-23 10:17:03.335,-0.06647462824826036
2025-03-23 10:17:03.335,2.7861746359564368
2025-03-23 10:17:03.335,6.692877701604657
2025-03-23 10:17:03.335,6.09445552294992
2025-03-23 10:17:03.344,-1.7421522038198187
2025-03-23 10:17:03.344,-10.510808922554014
2025-03-23 10:17:03.345,-10.686815031501068
2025-03-23 10:17:03.345,-1.2203470080665344
2025-03-23 10:17:03.354,8.717298473066359
2025-03-23 10:17:03.354,10.37024101279891
2025-03-23 10:17:03.354,4.312647921445584
2025-03-23 10:17:03.355,-2.484624126225318
2025-03-23 10:17:03.355,-5.236945732649108
2025-03-23 10:17:03.363,-4.5236310926547745
2025-03-23 10:17:03.363,-2.859075663744952
2025-03-23 10:17:03.363,-1.2571420540248754
2025-03-23 10:17:03.363,0.60790899513031
2025-03-23 10:17:03.363,2.80027277129799
2025-03-23 10:17:03.373,4.591321188907033
2025-03-23 10:17:03.373,4.81316222147398
2025-03-23 10:17:03.373,2.3819191815981275
2025-03-23 10:17:03.373,-2.6284344550289123
2025-03-23 10:17:03.373,-7.665932015206809
2025-03-23 10:17:03.383,-8.36047534472715
2025-03-23 10:17:03.383,-2.4107085706768756
2025-03-23 10:17:03.383,6.610675538038622
2025-03-23 10:17:03.383,10.98115478782266
2025-03-23 10:17:03.383,6.190121685564147
2025-03-23 10:17:03.393,-3.6547014390224275
2025-03-23 10:17:03.393,-9.379538470476922
2025-03-23 10:17:03.393,-6.215754910440579
2025-03-23 10:17:03.393,1.4150470335702146
2025-03-23 10:17:03.402,5.391647256938643
2025-03-23 10:17:03.402,3.0642840137531495
2025-03-23 10:17:03.403,-0.8472288756449418
2025-03-23 10:17:03.403,-1.25206937337143
2025-03-23 10:17:03.403,1.0196794479370221
2025-03-23 10:17:03.412,1.474841463657469
2025-03-23 10:17:03.413,-1.3502734666674108
2025-03-23 10:17:03.413,-4.058567220299119
2025-03-23 10:17:03.413,-2.964206615416363
2025-03-23 10:17:03.413,1.5188593196061206
2025-03-23 10:17:03.422,5.396389773284539
2025-03-23 10:17:03.422,4.938065135044209
2025-03-23 10:17:03.423,0.06851093646352088
2025-03-23 10:17:03.423,-5.187417218114357
2025-03-23 10:17:03.423,-5.98685931976531
2025-03-23 10:17:03.432,-1.4846542709874038
2025-03-23 10:17:03.432,3.8574427808167653
2025-03-23 10:17:03.433,4.8883680081330665
2025-03-23 10:17:03.433,1.44417993193175
2025-03-23 10:17:03.433,-1.9986510375548294
2025-03-23 10:17:03.442,-2.2016042932257833
2025-03-23 10:17:03.442,-0.5944287817077434
2025-03-23 10:17:03.443,-0.02757826908144327
2025-03-23 10:17:03.443,-0.3541502594418392
2025-03-23 10:17:03.443,0.49797056593326117
2025-03-23 10:17:03.452,2.1938472956915063
2025-03-23 10:17:03.452,1.7163715507320454
2025-03-23 10:17:03.453,-1.8679633010360495
2025-03-23 10:17:03.453,-4.663033000673006
2025-03-23 10:17:03.453,-2.1536419396534328
2025-03-23 10:17:03.461,4.271017635337178
2025-03-23 10:17:03.461,7.375442593061254
2025-03-23 10:17:03.461,2.2586788163920746
2025-03-23 10:17:03.461,-6.63942839229255
2025-03-23 10:17:03.461,-9.366447844021057
2025-03-23 10:17:03.471,-2.0284365232365507
2025-03-23 10:17:03.471,7.8007806805357385
2025-03-23 10:17:03.471,9.351734529075053
2025-03-23 10:17:03.471,1.1484275009010827
2025-03-23 10:17:03.480,-7.415697860677532
2025-03-23 10:17:03.481,-7.178205204458472
2025-03-23 10:17:03.481,0.5261126982513379
2025-03-23 10:17:03.481,6.270155163916059
2025-03-23 10:17:03.481,3.9301080710218543
2025-03-23 10:17:03.490,-2.705989885520679
2025-03-23 10:17:03.491,-5.293807169721251
2025-03-23 10:17:03.491,-1.040359618344833
2025-03-23 10:17:03.491,4.549453917343198
2025-03-23 10:17:03.491,4.778048883433297
2025-03-23 10:17:03.500,-0.4636320338775694
2025-03-23 10:17:03.501,-5.185136850419055
2025-03-23 10:17:03.501,-4.469553196246148
2025-03-23 10:17:03.501,0.4798392745897384
2025-03-23 10:17:03.501,4.440032541720486
2025-03-23 10:17:03.510,3.9429776431719894
2025-03-23 10:17:03.510,0.24098223364156224
2025-03-23 10:17:03.511,-2.8003144981251755
2025-03-23 10:17:03.511,-2.8101481244123763
2025-03-23 10:17:03.511,-0.7532952429528487
2025-03-23 10:17:03.520,0.8453319538764498
2025-03-23 10:17:03.520,0.8889421451492566
2025-03-23 10:17:03.521,0.46386319320748653
2025-03-23 10:17:03.521,0.7849896989954803
2025-03-23 10:17:03.521,1.3393482195608972
2025-03-23 10:17:03.530,0.7615800083720887
2025-03-23 10:17:03.530,-1.0363823248748785
2025-03-23 10:17:03.530,-2.5957853644210447
2025-03-23 10:17:03.531,-2.6000420641385515
2025-03-23 10:17:03.531,-0.973594702974667
2025-03-23 10:17:03.540,1.5736638648858772
2025-03-23 10:17:03.540,4.026748279025069
2025-03-23 10:17:03.541,4.805363926251725
2025-03-23 10:17:03.541,2.202659869578277
2025-03-23 10:17:03.541,-3.5461747304119298
2025-03-23 10:17:03.549,-8.643222246653718
2025-03-23 10:17:03.549,-7.780254414742765
2025-03-23 10:17:03.549,0.46248777903071225
2025-03-23 10:17:03.549,10.300915138935052
2025-03-23 10:17:03.558,12.678517539475246
2025-03-23 10:17:03.558,4.108758209966558
2025-03-23 10:17:03.559,-8.67928404577284
2025-03-23 10:17:03.559,-14.310136914433127
2025-03-23 10:17:03.559,-7.716029618664312
2025-03-23 10:17:03.568,4.816653379092991
2025-03-23 10:17:03.569,11.954923147856114
2025-03-23 10:17:03.569,8.350033232641133
2025-03-23 10:17:03.569,-1.054134499793253
2025-03-23 10:17:03.569,-7.1612794723937245
2025-03-23 10:17:03.578,-5.889814085355371
2025-03-23 10:17:03.579,-0.7870587501063374
2025-03-23 10:17:03.579,2.3286080606262365
2025-03-23 10:17:03.579,1.6949515049889419
2025-03-23 10:17:03.579,0.19243777824416547
2025-03-23 10:17:03.588,0.7761521100622024
2025-03-23 10:17:03.588,2.671493002531717
2025-03-23 10:17:03.589,2.449176920037808
2025-03-23 10:17:03.589,-1.5117874399805522
2025-03-23 10:17:03.589,-6.1360130356132805
2025-03-23 10:17:03.598,-6.038782387474988
2025-03-23 10:17:03.598,0.37428283120049205
2025-03-23 10:17:03.599,7.776091876592867
2025-03-23 10:17:03.599,8.665394398451228
2025-03-23 10:17:03.599,1.651264893621442
2025-03-23 10:17:03.608,-6.653473851149732
2025-03-23 10:17:03.609,-8.76226837778191
2025-03-23 10:17:03.609,-3.750722930539623
2025-03-23 10:17:03.609,3.227806259303504
2025-03-23 10:17:03.609,6.775571766111918
2025-03-23 10:17:03.618,5.022028245924021
2025-03-23 10:17:03.619,-0.3089964114249454
2025-03-23 10:17:03.619,-4.943878310333082
2025-03-23 10:17:03.619,-4.516750281295834
2025-03-23 10:17:03.619,0.8604332920698163
2025-03-23 10:17:03.628,5.03399389718093
2025-03-23 10:17:03.628,2.245589410492278
2025-03-23 10:17:03.629,-4.689840067827199
2025-03-23 10:17:03.629,-6.550902919957083
2025-03-23 10:17:03.629,0.3860806875063858
2025-03-23 10:17:03.637,8.388810862970708
2025-03-23 10:17:03.637,7.49082925700555
2025-03-23 10:17:03.637,-1.7658339687738747
2025-03-23 10:17:03.637,-8.957404053820216
2025-03-23 10:17:03.637,-6.537948648205056
2025-03-23 10:17:03.647,1.877903075433538
2025-03-23 10:17:03.647,6.85015360235548
2025-03-23 10:17:03.647,3.9573251111486303
2025-03-23 10:17:03.647,-2.3726484922986204
2025-03-23 10:17:03.648,-4.707141753089146
2025-03-23 10:17:03.657,-0.8530620177127807
2025-03-23 10:17:03.657,4.062418201167568
2025-03-23 10:17:03.657,3.777389413045067
2025-03-23 10:17:03.657,-1.4357361403980053
2025-03-23 10:17:03.666,-5.031583756912912
2025-03-23 10:17:03.667,-2.724071397071009
2025-03-23 10:17:03.667,1.8219603600295868
2025-03-23 10:17:03.667,2.4266520984140976
2025-03-23 10:17:03.667,-0.46098145449114686
2025-03-23 10:17:03.676,-0.5669848254655804
2025-03-23 10:17:03.676,3.9687994064000645
2025-03-23 10:17:03.677,6.160374375788943
2025-03-23 10:17:03.677,-0.48881923398782356
2025-03-23 10:17:03.677,-10.985792433558622
2025-03-23 10:17:03.686,-12.487500584065954
2025-03-23 10:17:03.686,-0.07902435487724846
2025-03-23 10:17:03.686,14.977670483305362
2025-03-23 10:17:03.687,16.422378951478787
2025-03-23 10:17:03.687,1.5955895370609694
2025-03-23 10:17:03.694,-14.658414122592465
2025-03-23 10:17:03.695,-16.006951514864546
2025-03-23 10:17:03.695,-2.2524312109342066
2025-03-23 10:17:03.695,11.39464388428736
2025-03-23 10:17:03.704,11.679678223305832
2025-03-23 10:17:03.704,0.9577859069491662
2025-03-23 10:17:03.705,-7.520153035966853
2025-03-23 10:17:03.705,-5.549594638501586
2025-03-23 10:17:03.705,1.8914143259104677
2025-03-23 10:17:03.714,4.566886043173643
2025-03-23 10:17:03.714,-0.0779739491413638
2025-03-23 10:17:03.714,-4.79973465485035
2025-03-23 10:17:03.715,-2.7753897676228254
2025-03-23 10:17:03.715,3.5281339369054976
2025-03-23 10:17:03.723,6.033728462158967
2025-03-23 10:17:03.723,1.82226314628734
2025-03-23 10:17:03.723,-3.634089480936982
2025-03-23 10:17:03.723,-4.534698501761675
2025-03-23 10:17:03.723,-1.9134727422059516
2025-03-23 10:17:03.734,-0.0025991994342025454
2025-03-23 10:17:03.734,0.9614145957473375
2025-03-23 10:17:03.735,3.3726774204064838
2025-03-23 10:17:03.735,5.518908123309547
2025-03-23 10:17:03.735,2.4783132157616854
2025-03-23 10:17:03.743,-5.187581478074947
2025-03-23 10:17:03.743,-9.269051750828071
2025-03-23 10:17:03.743,-3.8921286100842067
2025-03-23 10:17:03.743,5.793660268577238
2025-03-23 10:17:03.752,9.153708815826729
2025-03-23 10:17:03.753,3.0108079673367616
2025-03-23 10:17:03.753,-4.935225864055307
2025-03-23 10:17:03.753,-6.053578360573162
2025-03-23 10:17:03.753,-0.789895405486649
2025-03-23 10:17:03.762,3.3506463481518205
2025-03-23 10:17:03.763,1.8958769564215205
2025-03-23 10:17:03.763,-1.7132400899131284
2025-03-23 10:17:03.763,-1.7499876126092277
2025-03-23 10:17:03.763,1.9279441315292758
2025-03-23 10:17:03.772,3.9547754434235958
2025-03-23 10:17:03.773,0.7938924754205118
2025-03-23 10:17:03.773,-4.419557073145105
2025-03-23 10:17:03.773,-5.547292398992486
2025-03-23 10:17:03.773,-0.8250714767710849
2025-03-23 10:17:03.782,4.982450107182167
2025-03-23 10:17:03.783,5.891681523474482
2025-03-23 10:17:03.783,1.2049657192152468
2025-03-23 10:17:03.783,-3.9374386558704906
2025-03-23 10:17:03.783,-4.397474106931847
2025-03-23 10:17:03.792,-0.6920452134273808
2025-03-23 10:17:03.793,2.133793547417034
2025-03-23 10:17:03.793,1.1199786055013992
2025-03-23 10:17:03.793,-1.0117768145340924
2025-03-23 10:17:03.793,-0.23292683695525437
2025-03-23 10:17:03.802,2.562261212278613
2025-03-23 10:17:03.802,2.6962367909014016
2025-03-23 10:17:03.803,-1.1620224197620854
2025-03-23 10:17:03.803,-4.494046976912029
2025-03-23 10:17:03.803,-3.0665029700689006
2025-03-23 10:17:03.812,1.2676739958820573
2025-03-23 10:17:03.812,3.48733540515518
2025-03-23 10:17:03.813,2.209035585448812
2025-03-23 10:17:03.813,0.3075632607520924
2025-03-23 10:17:03.813,-0.4164344974654958
2025-03-23 10:17:03.821,-1.3446423878505005
2025-03-23 10:17:03.821,-2.9727682520170053
2025-03-23 10:17:03.821,-2.422320990068073
2025-03-23 10:17:03.821,1.9902745673039037
2025-03-23 10:17:03.821,5.827208513539132
2025-03-23 10:17:03.831,2.790844192311491
2025-03-23 10:17:03.831,-5.407896052770589
2025-03-23 10:17:03.831,-8.295260030144425
2025-03-23 10:17:03.831,0.23501706674417205
2025-03-23 10:17:03.840,11.192336274052712
2025-03-23 10:17:03.840,9.577097233214841
2025-03-23 10:17:03.841,-5.428712518149871
2025-03-23 10:17:03.841,-16.54567258528344
2025-03-23 10:17:03.841,-8.981761299167951
2025-03-23 10:17:03.849,10.033308499639176
2025-03-23 10:17:03.849,18.830225846017203
2025-03-23 10:17:03.849,7.050405312627413
2025-03-23 10:17:03.849,-12.297412308564887
2025-03-23 10:17:03.858,-18.120688328526327
2025-03-23 10:17:03.859,-4.734682423448021
2025-03-23 10:17:03.859,12.787088441705182
2025-03-23 10:17:03.859,15.758976813541173
2025-03-23 10:17:03.859,2.0454577572270507
2025-03-23 10:17:03.867,-12.39999311011075
2025-03-23 10:17:03.867,-11.9650180812136
2025-03-23 10:17:03.867,1.1567496411690996
2025-03-23 10:17:03.867,10.712643350527019
2025-03-23 10:17:03.867,6.453278119318756
2025-03-23 10:17:03.877,-4.309502194785367
2025-03-23 10:17:03.877,-7.374440897103335
2025-03-23 10:17:03.877,-0.00031583906689236496
2025-03-23 10:17:03.877,6.633190004598743
2025-03-23 10:17:03.886,3.146909046765159
2025-03-23 10:17:03.887,-5.4334008272852685
2025-03-23 10:17:03.887,-6.922802158814555
2025-03-23 10:17:03.887,1.0077483944331571
2025-03-23 10:17:03.887,7.566144429170232
2025-03-23 10:17:03.896,3.9361246440383963
2025-03-23 10:17:03.897,-4.456333739544246
2025-03-23 10:17:03.897,-5.7798322577064365
2025-03-23 10:17:03.897,1.5496215651186653
2025-03-23 10:17:03.897,6.891437430496837
2025-03-23 10:17:03.906,2.3305093470090217
2025-03-23 10:17:03.906,-6.561880778383344
2025-03-23 10:17:03.907,-8.288092212616151
2025-03-23 10:17:03.907,-0.23168830693126258
2025-03-23 10:17:03.907,8.50497173761721
2025-03-23 10:17:03.916,8.422729817714648
2025-03-23 10:17:03.917,0.21005653133494862
2025-03-23 10:17:03.917,-7.112124011113595
2025-03-23 10:17:03.917,-6.636963997600648
2025-03-23 10:17:03.917,-0.4159863057018103
2025-03-23 10:17:03.926,3.966246480875397
2025-03-23 10:17:03.927,2.4741550880786964
2025-03-23 10:17:03.927,-1.113359584272155
2025-03-23 10:17:03.927,-0.7968295956444917
2025-03-23 10:17:03.927,3.1459785643413087
2025-03-23 10:17:03.936,4.16347985596223
2025-03-23 10:17:03.936,-1.3247599815541053
2025-03-23 10:17:03.937,-7.7807108680853245
2025-03-23 10:17:03.937,-6.7340742439215795
2025-03-23 10:17:03.937,2.042347430936323
2025-03-23 10:17:03.944,9.23835057029429
2025-03-23 10:17:03.945,6.937379438774202
2025-03-23 10:17:03.945,-1.8986991381289942
2025-03-23 10:17:03.945,-7.270133089383141
2025-03-23 10:17:03.954,-4.232383957932193
2025-03-23 10:17:03.955,1.9241675336822839
2025-03-23 10:17:03.955,3.353699625484059
2025-03-23 10:17:03.955,-0.2872725194068549
2025-03-23 10:17:03.955,-2.462798103291611
2025-03-23 10:17:03.965,0.4900522098715037
2025-03-23 10:17:03.965,4.255986985599294
2025-03-23 10:17:03.965,2.8954591196981023
2025-03-23 10:17:03.965,-2.663274257802529
2025-03-23 10:17:03.965,-5.7126549859222475
2025-03-23 10:17:03.974,-2.460888217224863
2025-03-23 10:17:03.975,3.3009522127223314
2025-03-23 10:17:03.975,4.91962294904474
2025-03-23 10:17:03.975,0.683319182665266
2025-03-23 10:17:03.975,-4.278172957741784
2025-03-23 10:17:03.984,-3.836350376171825
2025-03-23 10:17:03.985,1.9929123298459694
2025-03-23 10:17:03.985,6.591714839187171
2025-03-23 10:17:03.985,4.014420648331612
2025-03-23 10:17:03.985,-3.860280502927387
2025-03-23 10:17:03.994,-8.798005705094011
2025-03-23 10:17:03.995,-5.199383442675293
2025-03-23 10:17:03.995,3.533903221463723
2025-03-23 10:17:03.995,8.678051563083915
2025-03-23 10:17:03.995,5.674408793038755
2025-03-23 10:17:04.003,-1.4631740446499741
2025-03-23 10:17:04.003,-5.437579105915331
2025-03-23 10:17:04.003,-3.822641698221326
2025-03-23 10:17:04.003,-0.48488742638805044
2025-03-23 10:17:04.003,0.4194206119550492
2025-03-23 10:17:04.014,-0.46212406120842986
2025-03-23 10:17:04.015,0.3192729727644523
2025-03-23 10:17:04.015,3.4280360535764016
2025-03-23 10:17:04.015,5.281807249523542
2025-03-23 10:17:04.015,2.4818684368331203
2025-03-23 10:17:04.024,-3.5647727383442143
2025-03-23 10:17:04.025,-7.537834596172462
2025-03-23 10:17:04.025,-5.7255242729246305
2025-03-23 10:17:04.025,0.13240177085527405
2025-03-23 10:17:04.025,5.062807969929264
2025-03-23 10:17:04.034,6.138856463952068
2025-03-23 10:17:04.034,4.236144245946244
2025-03-23 10:17:04.035,1.0974583027349576
2025-03-23 10:17:04.035,-2.8286677428773497
2025-03-23 10:17:04.035,-6.592336037492288
2025-03-23 10:17:04.044,-7.118608299277136
2025-03-23 10:17:04.044,-2.1123764451187803
2025-03-23 10:17:04.045,5.703352288269183
2025-03-23 10:17:04.045,9.678513699413205
2025-03-23 10:17:04.045,5.831481998166831
2025-03-23 10:17:04.053,-2.555631000293601
2025-03-23 10:17:04.053,-8.087805153457452
2025-03-23 10:17:04.053,-6.681752605963301
2025-03-23 10:17:04.053,-0.8725355732028908
2025-03-23 10:17:04.062,3.935619586435238
2025-03-23 10:17:04.063,4.895285360300884
2025-03-23 10:17:04.063,2.900858730020353
2025-03-23 10:17:04.063,0.08695128815420017
2025-03-23 10:17:04.063,-2.078219703049142
2025-03-23 10:17:04.072,-2.725515654890755
2025-03-23 10:17:04.073,-1.5705005709064512
2025-03-23 10:17:04.073,0.30658664046214473
2025-03-23 10:17:04.073,0.900982800174925
2025-03-23 10:17:04.073,-0.3103977991926629
2025-03-23 10:17:04.083,-1.11063836656434
2025-03-23 10:17:04.083,0.7884581067180816
2025-03-23 10:17:04.083,4.00304545139103
2025-03-23 10:17:04.083,4.213611434954128
2025-03-23 10:17:04.083,-0.576965317033284
2025-03-23 10:17:04.093,-6.666451718743907
2025-03-23 10:17:04.093,-7.7147071964694796
2025-03-23 10:17:04.093,-1.3619770229516008
2025-03-23 10:17:04.093,7.358309687050762
2025-03-23 10:17:04.093,9.844688251667424
2025-03-23 10:17:04.094,2.557726202927437
2025-03-23 10:17:04.102,-7.872103853541117
2025-03-23 10:17:04.103,-10.24805577258092
2025-03-23 10:17:04.103,-1.2133863008159098
2025-03-23 10:17:04.103,9.635259832778765
2025-03-23 10:17:04.111,9.816636194791954
2025-03-23 10:17:04.111,-1.3859811784149574
2025-03-23 10:17:04.111,-11.515795396497856
2025-03-23 10:17:04.111,-9.200482192913109
2025-03-23 10:17:04.111,2.8103776618636154
2025-03-23 10:17:04.121,11.265546721809491
2025-03-23 10:17:04.121,7.814095532246263
2025-03-23 10:17:04.121,-2.3736146143690133
2025-03-23 10:17:04.121,-8.057882591556606
2025-03-23 10:17:04.131,-5.039259314334415
2025-03-23 10:17:04.131,0.9769758740553913
2025-03-23 10:17:04.131,3.2777224333989805
2025-03-23 10:17:04.131,1.8086540312567703
2025-03-23 10:17:04.131,0.5454069975782745
2025-03-23 10:17:04.140,0.634921737984979
2025-03-23 10:17:04.141,-0.12234571937152763
2025-03-23 10:17:04.141,-2.05136490825034
2025-03-23 10:17:04.141,-2.1163188933297725
2025-03-23 10:17:04.141,1.034392280329936
2025-03-23 10:17:04.150,3.741418718761846
2025-03-23 10:17:04.151,1.7943697925146576
2025-03-23 10:17:04.151,-3.3200413341166377
2025-03-23 10:17:04.151,-5.609328136400255
2025-03-23 10:17:04.151,-1.8823382437204992
2025-03-23 10:17:04.160,4.478371791520407
2025-03-23 10:17:04.161,7.383551099883154
2025-03-23 10:17:04.161,3.952945517786837
2025-03-23 10:17:04.161,-3.3965236456638257
2025-03-23 10:17:04.161,-8.813035093834923
2025-03-23 10:17:04.169,-7.115642195587199
2025-03-23 10:17:04.169,1.327409829738114
2025-03-23 10:17:04.169,9.277123585840192
2025-03-23 10:17:04.169,8.829598946630343
2025-03-23 10:17:04.169,0.1857401702685254
2025-03-23 10:17:04.179,-7.9063623322622405
2025-03-23 10:17:04.179,-7.790669183611018
2025-03-23 10:17:04.179,-0.9741477349047416
2025-03-23 10:17:04.179,4.948423673973114
2025-03-23 10:17:04.188,5.252753995454664
2025-03-23 10:17:04.189,1.5458461634499188
2025-03-23 10:17:04.189,-2.121943957989341
2025-03-23 10:17:04.189,-3.3713257707170188
2025-03-23 10:17:04.189,-1.9425381071157193
2025-03-23 10:17:04.199,0.9666653511073477
2025-03-23 10:17:04.199,2.9113966312742114
2025-03-23 10:17:04.199,1.8287352526595104
2025-03-23 10:17:04.199,-1.3519542232773973
2025-03-23 10:17:04.199,-3.069437951630876
2025-03-23 10:17:04.208,-1.2081204946271489
2025-03-23 10:17:04.209,2.1367321033979847
2025-03-23 10:17:04.209,3.0682849994562647
2025-03-23 10:17:04.209,0.4980844598507884
2025-03-23 10:17:04.209,-2.6979664227521987
2025-03-23 10:17:04.218,-3.010849519172634
2025-03-23 10:17:04.219,-0.04559512325348131
2025-03-23 10:17:04.219,3.1323915565087748
2025-03-23 10:17:04.219,3.0763394284718744
2025-03-23 10:17:04.219,-0.39662015070593737
2025-03-23 10:17:04.228,-3.4825208950119153
2025-03-23 10:17:04.228,-2.2746614601698574
2025-03-23 10:17:04.229,1.979597592667547
2025-03-23 10:17:04.229,3.3175933025038
2025-03-23 10:17:04.229,-1.1158195961419968
2025-03-23 10:17:04.238,-5.579811302297928
2025-03-23 10:17:04.238,-2.2990212012101536
2025-03-23 10:17:04.239,6.744936416890326
2025-03-23 10:17:04.239,9.997252418004589
2025-03-23 10:17:04.239,0.9979091415365879
2025-03-23 10:17:04.247,-11.399708162049368
2025-03-23 10:17:04.247,-12.460372104580776
2025-03-23 10:17:04.247,0.10619795852249936
2025-03-23 10:17:04.247,12.46307204939626
2025-03-23 10:17:04.256,10.934694537256432
2025-03-23 10:17:04.256,-1.7857708741986273
2025-03-23 10:17:04.257,-10.436431784425112
2025-03-23 10:17:04.257,-5.877938143849847
2025-03-23 10:17:04.257,4.614670752536058
2025-03-23 10:17:04.266,7.550346854414085
2025-03-23 10:17:04.266,0.1405898744608477
2025-03-23 10:17:04.267,-7.357711810204183
2025-03-23 10:17:04.267,-5.500799730653801
2025-03-23 10:17:04.267,3.001941650707004
2025-03-23 10:17:04.275,8.02978037859303
2025-03-23 10:17:04.275,4.748336444669071
2025-03-23 10:17:04.275,-2.2173191517994852
2025-03-23 10:17:04.275,-5.972809427587489
2025-03-23 10:17:04.275,-4.660661282959703
2025-03-23 10:17:04.286,-0.9804522607955404
2025-03-23 10:17:04.287,2.2484333432116044
2025-03-23 10:17:04.287,3.913800759123888
2025-03-23 10:17:04.287,3.637839157528411
2025-03-23 10:17:04.287,1.3987032108609254
2025-03-23 10:17:04.295,-1.7256872032657238
2025-03-23 10:17:04.295,-3.737378417624486
