timestamp,bandpass_and_notch
2025-03-23 19:44:14.028,-0.19694001252342508
2025-03-23 19:44:14.029,1.4369554361022998
2025-03-23 19:44:14.029,0.6407281946913459
2025-03-23 19:44:14.029,-7.736396090145519
2025-03-23 19:44:14.038,-20.093745023789893
2025-03-23 19:44:14.038,-18.23703967264437
2025-03-23 19:44:14.038,9.229770427030125
2025-03-23 19:44:14.038,41.58142771009863
2025-03-23 19:44:14.039,39.8850402699703
2025-03-23 19:44:14.046,-5.742285850746096
2025-03-23 19:44:14.047,-54.91679514200047
2025-03-23 19:44:14.047,-56.397327322573425
2025-03-23 19:44:14.047,-5.509678119877064
2025-03-23 19:44:14.054,49.21672173544452
2025-03-23 19:44:14.055,57.94995973718185
2025-03-23 19:44:14.055,19.012498218593116
2025-03-23 19:44:14.055,-26.65558348261935
2025-03-23 19:44:14.055,-41.46213301491449
2025-03-23 19:44:14.064,-23.269095087806562
2025-03-23 19:44:14.064,3.8107738652203986
2025-03-23 19:44:14.065,18.56238091690179
2025-03-23 19:44:14.065,17.772331945519976
2025-03-23 19:44:14.074,9.446870913090246
2025-03-23 19:44:14.074,0.7104441650059009
2025-03-23 19:44:14.074,-5.808374067036665
2025-03-23 19:44:14.075,-9.315106503878297
2025-03-23 19:44:14.075,-9.35725792242085
2025-03-23 19:44:14.083,-6.263771384974651
2025-03-23 19:44:14.083,-0.8014650861325989
2025-03-23 19:44:14.083,6.031447072755299
2025-03-23 19:44:14.083,11.487921267850457
2025-03-23 19:44:14.083,10.96583017907842
2025-03-23 19:44:14.092,2.3842418478549785
2025-03-23 19:44:14.093,-9.345656356419596
2025-03-23 19:44:14.093,-14.940176936343647
2025-03-23 19:44:14.093,-9.346059271015331
2025-03-23 19:44:14.102,2.981867186665003
2025-03-23 19:44:14.102,12.017527282538778
2025-03-23 19:44:14.102,11.12702728772939
2025-03-23 19:44:14.102,2.384845906031293
2025-03-23 19:44:14.103,-6.119523871347537
2025-03-23 19:44:14.112,-7.9467252071999
2025-03-23 19:44:14.112,-3.6154391555141685
2025-03-23 19:44:14.113,1.4087869714411398
2025-03-23 19:44:14.113,3.2127456685410225
2025-03-23 19:44:14.113,2.5567205256618193
2025-03-23 19:44:14.122,1.6425432751136955
2025-03-23 19:44:14.122,0.43771021155716155
2025-03-23 19:44:14.122,-1.7962463016698214
2025-03-23 19:44:14.123,-3.3256921712616956
2025-03-23 19:44:14.123,-1.666549277821018
2025-03-23 19:44:14.132,1.9587502048163448
2025-03-23 19:44:14.132,3.287181626633502
2025-03-23 19:44:14.132,0.8348860680175635
2025-03-23 19:44:14.133,-1.8924347496309117
2025-03-23 19:44:14.133,-1.42935945484978
2025-03-23 19:44:14.142,0.8197017497634435
2025-03-23 19:44:14.142,0.9586340033687477
2025-03-23 19:44:14.143,-1.5329648205673438
2025-03-23 19:44:14.143,-2.8528281500157138
2025-03-23 19:44:14.143,-0.09823264408104056
2025-03-23 19:44:14.150,4.289007493883354
2025-03-23 19:44:14.151,4.798608033871976
2025-03-23 19:44:14.151,-0.3739379384505425
2025-03-23 19:44:14.151,-6.159190795211666
2025-03-23 19:44:14.151,-5.792918020722387
2025-03-23 19:44:14.161,0.9598758334883929
2025-03-23 19:44:14.161,6.8160065773718
2025-03-23 19:44:14.161,5.350590427105617
2025-03-23 19:44:14.161,-1.4076486151234697
2025-03-23 19:44:14.161,-5.805946256155143
2025-03-23 19:44:14.170,-3.84646765949082
2025-03-23 19:44:14.171,1.053268145633267
2025-03-23 19:44:14.171,3.4261527469439375
2025-03-23 19:44:14.171,2.0473003012370965
2025-03-23 19:44:14.171,-0.23224048105113737
2025-03-23 19:44:14.180,-0.8899783982605091
2025-03-23 19:44:14.181,-0.153969028904832
2025-03-23 19:44:14.181,0.2905619412291746
2025-03-23 19:44:14.181,-0.4359309076370729
2025-03-23 19:44:14.190,-1.6325422654094734
2025-03-23 19:44:14.190,-1.8730549720147533
2025-03-23 19:44:14.191,-0.3578366388934128
2025-03-23 19:44:14.191,2.293486595630096
2025-03-23 19:44:14.191,4.190813671923268
2025-03-23 19:44:14.200,3.2392735228736194
2025-03-23 19:44:14.200,-1.035132321343039
2025-03-23 19:44:14.200,-5.990104369156053
2025-03-23 19:44:14.201,-6.955411237446921
2025-03-23 19:44:14.201,-1.5684216244896512
2025-03-23 19:44:14.210,6.470660385723214
2025-03-23 19:44:14.210,9.586801030075303
2025-03-23 19:44:14.210,3.9326917419319396
2025-03-23 19:44:14.211,-5.639014289324414
2025-03-23 19:44:14.211,-9.871982621676437
2025-03-23 19:44:14.220,-4.803787307653801
2025-03-23 19:44:14.220,4.0418217145428335
2025-03-23 19:44:14.220,7.93675461276277
2025-03-23 19:44:14.221,4.299992409236823
2025-03-23 19:44:14.221,-1.7854460444631026
2025-03-23 19:44:14.230,-4.647431543534812
2025-03-23 19:44:14.230,-3.7895002363984434
2025-03-23 19:44:14.230,-1.6966161650643239
2025-03-23 19:44:14.231,0.9095014378945032
2025-03-23 19:44:14.231,4.334481252461838
2025-03-23 19:44:14.238,6.08752556676733
2025-03-23 19:44:14.238,2.4354064301268328
2025-03-23 19:44:14.239,-5.188277365774149
2025-03-23 19:44:14.239,-9.241753693002547
2025-03-23 19:44:14.248,-4.490067761506304
2025-03-23 19:44:14.248,4.705112283679891
2025-03-23 19:44:14.249,8.8639368914506
2025-03-23 19:44:14.249,4.5001930002886965
2025-03-23 19:44:14.249,-2.5135906166461064
2025-03-23 19:44:14.258,-5.005257437888635
2025-03-23 19:44:14.258,-2.6004340436973794
2025-03-23 19:44:14.259,-0.03510342018093668
2025-03-23 19:44:14.259,0.08022622493961022
2025-03-23 19:44:14.259,-0.1837784717110351
2025-03-23 19:44:14.268,1.6408137814659303
2025-03-23 19:44:14.268,4.012341072934617
2025-03-23 19:44:14.268,2.808688728521412
2025-03-23 19:44:14.269,-2.8152868690207993
2025-03-23 19:44:14.269,-7.411634316641554
2025-03-23 19:44:14.278,-4.460860884319245
2025-03-23 19:44:14.278,4.721943560356693
2025-03-23 19:44:14.278,10.223494565165915
2025-03-23 19:44:14.279,4.65924049904717
2025-03-23 19:44:14.279,-6.65709559277451
2025-03-23 19:44:14.288,-10.9512112655751
2025-03-23 19:44:14.288,-3.53692467083796
2025-03-23 19:44:14.288,6.445637514369284
2025-03-23 19:44:14.289,7.957879019759643
2025-03-23 19:44:14.289,1.5854102923164315
2025-03-23 19:44:14.298,-3.1695407303560734
2025-03-23 19:44:14.298,-1.6534749746975697
2025-03-23 19:44:14.298,0.871739912740625
2025-03-23 19:44:14.298,-1.303424876179335
2025-03-23 19:44:14.299,-5.261926780437931
2025-03-23 19:44:14.308,-3.735163120351325
2025-03-23 19:44:14.308,3.947560119317899
2025-03-23 19:44:14.308,9.67544994664544
2025-03-23 19:44:14.308,6.197080580117912
2025-03-23 19:44:14.309,-3.7136729792465037
2025-03-23 19:44:14.316,-9.981064971580967
2025-03-23 19:44:14.317,-6.569925751435115
2025-03-23 19:44:14.317,2.0756059353324052
2025-03-23 19:44:14.317,6.803635492960043
2025-03-23 19:44:14.317,4.218706814486841
2025-03-23 19:44:14.326,-0.7760211550670686
2025-03-23 19:44:14.327,-2.3362100559983427
2025-03-23 19:44:14.327,-0.628073138903336
2025-03-23 19:44:14.327,0.14868730077845072
2025-03-23 19:44:14.336,-1.3892712486367116
2025-03-23 19:44:14.336,-2.1228154737215057
2025-03-23 19:44:14.337,0.30441806020116874
2025-03-23 19:44:14.337,3.498379988423556
2025-03-23 19:44:14.337,3.3568950786383502
2025-03-23 19:44:14.346,-0.45615266948991295
2025-03-23 19:44:14.347,-4.043456936387093
2025-03-23 19:44:14.347,-3.846670614602541
2025-03-23 19:44:14.347,-0.27325204297072353
2025-03-23 19:44:14.347,3.264444383124039
2025-03-23 19:44:14.356,3.9600459487477013
2025-03-23 19:44:14.356,1.8416003583746714
2025-03-23 19:44:14.356,-1.1314484788870685
2025-03-23 19:44:14.357,-3.2316616210412956
2025-03-23 19:44:14.357,-3.6146882506137197
2025-03-23 19:44:14.366,-1.7320438677178012
2025-03-23 19:44:14.366,2.0115981709632114
2025-03-23 19:44:14.367,4.884266899246819
2025-03-23 19:44:14.367,3.4926059219894414
2025-03-23 19:44:14.367,-1.6885600708874722
2025-03-23 19:44:14.376,-5.312980303750619
2025-03-23 19:44:14.376,-2.995702990937247
2025-03-23 19:44:14.376,2.8097767549472548
2025-03-23 19:44:14.377,5.292071734322043
2025-03-23 19:44:14.377,1.540851056859154
2025-03-23 19:44:14.386,-4.058103656219853
2025-03-23 19:44:14.386,-5.3396297759546805
2025-03-23 19:44:14.387,-1.3049416048505673
2025-03-23 19:44:14.387,3.6496183149285333
2025-03-23 19:44:14.387,5.052376610221807
2025-03-23 19:44:14.396,2.381823091122638
2025-03-23 19:44:14.396,-1.510639775125148
2025-03-23 19:44:14.396,-3.481285504992036
2025-03-23 19:44:14.396,-2.601759772493562
2025-03-23 19:44:14.397,-0.5251665112858965
2025-03-23 19:44:14.406,0.5247948110325094
2025-03-23 19:44:14.406,0.35499028927195686
2025-03-23 19:44:14.406,0.7529897200297229
2025-03-23 19:44:14.406,2.3852728026935712
2025-03-23 19:44:14.407,3.0659209633409317
2025-03-23 19:44:14.415,0.6855040014318144
2025-03-23 19:44:14.415,-3.0679698469742105
2025-03-23 19:44:14.415,-4.246087323009652
2025-03-23 19:44:14.415,-1.873713969132091
2025-03-23 19:44:14.415,0.7872262437705507
2025-03-23 19:44:14.425,1.034080923587538
2025-03-23 19:44:14.425,0.5082430633664524
2025-03-23 19:44:14.425,2.205702792442538
2025-03-23 19:44:14.425,4.968127849519027
2025-03-23 19:44:14.425,3.888018991467795
2025-03-23 19:44:14.434,-2.8186496803129826
2025-03-23 19:44:14.435,-9.52085718988711
2025-03-23 19:44:14.435,-8.483598176456175
2025-03-23 19:44:14.435,0.6451749575514689
2025-03-23 19:44:14.444,9.356350277072092
2025-03-23 19:44:14.444,9.527445372808334
2025-03-23 19:44:14.444,2.098499529990453
2025-03-23 19:44:14.445,-5.1742850564837575
2025-03-23 19:44:14.445,-6.71970120828732
2025-03-23 19:44:14.454,-3.4123061968805577
2025-03-23 19:44:14.454,0.8291396736993946
2025-03-23 19:44:14.454,3.31557477974464
2025-03-23 19:44:14.455,3.1772704368019085
2025-03-23 19:44:14.455,0.7188545627977554
2025-03-23 19:44:14.464,-2.1414723840373724
2025-03-23 19:44:14.464,-2.5338949822011347
2025-03-23 19:44:14.465,0.27249937983432243
2025-03-23 19:44:14.465,3.155687683392404
2025-03-23 19:44:14.465,2.3737833276766978
2025-03-23 19:44:14.474,-1.6157059852625943
2025-03-23 19:44:14.474,-4.363794299848195
2025-03-23 19:44:14.474,-2.8017597347947127
2025-03-23 19:44:14.475,1.3356920363417732
2025-03-23 19:44:14.475,4.14415544290073
2025-03-23 19:44:14.484,3.7812808469869004
2025-03-23 19:44:14.484,0.979078997629891
2025-03-23 19:44:14.484,-2.6731180669082306
2025-03-23 19:44:14.485,-5.084276595737028
2025-03-23 19:44:14.485,-3.9356400711326947
2025-03-23 19:44:14.494,0.8529915896639889
2025-03-23 19:44:14.494,5.54072545252468
2025-03-23 19:44:14.494,5.745680816230756
2025-03-23 19:44:14.494,1.2653180643612378
2025-03-23 19:44:14.495,-3.827466179666444
2025-03-23 19:44:14.504,-5.683972818556183
2025-03-23 19:44:14.504,-3.7517098379114633
2025-03-23 19:44:14.504,0.20154862988181071
2025-03-23 19:44:14.505,3.9685662120737013
2025-03-23 19:44:14.505,5.456045975315756
2025-03-23 19:44:14.513,3.4018038697937953
2025-03-23 19:44:14.513,-1.1777462958794152
2025-03-23 19:44:14.513,-5.064896605072629
2025-03-23 19:44:14.513,-5.276391835670974
2025-03-23 19:44:14.513,-1.4909824634286357
2025-03-23 19:44:14.523,3.553366818942435
2025-03-23 19:44:14.523,5.653013383729672
2025-03-23 19:44:14.523,2.3224743820025755
2025-03-23 19:44:14.523,-3.920253390165065
2025-03-23 19:44:14.532,-6.3358287079750175
2025-03-23 19:44:14.533,-0.8386200637138181
2025-03-23 19:44:14.533,7.582005942024692
2025-03-23 19:44:14.533,8.574074852128781
2025-03-23 19:44:14.533,-1.2659169581623053
2025-03-23 19:44:14.541,-12.211522630746018
2025-03-23 19:44:14.541,-11.27695970316379
2025-03-23 19:44:14.541,2.06491236272283
2025-03-23 19:44:14.541,13.977855566697857
2025-03-23 19:44:14.541,11.854942472383218
2025-03-23 19:44:14.550,-1.2454145893912005
2025-03-23 19:44:14.551,-11.041585870796823
2025-03-23 19:44:14.551,-9.060568734269387
2025-03-23 19:44:14.551,-0.5811345027756928
2025-03-23 19:44:14.560,4.648654247310935
2025-03-23 19:44:14.560,4.301624189082686
2025-03-23 19:44:14.561,2.743484204910092
2025-03-23 19:44:14.561,2.1537896495041178
2025-03-23 19:44:14.561,0.06315574731434098
2025-03-23 19:44:14.570,-4.322012103459548
2025-03-23 19:44:14.571,-6.530981646959347
2025-03-23 19:44:14.571,-2.551088044179369
2025-03-23 19:44:14.571,4.473369162352418
2025-03-23 19:44:14.571,7.062487144117121
2025-03-23 19:44:14.580,2.6659901962224217
2025-03-23 19:44:14.580,-3.1696332638726283
2025-03-23 19:44:14.581,-4.062960040042489
2025-03-23 19:44:14.581,-0.6175266630672909
2025-03-23 19:44:14.581,1.433041250754746
2025-03-23 19:44:14.590,-0.49565220242884844
2025-03-23 19:44:14.590,-2.6712088633546966
2025-03-23 19:44:14.591,-0.771581961708778
2025-03-23 19:44:14.591,3.850633670040362
2025-03-23 19:44:14.591,5.708338475567564
2025-03-23 19:44:14.600,1.9903222763059234
2025-03-23 19:44:14.600,-4.162605585899813
2025-03-23 19:44:14.601,-7.155557391976399
2025-03-23 19:44:14.601,-4.340860742158844
2025-03-23 19:44:14.601,2.005637114396351
2025-03-23 19:44:14.610,6.744434060919451
2025-03-23 19:44:14.610,5.908647358522926
2025-03-23 19:44:14.611,0.1684012167399257
2025-03-23 19:44:14.611,-5.3113368071406555
2025-03-23 19:44:14.611,-5.511517147872379
2025-03-23 19:44:14.620,-0.549615090445911
2025-03-23 19:44:14.620,4.382679998419111
2025-03-23 19:44:14.620,4.218085038138831
2025-03-23 19:44:14.621,-0.8636654806403947
2025-03-23 19:44:14.621,-5.324765088322045
2025-03-23 19:44:14.630,-3.701895367190162
2025-03-23 19:44:14.630,3.1164046287527145
2025-03-23 19:44:14.630,7.734020429502876
2025-03-23 19:44:14.631,4.0175741825982145
2025-03-23 19:44:14.631,-5.102713859547397
2025-03-23 19:44:14.638,-9.763417013135085
2025-03-23 19:44:14.639,-4.157819958367627
2025-03-23 19:44:14.639,6.2436121456924525
2025-03-23 19:44:14.639,10.341344663859418
2025-03-23 19:44:14.639,3.733127536476007
2025-03-23 19:44:14.649,-6.534099120577894
2025-03-23 19:44:14.649,-9.9137716095809
2025-03-23 19:44:14.649,-3.4768278741558314
2025-03-23 19:44:14.649,5.891147927248042
2025-03-23 19:44:14.658,9.247821687748658
2025-03-23 19:44:14.658,4.1126750212825804
2025-03-23 19:44:14.659,-4.2304046165368865
2025-03-23 19:44:14.659,-8.299689777684732
2025-03-23 19:44:14.659,-4.991242093321327
2025-03-23 19:44:14.668,2.165567871637065
2025-03-23 19:44:14.669,6.544331042079012
2025-03-23 19:44:14.669,4.64832624392216
2025-03-23 19:44:14.669,-0.8092964532908173
2025-03-23 19:44:14.669,-4.211139433061712
2025-03-23 19:44:14.678,-3.022675143228775
2025-03-23 19:44:14.679,0.42287101882907735
2025-03-23 19:44:14.679,2.6068198573476598
2025-03-23 19:44:14.679,2.3247499815460504
2025-03-23 19:44:14.679,0.17831243929387802
2025-03-23 19:44:14.688,-2.887996541966832
2025-03-23 19:44:14.688,-4.778589048898593
2025-03-23 19:44:14.689,-2.253303846110053
2025-03-23 19:44:14.689,4.806104792028416
2025-03-23 19:44:14.689,9.91680270260531
2025-03-23 19:44:14.698,5.373126528312748
2025-03-23 19:44:14.698,-7.034553710908603
2025-03-23 19:44:14.698,-14.678227029006667
2025-03-23 19:44:14.698,-7.660964784519334
2025-03-23 19:44:14.699,8.103828725723973
2025-03-23 19:44:14.706,16.16163066524217
2025-03-23 19:44:14.706,8.114260209414086
2025-03-23 19:44:14.707,-7.138525734479122
2025-03-23 19:44:14.707,-14.128865834670204
2025-03-23 19:44:14.716,-7.465391102318357
2025-03-23 19:44:14.717,4.501291380726997
2025-03-23 19:44:14.717,10.285575716681057
2025-03-23 19:44:14.717,6.426617811057421
2025-03-23 19:44:14.717,-1.4425701610975632
2025-03-23 19:44:14.726,-5.8906644061736975
2025-03-23 19:44:14.726,-4.643612320083656
2025-03-23 19:44:14.727,-0.9766962919136943
2025-03-23 19:44:14.727,1.3148425377524373
2025-03-23 19:44:14.727,1.8645662443715145
2025-03-23 19:44:14.736,2.259891426506163
2025-03-23 19:44:14.736,2.415446427236234
2025-03-23 19:44:14.737,0.8186620982394173
2025-03-23 19:44:14.737,-2.0165364664411025
2025-03-23 19:44:14.737,-3.2316260396137206
2025-03-23 19:44:14.746,-1.6640784079678634
2025-03-23 19:44:14.746,0.2669872026894769
2025-03-23 19:44:14.747,0.32312098658439753
2025-03-23 19:44:14.747,-0.03478131581275609
2025-03-23 19:44:14.747,1.6153490671269162
2025-03-23 19:44:14.756,3.821529448887353
2025-03-23 19:44:14.756,2.6997531384201285
2025-03-23 19:44:14.756,-1.6925151791938613
2025-03-23 19:44:14.757,-4.387958739815292
2025-03-23 19:44:14.757,-2.7187481702706817
2025-03-23 19:44:14.766,-0.5695159485526762
2025-03-23 19:44:14.766,-1.7387505236261547
2025-03-23 19:44:14.767,-2.451459656858907
2025-03-23 19:44:14.767,3.3016449416165874
2025-03-23 19:44:14.767,11.877441179354113
2025-03-23 19:44:14.774,11.053997578765795
2025-03-23 19:44:14.775,-3.6296027365145704
2025-03-23 19:44:14.775,-19.162845191329808
2025-03-23 19:44:14.775,-17.911448793852912
2025-03-23 19:44:14.784,1.104503716578982
2025-03-23 19:44:14.784,19.31762612796597
2025-03-23 19:44:14.784,18.681949230559958
2025-03-23 19:44:14.785,1.2598817868317
2025-03-23 19:44:14.785,-14.084973731625501
2025-03-23 19:44:14.793,-13.096352333455627
2025-03-23 19:44:14.793,-0.5865762774066561
2025-03-23 19:44:14.793,7.6937276422754675
2025-03-23 19:44:14.793,4.441620702419979
2025-03-23 19:44:14.793,-2.404599738506146
2025-03-23 19:44:14.803,-2.3912172202198856
2025-03-23 19:44:14.803,3.2708633909080675
2025-03-23 19:44:14.803,4.75868072125515
2025-03-23 19:44:14.803,-1.5714280643086653
2025-03-23 19:44:14.812,-7.711135637000953
2025-03-23 19:44:14.813,-5.0005406024456125
2025-03-23 19:44:14.813,4.003968916236047
2025-03-23 19:44:14.813,8.689092136979012
2025-03-23 19:44:14.813,3.7808198843915255
2025-03-23 19:44:14.822,-4.575104827461146
2025-03-23 19:44:14.822,-6.993278295985713
2025-03-23 19:44:14.823,-2.0155831909223116
2025-03-23 19:44:14.823,3.495773775553033
2025-03-23 19:44:14.823,3.7738511038992746
2025-03-23 19:44:14.832,0.4405191364681223
2025-03-23 19:44:14.832,-1.5132207207352768
2025-03-23 19:44:14.833,-0.842237947453317
2025-03-23 19:44:14.833,-0.15804495225674853
2025-03-23 19:44:14.833,-0.5435006150973123
2025-03-23 19:44:14.842,-0.06334382053607295
2025-03-23 19:44:14.842,1.8523101771101498
2025-03-23 19:44:14.843,2.2158832194405846
2025-03-23 19:44:14.843,-1.0430033275375301
2025-03-23 19:44:14.843,-4.695403248624353
2025-03-23 19:44:14.852,-3.5066234405053094
2025-03-23 19:44:14.852,2.4529915488596905
2025-03-23 19:44:14.852,6.751220209497121
2025-03-23 19:44:14.853,4.1384701277436164
2025-03-23 19:44:14.853,-2.728604892646208
2025-03-23 19:44:14.862,-6.302332298040983
2025-03-23 19:44:14.862,-3.2731594711149707
2025-03-23 19:44:14.863,1.8719787797917933
2025-03-23 19:44:14.863,3.168055128523047
2025-03-23 19:44:14.863,0.6506341527804623
2025-03-23 19:44:14.872,-0.7932383928041966
2025-03-23 19:44:14.872,1.0525792726218341
2025-03-23 19:44:14.872,2.5819558472553834
2025-03-23 19:44:14.873,-0.04739527144697453
2025-03-23 19:44:14.873,-4.506433961591317
2025-03-23 19:44:14.882,-4.529227043594589
2025-03-23 19:44:14.882,1.3750317454622434
2025-03-23 19:44:14.883,6.561082912629552
2025-03-23 19:44:14.883,4.048626439152623
2025-03-23 19:44:14.883,-3.8930624087316383
2025-03-23 19:44:14.892,-7.6041286452492125
2025-03-23 19:44:14.892,-2.007732942889035
2025-03-23 19:44:14.893,6.664918008379341
2025-03-23 19:44:14.893,8.275547814745485
2025-03-23 19:44:14.893,0.7611875457395366
2025-03-23 19:44:14.902,-7.909334694781064
2025-03-23 19:44:14.902,-8.90640524140299
2025-03-23 19:44:14.902,-1.5002746611164786
2025-03-23 19:44:14.903,7.011363808935824
2025-03-23 19:44:14.903,8.824290974759865
2025-03-23 19:44:14.910,2.841883229633524
2025-03-23 19:44:14.911,-4.799917225560026
2025-03-23 19:44:14.911,-7.039660544380878
2025-03-23 19:44:14.911,-2.768181551707884
2025-03-23 19:44:14.911,2.7034714042604713
2025-03-23 19:44:14.920,3.890067692296706
2025-03-23 19:44:14.921,0.9467116236053399
2025-03-23 19:44:14.921,-1.547433226950155
2025-03-23 19:44:14.921,-0.8510240963864315
2025-03-23 19:44:14.921,0.9138236992627268
2025-03-23 19:44:14.931,0.6696819184535381
2025-03-23 19:44:14.931,-0.872825618903114
2025-03-23 19:44:14.931,-0.7705170977562452
2025-03-23 19:44:14.931,0.9527376972257979
2025-03-23 19:44:14.931,1.0370026454783718
2025-03-23 19:44:14.940,-1.4936431491323474
2025-03-23 19:44:14.941,-2.904812434316304
2025-03-23 19:44:14.941,-0.11167749472007688
2025-03-23 19:44:14.941,3.9417467842629286
2025-03-23 19:44:14.950,3.660615677655689
2025-03-23 19:44:14.951,-1.2538223579534136
2025-03-23 19:44:14.951,-4.818579941597624
2025-03-23 19:44:14.951,-2.560162772182377
2025-03-23 19:44:14.951,2.580868500142067
2025-03-23 19:44:14.960,4.172551367692058
2025-03-23 19:44:14.961,0.5433633645658063
2025-03-23 19:44:14.961,-3.4664009178568267
2025-03-23 19:44:14.961,-2.9835165522230787
2025-03-23 19:44:14.961,0.9807423586056074
2025-03-23 19:44:14.970,3.4251863747570197
2025-03-23 19:44:14.970,1.8217601674422552
2025-03-23 19:44:14.970,-1.3683406401422427
2025-03-23 19:44:14.971,-2.5174696133933048
2025-03-23 19:44:14.971,-1.0992527089873128
2025-03-23 19:44:14.980,0.8350809076425417
2025-03-23 19:44:14.980,1.836223745462111
2025-03-23 19:44:14.981,1.8518288577864639
2025-03-23 19:44:14.981,0.5925071895550728
2025-03-23 19:44:14.981,-2.359812209629918
2025-03-23 19:44:14.990,-5.104216714601828
2025-03-23 19:44:14.990,-3.5721636727612216
2025-03-23 19:44:14.991,3.36039028255104
2025-03-23 19:44:14.991,9.941524122065994
2025-03-23 19:44:14.991,8.105161475163275
2025-03-23 19:44:14.999,-2.7870674430615012
2025-03-23 19:44:14.999,-13.106937131451167
2025-03-23 19:44:14.999,-12.301570913188232
2025-03-23 19:44:14.999,-0.4456041314807765
2025-03-23 19:44:15.008,11.606384415314489
2025-03-23 19:44:15.008,13.554689662984286
2025-03-23 19:44:15.008,5.182332677867543
2025-03-23 19:44:15.009,-5.559449504915595
2025-03-23 19:44:15.009,-11.11747497686955
2025-03-23 19:44:15.018,-9.19377739031738
2025-03-23 19:44:15.018,-1.733074314075122
2025-03-23 19:44:15.019,6.874924681589399
2025-03-23 19:44:15.019,10.828601639187307
2025-03-23 19:44:15.019,6.415213977223075
2025-03-23 19:44:15.027,-3.2831798326813586
2025-03-23 19:44:15.027,-9.611151375088697
2025-03-23 19:44:15.027,-6.915972671569025
2025-03-23 19:44:15.027,1.1962275139137928
2025-03-23 19:44:15.027,6.2688539068791
2025-03-23 19:44:15.036,4.553105006646138
2025-03-23 19:44:15.037,-0.2263428363093402
2025-03-23 19:44:15.037,-2.7549218484944715
2025-03-23 19:44:15.037,-1.727606826421107
2025-03-23 19:44:15.046,0.569749053928334
2025-03-23 19:44:15.047,1.4833440747971247
2025-03-23 19:44:15.047,-0.053711381680939405
2025-03-23 19:44:15.047,-2.7470330335576656
2025-03-23 19:44:15.047,-3.3772173582022313
2025-03-23 19:44:15.057,0.15322134504231233
2025-03-23 19:44:15.057,5.418479659978422
2025-03-23 19:44:15.057,6.871409005397744
2025-03-23 19:44:15.057,1.868977306660535
2025-03-23 19:44:15.057,-5.760554346675558
2025-03-23 19:44:15.066,-9.22709075065342
2025-03-23 19:44:15.067,-5.348536982385898
2025-03-23 19:44:15.067,2.7429426957173866
2025-03-23 19:44:15.067,8.605985992649458
2025-03-23 19:44:15.067,7.837705300929767
2025-03-23 19:44:15.076,1.4740165250365997
2025-03-23 19:44:15.076,-5.119638162191134
2025-03-23 19:44:15.077,-7.071569577234005
2025-03-23 19:44:15.077,-4.026313958671205
2025-03-23 19:44:15.077,0.6257586329842961
2025-03-23 19:44:15.086,3.65288610315715
2025-03-23 19:44:15.086,4.070300182003731
2025-03-23 19:44:15.086,2.289903127348667
2025-03-23 19:44:15.087,-0.6164042022822666
2025-03-23 19:44:15.087,-2.6801555600490445
2025-03-23 19:44:15.096,-2.172683745392904
2025-03-23 19:44:15.096,0.1828710542643645
2025-03-23 19:44:15.097,1.5668928005115033
2025-03-23 19:44:15.097,0.3926345603230652
2025-03-23 19:44:15.097,-1.7796945975917995
2025-03-23 19:44:15.106,-2.2025207740362607
2025-03-23 19:44:15.106,0.02654078068053274
2025-03-23 19:44:15.106,3.179635490949118
2025-03-23 19:44:15.106,4.411303768391181
2025-03-23 19:44:15.107,2.0547522701241876
2025-03-23 19:44:15.115,-2.6571335232673787
2025-03-23 19:44:15.115,-5.996127604019867
2025-03-23 19:44:15.115,-4.781879876084954
2025-03-23 19:44:15.115,0.37419206146652373
2025-03-23 19:44:15.115,5.187162543219632
2025-03-23 19:44:15.125,5.611118120891973
2025-03-23 19:44:15.125,1.7589025647049885
2025-03-23 19:44:15.125,-2.4139332598671515
2025-03-23 19:44:15.125,-3.496322765984367
2025-03-23 19:44:15.134,-2.0282177596906816
2025-03-23 19:44:15.135,-0.8120177636033507
2025-03-23 19:44:15.135,-0.6555630496090523
2025-03-23 19:44:15.135,0.36276136727265096
2025-03-23 19:44:15.135,3.125263950213581
2025-03-23 19:44:15.144,4.917818434108536
2025-03-23 19:44:15.144,2.3371575384911476
2025-03-23 19:44:15.145,-3.6936204890779356
2025-03-23 19:44:15.145,-7.5831204748916425
2025-03-23 19:44:15.145,-4.837948643417452
2025-03-23 19:44:15.154,2.4663143004752324
2025-03-23 19:44:15.154,7.442267424430042
2025-03-23 19:44:15.155,5.797944704662946
2025-03-23 19:44:15.155,0.04088208622813172
2025-03-23 19:44:15.155,-4.271572678637255
2025-03-23 19:44:15.163,-4.676976381409471
2025-03-23 19:44:15.163,-2.6998270787751153
2025-03-23 19:44:15.163,-0.24182974855271028
2025-03-23 19:44:15.163,2.1637333094368407
2025-03-23 19:44:15.163,3.7690036409215146
2025-03-23 19:44:15.172,3.172284928636394
2025-03-23 19:44:15.173,0.49094872058194206
2025-03-23 19:44:15.173,-2.032605838206525
2025-03-23 19:44:15.173,-2.757318873933192
2025-03-23 19:44:15.182,-2.3504762656726674
2025-03-23 19:44:15.183,-1.7262336563930352
2025-03-23 19:44:15.183,-0.15682800003796388
2025-03-23 19:44:15.183,2.8232761991921556
2025-03-23 19:44:15.183,5.031366516723251
2025-03-23 19:44:15.183,3.4730189923313417
2025-03-23 19:44:15.192,-1.5582439866254192
2025-03-23 19:44:15.193,-5.9258257465062885
2025-03-23 19:44:15.193,-5.69653892333748
2025-03-23 19:44:15.193,-0.9818565583532557
2025-03-23 19:44:15.202,4.386984979795441
2025-03-23 19:44:15.203,6.2868738088820555
2025-03-23 19:44:15.203,3.4064976623132157
2025-03-23 19:44:15.203,-1.9196138221469705
2025-03-23 19:44:15.203,-5.363187112545597
2025-03-23 19:44:15.212,-4.089982410201177
2025-03-23 19:44:15.213,0.355736634188462
2025-03-23 19:44:15.213,3.3065485466649123
2025-03-23 19:44:15.213,2.161931838987896
2025-03-23 19:44:15.213,-0.5011523708664032
2025-03-23 19:44:15.222,-0.5667879677593118
2025-03-23 19:44:15.223,1.660523569674611
2025-03-23 19:44:15.223,1.7572186167436505
2025-03-23 19:44:15.223,-2.0863707686828037
2025-03-23 19:44:15.223,-5.4673009548957445
2025-03-23 19:44:15.232,-3.1469519666951533
2025-03-23 19:44:15.232,3.517635453529659
2025-03-23 19:44:15.233,7.463759710022381
2025-03-23 19:44:15.233,4.278700886553108
2025-03-23 19:44:15.233,-2.8042949938308888
2025-03-23 19:44:15.242,-7.018794629354964
2025-03-23 19:44:15.242,-5.189481135156145
2025-03-23 19:44:15.243,0.31537809228023356
2025-03-23 19:44:15.243,4.950321067779005
2025-03-23 19:44:15.243,5.6332216682796385
2025-03-23 19:44:15.252,2.1883034861394033
2025-03-23 19:44:15.252,-2.7403953134170465
2025-03-23 19:44:15.252,-5.233051420878003
2025-03-23 19:44:15.253,-3.1923660897892927
2025-03-23 19:44:15.253,1.4072648553426712
2025-03-23 19:44:15.262,4.135829156001341
2025-03-23 19:44:15.262,2.591569639876681
2025-03-23 19:44:15.263,-1.1023617981705947
2025-03-23 19:44:15.263,-2.794598703892653
2025-03-23 19:44:15.263,-1.01772787786008
2025-03-23 19:44:15.272,1.5531194816623042
2025-03-23 19:44:15.272,1.5336449199753772
2025-03-23 19:44:15.273,-1.009144315172307
2025-03-23 19:44:15.273,-2.6308789949824214
2025-03-23 19:44:15.273,-0.7387536852603631
2025-03-23 19:44:15.282,2.9810360748720846
2025-03-23 19:44:15.282,4.117257801014514
2025-03-23 19:44:15.282,0.6516878024855925
2025-03-23 19:44:15.283,-4.180630344305203
2025-03-23 19:44:15.283,-5.0863157554620875
2025-03-23 19:44:15.292,-0.7949788913278291
2025-03-23 19:44:15.292,4.13435346868033
2025-03-23 19:44:15.293,4.390727188127265
2025-03-23 19:44:15.293,0.11591114587987172
2025-03-23 19:44:15.293,-3.3141621486678146
2025-03-23 19:44:15.302,-1.8731949019459313
2025-03-23 19:44:15.302,2.131087869722022
2025-03-23 19:44:15.302,2.9412678883731305
2025-03-23 19:44:15.303,-1.2019892599208348
2025-03-23 19:44:15.303,-5.32833276347695
2025-03-23 19:44:15.312,-3.644481147390393
2025-03-23 19:44:15.312,2.920851739094465
2025-03-23 19:44:15.312,7.2895776714276534
2025-03-23 19:44:15.313,4.612208464260603
2025-03-23 19:44:15.313,-2.134214884871799
2025-03-23 19:44:15.321,-6.160947041957077
2025-03-23 19:44:15.321,-4.603236122253265
2025-03-23 19:44:15.321,-0.2952570349082475
2025-03-23 19:44:15.321,2.789764767031393
2025-03-23 19:44:15.321,3.2479928564333256
2025-03-23 19:44:15.330,1.806182193104322
2025-03-23 19:44:15.331,-0.15436044369471347
2025-03-23 19:44:15.331,-1.1009564828107412
2025-03-23 19:44:15.331,-0.4258231982139761
2025-03-23 19:44:15.340,0.3182947662113737
2025-03-23 19:44:15.341,-0.9200109915003056
2025-03-23 19:44:15.341,-3.1567787993716334
2025-03-23 19:44:15.341,-2.6431246033114832
2025-03-23 19:44:15.341,1.9372404223761173
2025-03-23 19:44:15.350,6.344748174848808
2025-03-23 19:44:15.351,5.078821407482504
2025-03-23 19:44:15.351,-1.6953349067194214
2025-03-23 19:44:15.351,-7.469069107291901
2025-03-23 19:44:15.351,-6.240663853339169
2025-03-23 19:44:15.360,0.9109947843159162
2025-03-23 19:44:15.361,6.918354027607815
2025-03-23 19:44:15.361,6.1220530675772675
2025-03-23 19:44:15.361,-0.20931426818236837
2025-03-23 19:44:15.361,-5.801120361815156
2025-03-23 19:44:15.370,-5.806292577444035
2025-03-23 19:44:15.371,-0.7678570024470179
2025-03-23 19:44:15.371,4.727133790264036
2025-03-23 19:44:15.371,6.1060603914844735
2025-03-23 19:44:15.371,2.2619296270605496
2025-03-23 19:44:15.380,-3.4844546822131153
2025-03-23 19:44:15.380,-6.045418227951731
2025-03-23 19:44:15.381,-3.4091802016204413
2025-03-23 19:44:15.381,1.3711013407405965
2025-03-23 19:44:15.381,3.8832597487540403
2025-03-23 19:44:15.390,3.17441770493658
2025-03-23 19:44:15.390,1.4835304068402355
2025-03-23 19:44:15.391,0.22837199493742638
2025-03-23 19:44:15.391,-1.3596772357410647
2025-03-23 19:44:15.391,-3.5383771004156768
2025-03-23 19:44:15.400,-4.260092316820338
2025-03-23 19:44:15.400,-1.4503977576949039
2025-03-23 19:44:15.401,3.6346393244053625
2025-03-23 19:44:15.401,6.624010175753894
2025-03-23 19:44:15.401,4.218930283139901
2025-03-23 19:44:15.410,-2.0501730577634985
2025-03-23 19:44:15.411,-6.882522025416842
2025-03-23 19:44:15.411,-6.212102296755046
2025-03-23 19:44:15.411,-0.77090377130336
2025-03-23 19:44:15.411,5.124347254362014
2025-03-23 19:44:15.420,7.317799958351087
2025-03-23 19:44:15.420,4.374271502042529
2025-03-23 19:44:15.420,-1.8677814581006802
2025-03-23 19:44:15.421,-7.155169950396085
2025-03-23 19:44:15.421,-7.347356130657375
2025-03-23 19:44:15.430,-1.8512539868238194
2025-03-23 19:44:15.430,5.185644666720367
2025-03-23 19:44:15.431,8.032818313076916
2025-03-23 19:44:15.431,4.464740931211384
2025-03-23 19:44:15.431,-2.1506120239743276
2025-03-23 19:44:15.440,-6.008581258154253
2025-03-23 19:44:15.440,-4.363705536302087
2025-03-23 19:44:15.440,0.10563150303909502
2025-03-23 19:44:15.441,2.5924948759536965
2025-03-23 19:44:15.441,1.4690241869809424
2025-03-23 19:44:15.450,-0.5284666788889685
2025-03-23 19:44:15.450,-0.30856802561245117
2025-03-23 19:44:15.451,1.7841373455508869
2025-03-23 19:44:15.451,2.880278188111701
2025-03-23 19:44:15.451,1.1699602039006025
2025-03-23 19:44:15.459,-2.3705089103762496
2025-03-23 19:44:15.459,-5.041689645593833
2025-03-23 19:44:15.459,-4.415152312210929
2025-03-23 19:44:15.459,-0.18587844976277876
2025-03-23 19:44:15.459,4.907781978229519
2025-03-23 19:44:15.469,6.716962053534338
2025-03-23 19:44:15.469,3.469363478844041
2025-03-23 19:44:15.469,-2.2144096258218773
2025-03-23 19:44:15.469,-5.782424576386107
2025-03-23 19:44:15.478,-4.9394693425500655
2025-03-23 19:44:15.479,-1.013814773094896
2025-03-23 19:44:15.479,2.9158281141493947
2025-03-23 19:44:15.479,4.312829029028111
2025-03-23 19:44:15.479,2.4892996895102084
2025-03-23 19:44:15.488,-0.9044115584984104
2025-03-23 19:44:15.489,-2.922758160922168
2025-03-23 19:44:15.489,-2.0309407026957227
2025-03-23 19:44:15.489,0.32308550615386256
2025-03-23 19:44:15.489,1.6418098982528744
2025-03-23 19:44:15.498,1.323969375191806
2025-03-23 19:44:15.499,0.5083048295015752
2025-03-23 19:44:15.499,-0.32509001474852584
2025-03-23 19:44:15.499,-1.6280370027849633
2025-03-23 19:44:15.499,-2.6331193081295234
2025-03-23 19:44:15.508,-1.2350596392736422
2025-03-23 19:44:15.508,2.6811303117564202
2025-03-23 19:44:15.509,5.342045793090768
2025-03-23 19:44:15.509,2.6810019270624603
2025-03-23 19:44:15.509,-4.031322220129599
2025-03-23 19:44:15.518,-7.885906368366073
2025-03-23 19:44:15.518,-3.38371569199657
2025-03-23 19:44:15.519,6.195499127459363
2025-03-23 19:44:15.519,10.503307242670056
2025-03-23 19:44:15.519,3.2473063980843797
2025-03-23 19:44:15.526,-9.185504113151572
2025-03-23 19:44:15.527,-13.226008711758364
2025-03-23 19:44:15.527,-3.2890115446661943
2025-03-23 19:44:15.527,11.003328358675244
2025-03-23 19:44:15.535,14.924613662810593
2025-03-23 19:44:15.535,4.6357723532877975
2025-03-23 19:44:15.535,-9.331681660771752
2025-03-23 19:44:15.535,-14.027586706062996
2025-03-23 19:44:15.535,-6.82920793716581
2025-03-23 19:44:15.546,4.240675228945749
2025-03-23 19:44:15.546,10.080847862276727
2025-03-23 19:44:15.547,8.060595655365963
2025-03-23 19:44:15.547,1.5218474601228371
2025-03-23 19:44:15.547,-4.707031466296142
2025-03-23 19:44:15.555,-7.172883819912788
2025-03-23 19:44:15.555,-4.7123440136107035
2025-03-23 19:44:15.555,0.7574102897231768
2025-03-23 19:44:15.555,4.781626844026951
2025-03-23 19:44:15.555,4.031542872737914
2025-03-23 19:44:15.565,0.029287345375905882
2025-03-23 19:44:15.565,-2.3525055662510974
2025-03-23 19:44:15.565,-0.783644595854426
2025-03-23 19:44:15.565,1.6777175995385798
2025-03-23 19:44:15.565,0.867291896719421
2025-03-23 19:44:15.575,-2.614168105569389
2025-03-23 19:44:15.575,-3.9407983778565123
2025-03-23 19:44:15.575,-0.49943657641646944
2025-03-23 19:44:15.575,4.322493070350468
2025-03-23 19:44:15.584,5.113820097897592
2025-03-23 19:44:15.584,0.9938116054381841
2025-03-23 19:44:15.585,-3.6259955996336504
2025-03-23 19:44:15.585,-4.488930348660817
2025-03-23 19:44:15.585,-1.8245089699190442
2025-03-23 19:44:15.594,1.1593918472744853
2025-03-23 19:44:15.594,2.374406579758858
2025-03-23 19:44:15.595,2.1604084777099835
2025-03-23 19:44:15.595,1.4196195604815065
2025-03-23 19:44:15.595,0.1852369279036395
2025-03-23 19:44:15.604,-1.5256583333198
2025-03-23 19:44:15.604,-2.5774168308842964
2025-03-23 19:44:15.605,-1.6868321282791594
2025-03-23 19:44:15.605,0.5385609784099769
2025-03-23 19:44:15.605,1.776047174418868
2025-03-23 19:44:15.614,0.875189274780336
2025-03-23 19:44:15.614,-0.43044599992104005
2025-03-23 19:44:15.615,0.10233143066024596
2025-03-23 19:44:15.615,1.8052441854412793
2025-03-23 19:44:15.615,1.7519387545647638
2025-03-23 19:44:15.624,-1.0920417227271435
2025-03-23 19:44:15.624,-4.0337956280282485
2025-03-23 19:44:15.624,-3.7245403488800632
2025-03-23 19:44:15.625,-0.02032341317979272
2025-03-23 19:44:15.625,3.96205094542854
2025-03-23 19:44:15.633,4.9535171372179345
2025-03-23 19:44:15.633,2.217099732965279
2025-03-23 19:44:15.633,-2.1120585283655986
2025-03-23 19:44:15.633,-4.725727483890053
2025-03-23 19:44:15.633,-3.6577720861370646
2025-03-23 19:44:15.643,0.1692844464326065
2025-03-23 19:44:15.643,3.68540627188485
2025-03-23 19:44:15.643,4.068296958463394
2025-03-23 19:44:15.643,0.9270466018431229
2025-03-23 19:44:15.643,-3.121719475424987
2025-03-23 19:44:15.653,-4.255463385799167
2025-03-23 19:44:15.653,-1.1111417343533359
2025-03-23 19:44:15.653,3.146026746356202
2025-03-23 19:44:15.653,3.9360339685225907
2025-03-23 19:44:15.662,0.8109445242853037
2025-03-23 19:44:15.663,-2.09538849623067
2025-03-23 19:44:15.663,-1.9035929061140942
2025-03-23 19:44:15.663,-0.6472896451600352
2025-03-23 19:44:15.663,-1.1865811015591698
2025-03-23 19:44:15.672,-1.9956824397981532
2025-03-23 19:44:15.673,0.47838628104250847
2025-03-23 19:44:15.673,5.188078986113027
2025-03-23 19:44:15.673,6.23038895498318
2025-03-23 19:44:15.673,0.5322215925035019
2025-03-23 19:44:15.682,-6.988745805533441
2025-03-23 19:44:15.682,-8.463754112868111
2025-03-23 19:44:15.683,-2.2877650189961525
2025-03-23 19:44:15.683,5.140845375630107
2025-03-23 19:44:15.683,7.039999141027294
2025-03-23 19:44:15.692,3.35242292723577
2025-03-23 19:44:15.692,-0.9328923240952798
2025-03-23 19:44:15.693,-2.570907334119611
2025-03-23 19:44:15.693,-2.575468153835183
2025-03-23 19:44:15.693,-2.6023325843516645
2025-03-23 19:44:15.702,-2.019238722250468
2025-03-23 19:44:15.702,0.22856259991732011
2025-03-23 19:44:15.703,3.0226020407512184
2025-03-23 19:44:15.703,4.079004441124246
2025-03-23 19:44:15.703,2.5151302213678988
2025-03-23 19:44:15.710,-0.6520054109078589
2025-03-23 19:44:15.711,-3.5624809026514277
2025-03-23 19:44:15.711,-4.328373348650457
2025-03-23 19:44:15.711,-2.0836870068039763
2025-03-23 19:44:15.711,1.7682894434579413
2025-03-23 19:44:15.721,4.294889706573384
2025-03-23 19:44:15.721,3.7799006666877513
2025-03-23 19:44:15.721,0.9810926858598247
2025-03-23 19:44:15.721,-2.393688925816073
2025-03-23 19:44:15.730,-4.8979682659930965
2025-03-23 19:44:15.731,-4.8076287748866955
2025-03-23 19:44:15.731,-0.7595596673587379
2025-03-23 19:44:15.731,5.4793501356205025
2025-03-23 19:44:15.731,8.565421650942048
2025-03-23 19:44:15.740,4.386755528557162
2025-03-23 19:44:15.741,-4.555942921821013
2025-03-23 19:44:15.741,-10.303571303212285
2025-03-23 19:44:15.741,-7.153039771127586
2025-03-23 19:44:15.741,2.1466029213137863
2025-03-23 19:44:15.750,8.9186083210709
2025-03-23 19:44:15.750,7.441993876903309
2025-03-23 19:44:15.751,0.37625606648322196
2025-03-23 19:44:15.751,-5.08221013226445
2025-03-23 19:44:15.751,-5.0960984281046615
2025-03-23 19:44:15.760,-1.8132064845505673
2025-03-23 19:44:15.761,0.9059199936217753
2025-03-23 19:44:15.761,1.8652148028203261
2025-03-23 19:44:15.761,2.0147974213607487
2025-03-23 19:44:15.761,1.6928072049387712
2025-03-23 19:44:15.770,0.3312219489325297
2025-03-23 19:44:15.770,-1.653430185457215
2025-03-23 19:44:15.771,-2.4722528880841583
2025-03-23 19:44:15.771,-1.048767737682226
2025-03-23 19:44:15.771,1.3713232896318133
2025-03-23 19:44:15.780,2.428382181361073
2025-03-23 19:44:15.780,1.2035388612127074
2025-03-23 19:44:15.780,-0.9773510974599201
2025-03-23 19:44:15.781,-2.17177158241819
2025-03-23 19:44:15.781,-1.6726107773707746
2025-03-23 19:44:15.790,-0.1479639416670916
2025-03-23 19:44:15.790,1.4064749492411204
2025-03-23 19:44:15.791,2.2759443130410384
2025-03-23 19:44:15.791,1.8995341986310674
2025-03-23 19:44:15.791,0.053231681729085156
2025-03-23 19:44:15.800,-2.3834628344349538
2025-03-23 19:44:15.801,-3.398270927767293
2025-03-23 19:44:15.801,-1.501077500650472
2025-03-23 19:44:15.801,2.266892403260357
2025-03-23 19:44:15.801,4.4461118187993005
2025-03-23 19:44:15.809,2.170795537939942
2025-03-23 19:44:15.809,-3.2500075945564078
2025-03-23 19:44:15.809,-6.27341584071587
2025-03-23 19:44:15.809,-2.3834259727266547
2025-03-23 19:44:15.809,5.804535763523269
2025-03-23 19:44:15.818,9.55348514562252
2025-03-23 19:44:15.819,3.316691664825801
2025-03-23 19:44:15.819,-7.786509299656363
2025-03-23 19:44:15.819,-12.451533168358997
2025-03-23 19:44:15.829,-5.528243708359932
2025-03-23 19:44:15.829,6.278239151751669
2025-03-23 19:44:15.829,11.973743709518013
2025-03-23 19:44:15.829,7.706817328675487
2025-03-23 19:44:15.829,-0.9667250642506896
2025-03-23 19:44:15.838,-6.780908106409698
2025-03-23 19:44:15.838,-7.684724671893372
2025-03-23 19:44:15.839,-5.552521753960052
2025-03-23 19:44:15.839,-1.3557172592463183
2025-03-23 19:44:15.839,4.8302225362437134
2025-03-23 19:44:15.847,9.918004666054305
2025-03-23 19:44:15.847,8.418759067773436
2025-03-23 19:44:15.847,-0.6883620038011915
2025-03-23 19:44:15.847,-10.18397228669937
2025-03-23 19:44:15.856,-11.030693626425508
2025-03-23 19:44:15.857,-2.3679844573074518
2025-03-23 19:44:15.857,7.223229173838508
2025-03-23 19:44:15.857,8.946184571613692
2025-03-23 19:44:15.857,2.72830224409282
2025-03-23 19:44:15.866,-3.8655606244609135
2025-03-23 19:44:15.867,-4.563869036197767
2025-03-23 19:44:15.867,-0.6762391402295502
2025-03-23 19:44:15.867,1.8823536843762605
2025-03-23 19:44:15.867,0.43473698372907926
2025-03-23 19:44:15.876,-1.692602208103435
2025-03-23 19:44:15.877,-0.6147696130679756
2025-03-23 19:44:15.877,2.303038306022404
2025-03-23 19:44:15.877,2.4863908846317138
2025-03-23 19:44:15.877,-1.0058306849223058
2025-03-23 19:44:15.886,-3.7959615029146665
2025-03-23 19:44:15.887,-2.0580551681107773
2025-03-23 19:44:15.887,2.409344526134191
2025-03-23 19:44:15.887,4.601776511441185
2025-03-23 19:44:15.887,2.293584008979059
2025-03-23 19:44:15.896,-2.1286383478952353
2025-03-23 19:44:15.897,-4.886497382739238
2025-03-23 19:44:15.897,-4.065882721415165
2025-03-23 19:44:15.897,-0.16415093130564115
2025-03-23 19:44:15.897,4.481645105301507
2025-03-23 19:44:15.905,6.384067312862419
2025-03-23 19:44:15.905,3.0956116090402936
2025-03-23 19:44:15.905,-3.6143104882051387
2025-03-23 19:44:15.905,-7.829446613229549
2025-03-23 19:44:15.905,-4.932529514943393
2025-03-23 19:44:15.915,2.7918362808767028
2025-03-23 19:44:15.915,7.744876141805992
2025-03-23 19:44:15.915,5.048639787219638
2025-03-23 19:44:15.915,-2.1400762080050804
2025-03-23 19:44:15.915,-6.3037380529264935
2025-03-23 19:44:15.925,-3.7733259933345202
2025-03-23 19:44:15.925,1.8507720676993822
2025-03-23 19:44:15.925,4.258563427691347
2025-03-23 19:44:15.925,1.3866233369993906
2025-03-23 19:44:15.925,-2.6896962089239036
2025-03-23 19:44:15.935,-2.65773968855094
2025-03-23 19:44:15.935,1.7249767606220237
2025-03-23 19:44:15.935,5.025137896763754
2025-03-23 19:44:15.935,2.3975240406560783
2025-03-23 19:44:15.935,-4.2285727578286325
2025-03-23 19:44:15.945,-7.6852355293064045
2025-03-23 19:44:15.945,-3.594108946577059
2025-03-23 19:44:15.945,4.445257553497681
2025-03-23 19:44:15.945,8.632775183715195
2025-03-23 19:44:15.945,5.175925889599323
2025-03-23 19:44:15.954,-2.294811182121399
2025-03-23 19:44:15.955,-7.013610823444541
2025-03-23 19:44:15.955,-5.566838717196651
2025-03-23 19:44:15.955,-0.17911988856310762
2025-03-23 19:44:15.964,4.1673568476068
2025-03-23 19:44:15.965,4.2484087727168305
2025-03-23 19:44:15.965,0.9308320709308059
2025-03-23 19:44:15.965,-2.182068211443096
2025-03-23 19:44:15.965,-2.3370681046167223
2025-03-23 19:44:15.974,-0.06626037178887773
2025-03-23 19:44:15.975,1.8058126442571998
2025-03-23 19:44:15.975,1.2897781720397778
2025-03-23 19:44:15.975,-0.8777712552024047
2025-03-23 19:44:15.975,-2.250601417269123
2025-03-23 19:44:15.984,-1.2449865517440935
2025-03-23 19:44:15.985,1.2209221615479848
2025-03-23 19:44:15.985,2.5374080815617868
2025-03-23 19:44:15.985,1.136219480079782
2025-03-23 19:44:15.985,-1.5294158122051063
2025-03-23 19:44:15.995,-2.371885234311132
2025-03-23 19:44:15.995,-0.34819811339867734
2025-03-23 19:44:15.995,2.067181876945787
2025-03-23 19:44:15.995,1.8612198970307958
2025-03-23 19:44:15.995,-0.6925258564799186
2025-03-23 19:44:16.004,-2.347902524770761
2025-03-23 19:44:16.005,-0.9843062024190461
2025-03-23 19:44:16.005,1.7207274052013455
2025-03-23 19:44:16.005,2.3061165876610756
2025-03-23 19:44:16.005,-0.3063657770391837
2025-03-23 19:44:16.014,-3.3400430047484995
2025-03-23 19:44:16.015,-2.9462251917069007
2025-03-23 19:44:16.015,1.6043643287016531
2025-03-23 19:44:16.015,6.344668144670795
2025-03-23 19:44:16.015,5.615846013590133
2025-03-23 19:44:16.024,-2.0319740303841516
2025-03-23 19:44:16.024,-10.47386533100189
2025-03-23 19:44:16.025,-10.425455411109041
2025-03-23 19:44:16.025,0.6234164359348473
2025-03-23 19:44:16.025,13.568498738402036
2025-03-23 19:44:16.033,15.40568995741598
2025-03-23 19:44:16.033,2.828519967108224
2025-03-23 19:44:16.033,-13.176342863906775
2025-03-23 19:44:16.033,-17.63773964582629
2025-03-23 19:44:16.042,-6.498434898581848
2025-03-23 19:44:16.042,9.372011040237533
2025-03-23 19:44:16.043,15.2877766487397
2025-03-23 19:44:16.043,7.397163748377942
2025-03-23 19:44:16.043,-4.584168791498656
2025-03-23 19:44:16.051,-8.987218338997653
2025-03-23 19:44:16.051,-4.4158050966565
2025-03-23 19:44:16.051,1.1756889545419744
2025-03-23 19:44:16.051,1.6640102777625572
2025-03-23 19:44:16.051,-0.7001512758011093
2025-03-23 19:44:16.061,-0.42763924226523653
2025-03-23 19:44:16.061,3.0781758092183384
2025-03-23 19:44:16.061,5.221916813504573
2025-03-23 19:44:16.061,2.5814728460056737
2025-03-23 19:44:16.061,-3.1110407656586716
2025-03-23 19:44:16.071,-7.189550028868478
2025-03-23 19:44:16.071,-6.337314724582764
2025-03-23 19:44:16.071,-0.7401210778253583
2025-03-23 19:44:16.071,6.045182135124543
2025-03-23 19:44:16.071,8.989952906824735
2025-03-23 19:44:16.081,5.318979387463261
2025-03-23 19:44:16.081,-2.4597769503508657
2025-03-23 19:44:16.081,-8.20273515925625
2025-03-23 19:44:16.081,-7.694863682051131
2025-03-23 19:44:16.091,-2.115225758094695
2025-03-23 19:44:16.091,4.0349998751217795
2025-03-23 19:44:16.091,7.067935514127583
2025-03-23 19:44:16.091,5.7367949201187045
2025-03-23 19:44:16.091,0.8368482391061781
2025-03-23 19:44:16.101,-4.7702268362695825
2025-03-23 19:44:16.101,-6.856861288570653
2025-03-23 19:44:16.101,-3.2884265378203184
2025-03-23 19:44:16.101,2.8627928861598835
2025-03-23 19:44:16.101,5.683703241269986
2025-03-23 19:44:16.110,2.6997515020741023
2025-03-23 19:44:16.111,-2.468072697385008
2025-03-23 19:44:16.111,-4.289361312340546
2025-03-23 19:44:16.111,-1.1859182190116113
2025-03-23 19:44:16.111,3.2591846244061613
2025-03-23 19:44:16.120,4.294667599793588
2025-03-23 19:44:16.121,0.8197138724167455
2025-03-23 19:44:16.121,-3.6498442628158396
2025-03-23 19:44:16.121,-4.7974775277197015
2025-03-23 19:44:16.121,-1.9454408054950145
2025-03-23 19:44:16.130,1.9084857649156557
2025-03-23 19:44:16.131,3.8883444050723464
2025-03-23 19:44:16.131,3.552436114368035
2025-03-23 19:44:16.131,1.604042296738018
2025-03-23 19:44:16.131,-1.419669411329426
2025-03-23 19:44:16.140,-4.160086398394714
2025-03-23 19:44:16.141,-4.18342096203942
2025-03-23 19:44:16.141,-0.7772934859526532
2025-03-23 19:44:16.141,3.01930306685293
2025-03-23 19:44:16.141,3.474584250451069
2025-03-23 19:44:16.151,0.9916573006200626
2025-03-23 19:44:16.151,-0.5600973815099562
2025-03-23 19:44:16.151,0.29206543570970145
2025-03-23 19:44:16.151,0.41329739904261054
2025-03-23 19:44:16.151,-2.425527755776274
2025-03-23 19:44:16.161,-4.662144067186464
2025-03-23 19:44:16.161,-1.4402495919704192
2025-03-23 19:44:16.161,5.119227162353779
2025-03-23 19:44:16.161,6.989481992331868
2025-03-23 19:44:16.161,0.9012767392643528
2025-03-23 19:44:16.170,-6.3180858059454925
2025-03-23 19:44:16.171,-6.218569376611337
2025-03-23 19:44:16.171,0.36057218377614786
2025-03-23 19:44:16.171,5.04662650826936
2025-03-23 19:44:16.171,3.2627264073912414
2025-03-23 19:44:16.180,-0.9355391369384081
2025-03-23 19:44:16.181,-1.9303101830804696
2025-03-23 19:44:16.181,-0.030920763082661396
2025-03-23 19:44:16.181,0.6564456416912482
2025-03-23 19:44:16.181,-0.9783845519496861
2025-03-23 19:44:16.190,-1.9293776219334788
2025-03-23 19:44:16.190,-0.14713602015407146
2025-03-23 19:44:16.191,2.2722564836714985
2025-03-23 19:44:16.191,2.0287620297958546
2025-03-23 19:44:16.191,-0.7650651427843029
2025-03-23 19:44:16.200,-2.4968996809953174
2025-03-23 19:44:16.200,-0.636403987850707
2025-03-23 19:44:16.201,2.7337279796455407
2025-03-23 19:44:16.201,3.092407280910669
2025-03-23 19:44:16.201,-0.880622203197518
2025-03-23 19:44:16.210,-5.125634270942338
2025-03-23 19:44:16.211,-4.592640539336923
2025-03-23 19:44:16.211,0.8413585488295622
2025-03-23 19:44:16.211,6.027109465138275
2025-03-23 19:44:16.211,6.05440243090743
2025-03-23 19:44:16.220,1.1095517461943416
2025-03-23 19:44:16.221,-4.307081111626409
2025-03-23 19:44:16.221,-5.978327066665838
2025-03-23 19:44:16.221,-3.278863348625601
2025-03-23 19:44:16.221,1.145331550837828
2025-03-23 19:44:16.230,3.9136222156880063
2025-03-23 19:44:16.231,3.40050164347304
2025-03-23 19:44:16.231,0.7373333528031506
2025-03-23 19:44:16.231,-1.3360740512769274
2025-03-23 19:44:16.231,-1.0939241000808693
2025-03-23 19:44:16.239,0.4153486074159164
2025-03-23 19:44:16.239,0.534926080136149
2025-03-23 19:44:16.239,-1.7102702594590569
2025-03-23 19:44:16.239,-3.7699579579666684
2025-03-23 19:44:16.248,-2.025436983383898
2025-03-23 19:44:16.249,3.3017576039558025
2025-03-23 19:44:16.249,6.842594013929358
2025-03-23 19:44:16.249,3.6514984584536596
2025-03-23 19:44:16.249,-3.9811651387754243
2025-03-23 19:44:16.258,-7.8064604872794865
2025-03-23 19:44:16.259,-3.147883924457941
2025-03-23 19:44:16.259,4.808962872488736
2025-03-23 19:44:16.259,6.7804549150056985
2025-03-23 19:44:16.259,0.6717234037955252
2025-03-23 19:44:16.268,-5.867397696769557
2025-03-23 19:44:16.269,-4.968239978552813
2025-03-23 19:44:16.269,1.9110919980590504
2025-03-23 19:44:16.269,6.244714958074791
2025-03-23 19:44:16.269,3.1297914624197336
2025-03-23 19:44:16.278,-3.2094174042957215
2025-03-23 19:44:16.279,-5.334181299715572
2025-03-23 19:44:16.279,-1.5480687706719984
2025-03-23 19:44:16.279,3.224077039885033
2025-03-23 19:44:16.279,4.170240965896397
2025-03-23 19:44:16.288,1.265020574140808
2025-03-23 19:44:16.288,-2.644339029848362
2025-03-23 19:44:16.289,-5.056113469628596
2025-03-23 19:44:16.289,-3.9574595896241718
2025-03-23 19:44:16.289,1.6927302438372993
2025-03-23 19:44:16.297,8.677527884651136
2025-03-23 19:44:16.297,9.479449306008656
2025-03-23 19:44:16.297,0.17760726175391933
2025-03-23 19:44:16.297,-12.121384917712444
2025-03-23 19:44:16.306,-14.542217196112503
2025-03-23 19:44:16.307,-3.0146933188427876
2025-03-23 19:44:16.307,11.651602176631934
2025-03-23 19:44:16.307,15.115711825416776
2025-03-23 19:44:16.307,5.185515474910668
2025-03-23 19:44:16.316,-6.930848480467248
2025-03-23 19:44:16.317,-10.213231681548402
2025-03-23 19:44:16.317,-4.846676743971324
2025-03-23 19:44:16.317,1.2746537357762366
2025-03-23 19:44:16.317,3.1569742762569946
2025-03-23 19:44:16.326,2.3511652169432424
2025-03-23 19:44:16.326,1.7968059613751437
2025-03-23 19:44:16.327,1.4349139891836276
2025-03-23 19:44:16.327,-0.006569758670476038
2025-03-23 19:44:16.327,-1.822227338041824
2025-03-23 19:44:16.336,-2.112158712204109
2025-03-23 19:44:16.337,-0.610892902893065
2025-03-23 19:44:16.337,1.0281558381720939
2025-03-23 19:44:16.337,1.37962198979492
2025-03-23 19:44:16.337,0.4316191629411343
2025-03-23 19:44:16.346,-1.040937853880903
2025-03-23 19:44:16.346,-2.0373185032539847
2025-03-23 19:44:16.347,-1.4097457743537596
2025-03-23 19:44:16.347,1.1728794216862573
2025-03-23 19:44:16.347,3.894006538547204
2025-03-23 19:44:16.356,3.721791099789598
2025-03-23 19:44:16.357,-0.19888299609651483
2025-03-23 19:44:16.357,-4.691946519391673
2025-03-23 19:44:16.357,-5.375419873886788
2025-03-23 19:44:16.357,-1.4255152681008756
2025-03-23 19:44:16.366,3.4208431785910856
2025-03-23 19:44:16.366,4.832855014003942
2025-03-23 19:44:16.367,2.0798053570713773
2025-03-23 19:44:16.367,-1.8463757058728154
2025-03-23 19:44:16.367,-3.3421191914871824
2025-03-23 19:44:16.375,-1.1983597002496011
2025-03-23 19:44:16.375,2.407786046278271
2025-03-23 19:44:16.375,3.5089309390172674
2025-03-23 19:44:16.375,0.11839423250865452
2025-03-23 19:44:16.375,-4.895128666771061
2025-03-23 19:44:16.385,-5.884925352101575
2025-03-23 19:44:16.385,-0.5788024257108322
2025-03-23 19:44:16.385,6.524793624442487
2025-03-23 19:44:16.385,8.305396267910355
2025-03-23 19:44:16.386,2.608512296175483
2025-03-23 19:44:16.395,-5.3349065493866705
2025-03-23 19:44:16.395,-8.359774789847723
2025-03-23 19:44:16.395,-4.420417757843048
2025-03-23 19:44:16.395,2.205958549700636
2025-03-23 19:44:16.405,5.816648017975034
2025-03-23 19:44:16.405,4.36627620726391
2025-03-23 19:44:16.405,0.2246483140967313
2025-03-23 19:44:16.405,-2.6967625935301296
2025-03-23 19:44:16.405,-2.3441685367465803
2025-03-23 19:44:16.414,-0.056956651961585975
2025-03-23 19:44:16.415,0.9982935119700296
2025-03-23 19:44:16.415,-0.4590897060041453
2025-03-23 19:44:16.415,-2.027598387676115
2025-03-23 19:44:16.415,-0.7290539743486519
2025-03-23 19:44:16.424,2.5385579714415027
2025-03-23 19:44:16.425,3.6674250355234066
2025-03-23 19:44:16.425,0.7661419040250661
2025-03-23 19:44:16.425,-3.130621164772823
2025-03-23 19:44:16.425,-3.781473742949463
2025-03-23 19:44:16.434,-0.7079035210148796
2025-03-23 19:44:16.435,2.6928354045085667
2025-03-23 19:44:16.435,3.1627217221509256
2025-03-23 19:44:16.435,0.7473252731291782
2025-03-23 19:44:16.435,-1.7866029167943767
2025-03-23 19:44:16.444,-2.1334359691499243
2025-03-23 19:44:16.445,-0.7698097175580868
2025-03-23 19:44:16.445,0.1746192829853481
2025-03-23 19:44:16.445,0.030040519221242457
2025-03-23 19:44:16.445,0.31620043769491235
2025-03-23 19:44:16.454,1.8912099481035212
2025-03-23 19:44:16.455,2.879720611507421
2025-03-23 19:44:16.455,0.9828970382251312
2025-03-23 19:44:16.455,-2.8467104767433327
2025-03-23 19:44:16.455,-4.8300469247281335
2025-03-23 19:44:16.465,-2.717798262414997
2025-03-23 19:44:16.465,1.5443237609066323
2025-03-23 19:44:16.465,4.132861062022356
2025-03-23 19:44:16.465,3.4861854577974816
2025-03-23 19:44:16.465,1.2002064389741667
2025-03-23 19:44:16.474,-0.7715580334560211
2025-03-23 19:44:16.475,-2.290142265840168
2025-03-23 19:44:16.475,-3.6401163912006824
2025-03-23 19:44:16.475,-3.368137254859588
2025-03-23 19:44:16.475,0.17089357115802756
2025-03-23 19:44:16.484,4.979467387399943
2025-03-23 19:44:16.485,5.863473815088579
2025-03-23 19:44:16.485,0.708695512382727
2025-03-23 19:44:16.485,-5.454888114459797
2025-03-23 19:44:16.485,-5.650037835721889
2025-03-23 19:44:16.494,0.22980837894496586
2025-03-23 19:44:16.494,5.016184185652269
2025-03-23 19:44:16.495,3.4326604351636174
2025-03-23 19:44:16.495,-1.4784007990087114
2025-03-23 19:44:16.495,-3.1975470709090765
2025-03-23 19:44:16.503,-0.5225728467823347
2025-03-23 19:44:16.503,1.864593832016856
2025-03-23 19:44:16.503,0.6958125662618082
2025-03-23 19:44:16.503,-1.8127441060450549
2025-03-23 19:44:16.503,-2.009770872497996
2025-03-23 19:44:16.514,0.19424639839055638
2025-03-23 19:44:16.515,2.240077554324655
2025-03-23 19:44:16.515,2.692668249176743
2025-03-23 19:44:16.515,1.862648960198563
2025-03-23 19:44:16.515,-0.043327503649312225
2025-03-23 19:44:16.524,-2.9224345659766735
2025-03-23 19:44:16.524,-5.123576129971114
2025-03-23 19:44:16.525,-3.959227299336013
2025-03-23 19:44:16.525,1.125204278408649
2025-03-23 19:44:16.525,6.682424071250542
2025-03-23 19:44:16.533,7.651363772079685
2025-03-23 19:44:16.533,2.2350297466005395
2025-03-23 19:44:16.533,-5.516719342064408
2025-03-23 19:44:16.533,-8.747892786202057
2025-03-23 19:44:16.542,-4.493504835408767
2025-03-23 19:44:16.543,2.8249506603041183
2025-03-23 19:44:16.543,5.974220899121968
2025-03-23 19:44:16.543,3.1224141913950487
2025-03-23 19:44:16.543,-0.5033087698623455
2025-03-23 19:44:16.552,-0.14637375812402842
2025-03-23 19:44:16.553,1.8409522744948315
2025-03-23 19:44:16.553,-0.11774108187882626
2025-03-23 19:44:16.553,-5.63092533263127
2025-03-23 19:44:16.553,-7.445960467692565
2025-03-23 19:44:16.562,-1.130847961008982
2025-03-23 19:44:16.563,7.88831918880773
2025-03-23 19:44:16.563,10.131842888622176
2025-03-23 19:44:16.563,3.309729983277201
2025-03-23 19:44:16.563,-5.506167543316559
2025-03-23 19:44:16.572,-8.556239859593743
2025-03-23 19:44:16.573,-5.057226982759434
2025-03-23 19:44:16.573,0.42235946249446876
2025-03-23 19:44:16.573,4.107514694002422
2025-03-23 19:44:16.573,5.278604099401437
2025-03-23 19:44:16.582,4.201446522910381
2025-03-23 19:44:16.583,0.9383660878737369
2025-03-23 19:44:16.583,-3.3840436010781816
2025-03-23 19:44:16.583,-6.116533542801325
2025-03-23 19:44:16.583,-5.054158320270132
2025-03-23 19:44:16.593,-0.4651167196137788
2025-03-23 19:44:16.593,4.893532021448771
2025-03-23 19:44:16.593,7.325899497070411
2025-03-23 19:44:16.593,4.558061776550634
2025-03-23 19:44:16.593,-1.883760697641187
2025-03-23 19:44:16.602,-6.87112379345577
2025-03-23 19:44:16.603,-6.076266717916664
2025-03-23 19:44:16.603,-0.653446029835324
2025-03-23 19:44:16.603,3.860529094419177
2025-03-23 19:44:16.603,3.7741696757122645
2025-03-23 19:44:16.612,0.933628349889273
2025-03-23 19:44:16.613,-0.5324304901589807
2025-03-23 19:44:16.613,0.393408944373842
2025-03-23 19:44:16.613,1.0970801580114018
2025-03-23 19:44:16.613,-0.4835842513492246
2025-03-23 19:44:16.622,-3.029104268810586
2025-03-23 19:44:16.623,-3.620558535260369
2025-03-23 19:44:16.623,-1.1794938367028445
2025-03-23 19:44:16.623,2.537781432023684
2025-03-23 19:44:16.623,4.677857800137309
2025-03-23 19:44:16.631,3.4773883094799927
2025-03-23 19:44:16.631,-0.47829803870272586
2025-03-23 19:44:16.631,-4.248121924890006
2025-03-23 19:44:16.631,-4.4026208473052
2025-03-23 19:44:16.631,-0.3517380689872408
2025-03-23 19:44:16.641,4.072074237730986
2025-03-23 19:44:16.641,3.8747433670175235
2025-03-23 19:44:16.641,-1.2449445252095916
2025-03-23 19:44:16.641,-5.417808340089409
2025-03-23 19:44:16.650,-2.901256840038636
2025-03-23 19:44:16.651,4.261834000427505
2025-03-23 19:44:16.651,7.4217044297937775
2025-03-23 19:44:16.651,1.716281357937673
2025-03-23 19:44:16.651,-6.8670216400703055
2025-03-23 19:44:16.661,-7.981673844541692
2025-03-23 19:44:16.661,0.1585864592341279
2025-03-23 19:44:16.661,8.061021023668504
2025-03-23 19:44:16.661,6.417819914814538
2025-03-23 19:44:16.661,-2.6434096950481885
2025-03-23 19:44:16.670,-8.38419752848802
2025-03-23 19:44:16.671,-4.282844793961385
2025-03-23 19:44:16.671,4.781664765684972
2025-03-23 19:44:16.671,8.651522792673559
2025-03-23 19:44:16.671,3.2601151956741563
2025-03-23 19:44:16.681,-5.522701555083596
2025-03-23 19:44:16.681,-8.697878197995362
2025-03-23 19:44:16.681,-3.365340302175303
2025-03-23 19:44:16.681,4.968656722371765
2025-03-23 19:44:16.681,8.236040593727516
2025-03-23 19:44:16.691,3.4877719750384837
2025-03-23 19:44:16.691,-4.506205515486913
2025-03-23 19:44:16.691,-7.7871191386830025
2025-03-23 19:44:16.691,-2.9616953905079235
2025-03-23 19:44:16.691,5.049525408434554
2025-03-23 19:44:16.701,7.75100525831709
2025-03-23 19:44:16.701,2.2013328321533066
2025-03-23 19:44:16.701,-5.574432711120654
2025-03-23 19:44:16.701,-7.3957619776658765
2025-03-23 19:44:16.701,-2.0625915881635533
2025-03-23 19:44:16.710,4.202246998378786
2025-03-23 19:44:16.710,5.6947309226861975
2025-03-23 19:44:16.711,2.801693632545319
2025-03-23 19:44:16.711,-0.734492730967719
2025-03-23 19:44:16.711,-2.8986701410007387
2025-03-23 19:44:16.721,-3.6838098692964207
2025-03-23 19:44:16.721,-2.673226348428146
2025-03-23 19:44:16.721,0.44393170097598267
2025-03-23 19:44:16.721,3.6496713988761864
2025-03-23 19:44:16.721,3.870896647012732
2025-03-23 19:44:16.730,0.8697504205215928
2025-03-23 19:44:16.730,-2.2619790505984403
2025-03-23 19:44:16.731,-2.9537399002232454
2025-03-23 19:44:16.731,-1.6605209027520218
2025-03-23 19:44:16.731,-0.05344350862887837
2025-03-23 19:44:16.740,1.3135442833264988
2025-03-23 19:44:16.741,2.433591335368766
2025-03-23 19:44:16.741,2.4568066210338797
2025-03-23 19:44:16.741,0.49779843228710197
2025-03-23 19:44:16.741,-2.5337267465586697
2025-03-23 19:44:16.750,-4.099709198257226
2025-03-23 19:44:16.751,-2.4245103033254223
2025-03-23 19:44:16.751,1.464422499506368
2025-03-23 19:44:16.751,4.282011142674151
2025-03-23 19:44:16.751,3.445404728617897
2025-03-23 19:44:16.760,-0.20054073265845743
2025-03-23 19:44:16.761,-3.012026742114298
2025-03-23 19:44:16.761,-2.445163458950905
2025-03-23 19:44:16.761,0.14852502909167772
2025-03-23 19:44:16.761,1.462902549749094
2025-03-23 19:44:16.770,0.4047239822897737
2025-03-23 19:44:16.771,-1.0874719510053428
2025-03-23 19:44:16.771,-1.1448239174631856
2025-03-23 19:44:16.771,-0.04740942659758503
2025-03-23 19:44:16.771,1.1674712979264479
2025-03-23 19:44:16.779,2.2140167399873465
2025-03-23 19:44:16.779,2.586085300993129
2025-03-23 19:44:16.779,0.8766611439369517
2025-03-23 19:44:16.779,-2.9897285765744672
2025-03-23 19:44:16.779,-5.8776128919159385
2025-03-23 19:44:16.789,-4.164413108443427
2025-03-23 19:44:16.789,1.5835255827478123
2025-03-23 19:44:16.789,6.531833831610527
2025-03-23 19:44:16.789,6.592828504667712
2025-03-23 19:44:16.790,2.13019592974001
2025-03-23 19:44:16.799,-3.4210908636734723
2025-03-23 19:44:16.799,-6.764764062369535
2025-03-23 19:44:16.799,-6.069747599734099
2025-03-23 19:44:16.799,-1.3331613894773577
2025-03-23 19:44:16.808,4.783908963052851
2025-03-23 19:44:16.809,7.678351520731815
2025-03-23 19:44:16.809,4.585054947406351
2025-03-23 19:44:16.809,-2.068062459287335
2025-03-23 19:44:16.809,-6.39241145478635
2025-03-23 19:44:16.819,-4.8128049004865385
2025-03-23 19:44:16.819,0.41465346971711875
2025-03-23 19:44:16.819,3.903219604113152
2025-03-23 19:44:16.819,2.88516941528756
2025-03-23 19:44:16.819,-0.42323804175754903
2025-03-23 19:44:16.819,-2.050675817837216
2025-03-23 19:44:16.829,-0.8577561254262668
2025-03-23 19:44:16.829,0.8837332125091019
2025-03-23 19:44:16.829,1.0069408591874034
2025-03-23 19:44:16.829,0.09030085040145314
2025-03-23 19:44:16.838,-0.12437888927037202
2025-03-23 19:44:16.839,0.2418750938945787
2025-03-23 19:44:16.839,-0.43510762789687135
2025-03-23 19:44:16.839,-1.9861381547038919
2025-03-23 19:44:16.839,-1.763283845809488
2025-03-23 19:44:16.849,1.2977500261961021
2025-03-23 19:44:16.849,3.75705141762436
2025-03-23 19:44:16.849,1.7351215875986752
2025-03-23 19:44:16.849,-2.7256596001155526
2025-03-23 19:44:16.849,-3.309687251795145
2025-03-23 19:44:16.858,1.395942063850013
2025-03-23 19:44:16.859,4.586060916216026
2025-03-23 19:44:16.859,0.4646451520792578
2025-03-23 19:44:16.859,-6.374617481725989
2025-03-23 19:44:16.859,-6.019261758684371
2025-03-23 19:44:16.868,2.934096172755549
2025-03-23 19:44:16.868,10.105670597878268
2025-03-23 19:44:16.869,6.181921455877774
2025-03-23 19:44:16.869,-4.808241062119237
2025-03-23 19:44:16.869,-10.244770466267887
2025-03-23 19:44:16.877,-4.602625851524969
2025-03-23 19:44:16.877,4.400088104886276
2025-03-23 19:44:16.877,6.585842792947169
2025-03-23 19:44:16.877,1.8202367874287964
2025-03-23 19:44:16.877,-2.1104789188607316
2025-03-23 19:44:16.887,-1.3389826859186074
2025-03-23 19:44:16.887,0.17442880902077162
2025-03-23 19:44:16.887,-1.1873109653359337
2025-03-23 19:44:16.887,-2.5182868137999015
2025-03-23 19:44:16.896,0.21207749091855074
2025-03-23 19:44:16.897,4.446305029548172
2025-03-23 19:44:16.897,3.831959347364958
2025-03-23 19:44:16.897,-2.189599773097547
2025-03-23 19:44:16.897,-6.462715461587394
2025-03-23 19:44:16.906,-3.3145453431630516
2025-03-23 19:44:16.907,3.717820920693239
2025-03-23 19:44:16.907,6.248868146677049
2025-03-23 19:44:16.907,1.6491869219516666
2025-03-23 19:44:16.907,-3.986685961333498
2025-03-23 19:44:16.917,-3.938079324363672
2025-03-23 19:44:16.917,0.8339166677142953
2025-03-23 19:44:16.917,3.641719363186026
2025-03-23 19:44:16.917,1.0497074646535796
2025-03-23 19:44:16.917,-3.0915412577366292
2025-03-23 19:44:16.927,-3.2433274023448635
2025-03-23 19:44:16.927,0.6896953304994189
2025-03-23 19:44:16.927,3.8431503191098506
2025-03-23 19:44:16.927,2.7669640661743236
2025-03-23 19:44:16.927,-0.9592963895946685
2025-03-23 19:44:16.936,-3.312377655029814
2025-03-23 19:44:16.937,-2.222038347304548
2025-03-23 19:44:16.937,0.9018584251723575
2025-03-23 19:44:16.937,2.884245261672269
2025-03-23 19:44:16.937,1.8079118056945123
2025-03-23 19:44:16.946,-1.1051878382306504
2025-03-23 19:44:16.947,-2.8559367037438137
2025-03-23 19:44:16.947,-2.0261525389717248
2025-03-23 19:44:16.947,0.2495117376794567
2025-03-23 19:44:16.947,2.5408044143639508
2025-03-23 19:44:16.956,4.037612799107221
2025-03-23 19:44:16.957,2.9110535253261594
2025-03-23 19:44:16.957,-2.4110618295109365
2025-03-23 19:44:16.957,-8.356799558518
2025-03-23 19:44:16.957,-7.058023185620765
2025-03-23 19:44:16.965,3.437523450174932
2025-03-23 19:44:16.965,12.98860540246255
2025-03-23 19:44:16.965,9.580674455674023
2025-03-23 19:44:16.965,-4.869725399334866
2025-03-23 19:44:16.966,-14.934698928171722
2025-03-23 19:44:16.975,-9.543275471170862
2025-03-23 19:44:16.975,5.151500783381095
2025-03-23 19:44:16.975,13.538545066904652
2025-03-23 19:44:16.975,8.10753428995326
2025-03-23 19:44:16.985,-4.047907934025298
2025-03-23 19:44:16.985,-10.671688828945715
2025-03-23 19:44:16.985,-6.7902903896498925
2025-03-23 19:44:16.985,2.388283413825065
2025-03-23 19:44:16.985,8.12377505064143
2025-03-23 19:44:16.994,6.095350519687196
2025-03-23 19:44:16.995,-0.9198020768095773
2025-03-23 19:44:16.995,-6.328171382281704
2025-03-23 19:44:16.995,-5.541006308162331
2025-03-23 19:44:16.995,0.1844437757519221
2025-03-23 19:44:17.004,5.060652276598133
2025-03-23 19:44:17.005,4.477785478682625
2025-03-23 19:44:17.005,-0.32185911007774476
2025-03-23 19:44:17.005,-3.8952070030162225
2025-03-23 19:44:17.005,-2.897184220881063
2025-03-23 19:44:17.014,0.5799754956900701
2025-03-23 19:44:17.015,2.409340233917314
2025-03-23 19:44:17.015,1.4600230286014866
2025-03-23 19:44:17.015,-0.17561797867509868
2025-03-23 19:44:17.015,-0.7087523082578672
2025-03-23 19:44:17.024,-0.42508522789258907
2025-03-23 19:44:17.024,-0.3108633134439257
2025-03-23 19:44:17.025,-0.6325780175514911
2025-03-23 19:44:17.025,-0.9807434282986665
2025-03-23 19:44:17.025,-0.6039570038598482
2025-03-23 19:44:17.034,1.1073271303238732
2025-03-23 19:44:17.035,3.3356282696340553
2025-03-23 19:44:17.035,3.448941194266613
2025-03-23 19:44:17.035,-0.3662429481211142
2025-03-23 19:44:17.035,-5.733424020361978
2025-03-23 19:44:17.043,-7.06389147782501
2025-03-23 19:44:17.043,-1.4563570940119703
2025-03-23 19:44:17.043,6.82224607229515
2025-03-23 19:44:17.043,9.527779721571267
2025-03-23 19:44:17.052,3.143903371815601
2025-03-23 19:44:17.053,-6.459003783869447
2025-03-23 19:44:17.053,-9.63219766320029
2025-03-23 19:44:17.053,-3.3293954993324375
2025-03-23 19:44:17.053,5.536490508017659
2025-03-23 19:44:17.062,7.8133919786857335
2025-03-23 19:44:17.062,2.017755754056015
2025-03-23 19:44:17.063,-4.775414435388168
2025-03-23 19:44:17.063,-5.435255573796058
2025-03-23 19:44:17.063,-0.42728935596047
2025-03-23 19:44:17.072,3.8631156136610274
2025-03-23 19:44:17.073,3.2425374560452793
2025-03-23 19:44:17.073,-0.02288578413003628
2025-03-23 19:44:17.073,-1.5650645360903646
2025-03-23 19:44:17.073,-1.087681908289033
2025-03-23 19:44:17.081,-1.4562320229321775
2025-03-23 19:44:17.081,-2.739374609588898
2025-03-23 19:44:17.081,-1.2793975728633034
2025-03-23 19:44:17.081,3.9425076780801804
2025-03-23 19:44:17.090,7.586006470530995
2025-03-23 19:44:17.091,3.8975879057129106
2025-03-23 19:44:17.091,-5.06634258739393
2025-03-23 19:44:17.091,-10.483489617148088
2025-03-23 19:44:17.091,-6.40513920846064
2025-03-23 19:44:17.100,3.615204960095106
2025-03-23 19:44:17.101,10.237453310413494
2025-03-23 19:44:17.101,7.724888064072314
2025-03-23 19:44:17.101,-0.8542516770243915
2025-03-23 19:44:17.101,-7.317704897959527
2025-03-23 19:44:17.110,-6.709879106489909
2025-03-23 19:44:17.111,-1.4999475719416209
2025-03-23 19:44:17.111,2.5638585418880107
2025-03-23 19:44:17.111,3.329413357320744
2025-03-23 19:44:17.111,3.0720458609248116
2025-03-23 19:44:17.120,3.1625006830845996
2025-03-23 19:44:17.121,1.31211707709028
2025-03-23 19:44:17.121,-3.9628961807386087
2025-03-23 19:44:17.121,-8.485899440295114
2025-03-23 19:44:17.121,-5.808596300769167
2025-03-23 19:44:17.129,3.935964842534725
2025-03-23 19:44:17.129,11.64323102420848
2025-03-23 19:44:17.129,8.54489570967103
2025-03-23 19:44:17.129,-2.9705524005395842
2025-03-23 19:44:17.139,-11.108465651636903
2025-03-23 19:44:17.139,-8.090742096182574
2025-03-23 19:44:17.139,1.285321630526279
2025-03-23 19:44:17.139,6.705250410568883
2025-03-23 19:44:17.139,4.91146494779186
2025-03-23 19:44:17.149,1.0574050290041401
2025-03-23 19:44:17.149,-0.6510086880529614
2025-03-23 19:44:17.149,-1.6863066801321138
2025-03-23 19:44:17.149,-3.6183984933325917
2025-03-23 19:44:17.149,-3.651888710629447
2025-03-23 19:44:17.158,0.528258014378019
2025-03-23 19:44:17.159,5.192837758532387
2025-03-23 19:44:17.159,4.604222122761993
2025-03-23 19:44:17.159,-0.8170893796340951
2025-03-23 19:44:17.159,-4.711158642455182
2025-03-23 19:44:17.168,-3.176843511340257
2025-03-23 19:44:17.169,0.7841129436434471
2025-03-23 19:44:17.169,2.279823477882463
2025-03-23 19:44:17.169,0.8731511077397593
2025-03-23 19:44:17.169,-0.22501872896801364
2025-03-23 19:44:17.179,0.6126673964332624
2025-03-23 19:44:17.179,1.631411316895795
2025-03-23 19:44:17.179,0.6915799246811986
2025-03-23 19:44:17.179,-1.9237836225899716
2025-03-23 19:44:17.179,-3.908729267721075
2025-03-23 19:44:17.189,-3.0730027107299507
2025-03-23 19:44:17.189,0.7495989159178392
2025-03-23 19:44:17.189,4.967007643920701
2025-03-23 19:44:17.189,5.805190371831778
2025-03-23 19:44:17.189,1.8652472572932206
2025-03-23 19:44:17.199,-3.878583400731126
2025-03-23 19:44:17.199,-6.545741803990358
2025-03-23 19:44:17.199,-3.998454222797897
2025-03-23 19:44:17.199,1.3004054078572527
2025-03-23 19:44:17.199,4.8620168483026385
2025-03-23 19:44:17.207,4.247973521518762
2025-03-23 19:44:17.207,0.8077083958749423
2025-03-23 19:44:17.207,-2.1718246088747524
2025-03-23 19:44:17.207,-2.701925660597435
2025-03-23 19:44:17.208,-1.3246107052540503
2025-03-23 19:44:17.217,0.34696569607828953
2025-03-23 19:44:17.217,1.20558580894905
2025-03-23 19:44:17.217,0.738039737111006
2025-03-23 19:44:17.217,-0.855047338500085
2025-03-23 19:44:17.226,-1.8278868246771833
2025-03-23 19:44:17.227,0.053998279670510366
2025-03-23 19:44:17.227,3.893715707812289
2025-03-23 19:44:17.227,4.7078730100152555
2025-03-23 19:44:17.227,-0.8358550124696671
2025-03-23 19:44:17.236,-8.10975099104779
2025-03-23 19:44:17.237,-7.921231046883729
2025-03-23 19:44:17.237,1.893840269641143
2025-03-23 19:44:17.237,11.501614637189272
2025-03-23 19:44:17.237,9.467211877134211
2025-03-23 19:44:17.245,-3.03914991329364
2025-03-23 19:44:17.245,-12.5940158606869
2025-03-23 19:44:17.245,-8.935099796368984
2025-03-23 19:44:17.245,3.4273262776260274
2025-03-23 19:44:17.246,11.17336976440069
2025-03-23 19:44:17.255,7.3151178302462645
2025-03-23 19:44:17.255,-2.628720379920699
2025-03-23 19:44:17.255,-8.436888821767194
2025-03-23 19:44:17.255,-5.7960237506160395
2025-03-23 19:44:17.264,1.316473858038492
2025-03-23 19:44:17.265,6.077056002706624
2025-03-23 19:44:17.265,4.940515162380813
2025-03-23 19:44:17.265,-0.3432768042234196
2025-03-23 19:44:17.265,-4.876702596917909
2025-03-23 19:44:17.274,-4.70429329460873
2025-03-23 19:44:17.275,-0.10969968260074253
2025-03-23 19:44:17.275,4.460302282493225
2025-03-23 19:44:17.275,4.483950671305653
2025-03-23 19:44:17.275,0.08694222129633089
2025-03-23 19:44:17.284,-3.9502567847190933
2025-03-23 19:44:17.285,-3.5913998471955306
2025-03-23 19:44:17.285,0.056137700523882506
2025-03-23 19:44:17.285,2.846433767654183
2025-03-23 19:44:17.285,2.7199931633118246
2025-03-23 19:44:17.294,0.7299080281179338
2025-03-23 19:44:17.295,-1.7338556167128503
2025-03-23 19:44:17.295,-3.668997034334244
2025-03-23 19:44:17.295,-3.023401300791225
2025-03-23 19:44:17.295,1.5156920786154366
2025-03-23 19:44:17.304,6.527093288277326
2025-03-23 19:44:17.304,5.727501201373788
2025-03-23 19:44:17.305,-1.8016437698560177
2025-03-23 19:44:17.305,-8.50448798333744
2025-03-23 19:44:17.305,-6.855233280076865
2025-03-23 19:44:17.314,1.1146077561425924
2025-03-23 19:44:17.315,6.59968392724192
2025-03-23 19:44:17.315,5.165978639239492
2025-03-23 19:44:17.315,0.8355183748900014
2025-03-23 19:44:17.315,-1.075566270328843
2025-03-23 19:44:17.323,-0.7794287761129588
2025-03-23 19:44:17.323,-1.6950089857144937
2025-03-23 19:44:17.323,-4.318775100640046
2025-03-23 19:44:17.323,-5.232292503724226
2025-03-23 19:44:17.332,-1.4379533663212267
2025-03-23 19:44:17.333,5.757546927700513
2025-03-23 19:44:17.333,10.842755184881792
2025-03-23 19:44:17.333,8.128704706166793
2025-03-23 19:44:17.333,-2.5226242390804283
2025-03-23 19:44:17.341,-13.29789358516369
2025-03-23 19:44:17.341,-14.057009462353118
2025-03-23 19:44:17.341,-2.6745928327577384
2025-03-23 19:44:17.341,11.15958204361168
2025-03-23 19:44:17.350,14.889787434739333
2025-03-23 19:44:17.351,5.949165209876929
2025-03-23 19:44:17.351,-6.13774135076434
2025-03-23 19:44:17.351,-10.512419470251864
2025-03-23 19:44:17.351,-5.581846301519732
2025-03-23 19:44:17.360,1.8060796000768315
2025-03-23 19:44:17.361,5.094937645012176
2025-03-23 19:44:17.361,3.464866675621435
2025-03-23 19:44:17.361,-0.08264444999734638
2025-03-23 19:44:17.361,-2.690393285404114
2025-03-23 19:44:17.370,-2.856430288948726
2025-03-23 19:44:17.371,-0.26087620079519674
2025-03-23 19:44:17.371,3.4231744560294546
2025-03-23 19:44:17.371,4.621590105472334
2025-03-23 19:44:17.371,1.1445143265954174
2025-03-23 19:44:17.380,-4.426349504164255
2025-03-23 19:44:17.381,-6.481652654607506
2025-03-23 19:44:17.381,-2.452564674564512
2025-03-23 19:44:17.381,3.862672239321137
2025-03-23 19:44:17.381,6.140576136858345
2025-03-23 19:44:17.390,2.4357512209110452
2025-03-23 19:44:17.391,-2.7684074928424973
2025-03-23 19:44:17.391,-3.7987774096639444
2025-03-23 19:44:17.391,-0.2916297004292567
2025-03-23 19:44:17.391,2.744551546490797
2025-03-23 19:44:17.400,1.3809993366503452
2025-03-23 19:44:17.401,-2.370291108403193
2025-03-23 19:44:17.401,-3.4638832876037577
2025-03-23 19:44:17.401,-0.44029964166012203
2025-03-23 19:44:17.401,3.07887751407043
2025-03-23 19:44:17.410,3.4233061269379585
2025-03-23 19:44:17.410,1.0386442327717127
2025-03-23 19:44:17.411,-1.2681279063169348
2025-03-23 19:44:17.411,-2.1736136536731245
2025-03-23 19:44:17.411,-2.1508333192865665
2025-03-23 19:44:17.420,-1.2728358240647109
2025-03-23 19:44:17.421,0.8560313546761608
2025-03-23 19:44:17.421,3.032367450956614
2025-03-23 19:44:17.421,2.671901803950215
2025-03-23 19:44:17.421,-0.7084710406177721
2025-03-23 19:44:17.430,-3.7321166988553567
2025-03-23 19:44:17.431,-2.709504727883005
2025-03-23 19:44:17.431,1.5214500891093163
2025-03-23 19:44:17.431,4.139451735233977
2025-03-23 19:44:17.431,2.1085547010521677
2025-03-23 19:44:17.440,-2.10772474323501
2025-03-23 19:44:17.441,-3.6316618976803494
2025-03-23 19:44:17.441,-1.0716988800022402
2025-03-23 19:44:17.441,2.0855353004920705
2025-03-23 19:44:17.441,2.02154952655778
2025-03-23 19:44:17.450,-0.7337755967910811
2025-03-23 19:44:17.451,-2.1835868399688554
2025-03-23 19:44:17.451,-0.09993600726338142
2025-03-23 19:44:17.451,2.972177893760199
2025-03-23 19:44:17.451,2.839168848020521
2025-03-23 19:44:17.459,-0.9400127571045434
2025-03-23 19:44:17.459,-4.2851803684228775
2025-03-23 19:44:17.459,-3.4627444690099294
2025-03-23 19:44:17.459,0.6077683745569464
2025-03-23 19:44:17.460,3.738187339753379
2025-03-23 19:44:17.469,3.252915826151098
2025-03-23 19:44:17.469,0.2992439253218925
2025-03-23 19:44:17.469,-2.135906318333914
2025-03-23 19:44:17.469,-2.2900558237304836
2025-03-23 19:44:17.478,-0.6377491123249402
2025-03-23 19:44:17.479,1.1092857013097899
2025-03-23 19:44:17.479,1.4856569012532665
2025-03-23 19:44:17.479,0.3143906674394406
2025-03-23 19:44:17.479,-1.17626710501343
2025-03-23 19:44:17.489,-1.4565937854183149
2025-03-23 19:44:17.489,-0.210923620464938
2025-03-23 19:44:17.489,1.3893277953029122
2025-03-23 19:44:17.489,1.958259153967088
2025-03-23 19:44:17.489,1.059699170388501
2025-03-23 19:44:17.499,-0.8073342220085629
2025-03-23 19:44:17.499,-2.539924685897453
2025-03-23 19:44:17.499,-2.6216530308043113
2025-03-23 19:44:17.499,-0.2517371130280206
2025-03-23 19:44:17.499,2.975772963197603
2025-03-23 19:44:17.508,3.7510171971733675
2025-03-23 19:44:17.509,0.7517425256779018
2025-03-23 19:44:17.509,-3.073897427460195
2025-03-23 19:44:17.509,-3.525440385014411
2025-03-23 19:44:17.509,-0.26108613012838655
2025-03-23 19:44:17.518,2.752539941150948
2025-03-23 19:44:17.519,2.2374746066041853
2025-03-23 19:44:17.519,-0.5770825821011945
2025-03-23 19:44:17.519,-2.1088049860949822
2025-03-23 19:44:17.519,-1.0362344899913394
2025-03-23 19:44:17.528,0.8109979659279835
2025-03-23 19:44:17.529,1.4291560917985078
2025-03-23 19:44:17.529,0.7050243312118083
2025-03-23 19:44:17.529,-0.43907914550021215
2025-03-23 19:44:17.529,-1.290444759729935
2025-03-23 19:44:17.538,-1.2283607314466627
2025-03-23 19:44:17.539,0.25124128885240665
2025-03-23 19:44:17.539,2.3391829917028786
2025-03-23 19:44:17.539,2.622242790397143
2025-03-23 19:44:17.539,-0.42177171166843747
2025-03-23 19:44:17.548,-4.548163868102115
2025-03-23 19:44:17.549,-4.9977685460755
2025-03-23 19:44:17.549,0.12795489991634804
2025-03-23 19:44:17.549,6.54429743212934
2025-03-23 19:44:17.549,7.536249031160946
2025-03-23 19:44:17.557,1.3250447244862236
2025-03-23 19:44:17.557,-6.5108112366477116
2025-03-23 19:44:17.557,-8.643372115743784
2025-03-23 19:44:17.557,-3.3542363909586927
2025-03-23 19:44:17.557,4.254327337044811
2025-03-23 19:44:17.567,7.66996548949233
2025-03-23 19:44:17.567,4.69237650850423
2025-03-23 19:44:17.567,-1.6047574676079566
2025-03-23 19:44:17.567,-6.005962358121359
2025-03-23 19:44:17.577,-5.053968671898202
2025-03-23 19:44:17.577,0.42331220248977935
2025-03-23 19:44:17.577,5.526161370811
2025-03-23 19:44:17.577,5.168619289797157
2025-03-23 19:44:17.577,-0.7055721475757812
2025-03-23 19:44:17.587,-6.211567754161168
2025-03-23 19:44:17.587,-5.32591939260227
2025-03-23 19:44:17.587,1.2578901440637904
2025-03-23 19:44:17.587,6.464890797980362
2025-03-23 19:44:17.588,4.747562570987661
2025-03-23 19:44:17.597,-1.5673649761526882
2025-03-23 19:44:17.597,-5.281522962426413
2025-03-23 19:44:17.597,-2.9048216943863974
2025-03-23 19:44:17.597,1.8784594904955916
2025-03-23 19:44:17.597,3.467052193854593
2025-03-23 19:44:17.607,0.8438929160061654
2025-03-23 19:44:17.607,-2.3285612810961793
2025-03-23 19:44:17.607,-2.5620364038085883
2025-03-23 19:44:17.607,0.0652920139954179
2025-03-23 19:44:17.607,2.71668389077428
2025-03-23 19:44:17.617,2.743574930311211
2025-03-23 19:44:17.617,0.030767226566555866
2025-03-23 19:44:17.617,-2.792509337398876
2025-03-23 19:44:17.617,-2.736562439506814
2025-03-23 19:44:17.617,0.23260447584153437
2025-03-23 19:44:17.627,2.6678432502296876
2025-03-23 19:44:17.627,1.497749951254856
2025-03-23 19:44:17.627,-1.8472119822278426
2025-03-23 19:44:17.627,-2.74499263917627
2025-03-23 19:44:17.627,0.6927933202629518
2025-03-23 19:44:17.636,4.5758369724527554
2025-03-23 19:44:17.637,3.532350754696437
2025-03-23 19:44:17.637,-2.557971083281349
2025-03-23 19:44:17.637,-7.590389209106976
2025-03-23 19:44:17.637,-5.47617786264557
2025-03-23 19:44:17.646,3.025872271427026
2025-03-23 19:44:17.646,10.153248847248523
2025-03-23 19:44:17.647,8.332310595840319
2025-03-23 19:44:17.647,-1.9340448403372363
2025-03-23 19:44:17.647,-11.524357090953208
2025-03-23 19:44:17.655,-10.987537444936724
2025-03-23 19:44:17.655,-0.10925407986676461
2025-03-23 19:44:17.655,11.108967109203387
2025-03-23 19:44:17.655,11.980822362153006
2025-03-23 19:44:17.665,2.0132433906518603
2025-03-23 19:44:17.665,-8.547067852048153
2025-03-23 19:44:17.665,-9.773436288260246
2025-03-23 19:44:17.665,-2.5802283012233387
2025-03-23 19:44:17.665,3.69639937018324
2025-03-23 19:44:17.675,3.464759526210416
2025-03-23 19:44:17.675,0.8995624108841691
2025-03-23 19:44:17.675,2.1695956335668076
2025-03-23 19:44:17.675,5.437692556979224
2025-03-23 19:44:17.675,3.2952418944596187
2025-03-23 19:44:17.685,-5.675651283908866
2025-03-23 19:44:17.685,-12.77948546520593
2025-03-23 19:44:17.685,-8.909798664577083
2025-03-23 19:44:17.685,4.1344323973182995
2025-03-23 19:44:17.685,14.696580911924153
2025-03-23 19:44:17.693,13.134099078281958
2025-03-23 19:44:17.693,1.0831891106537412
2025-03-23 19:44:17.693,-10.859323956746366
2025-03-23 19:44:17.694,-13.252549748705547
2025-03-23 19:44:17.694,-5.500706151739735
2025-03-23 19:44:17.703,4.886625981349338
2025-03-23 19:44:17.703,9.406350218873847
2025-03-23 19:44:17.703,5.608715368343485
2025-03-23 19:44:17.703,-1.4636772557182023
2025-03-23 19:44:17.704,-4.563278513182655
2025-03-23 19:44:17.713,-1.597883122336956
2025-03-23 19:44:17.713,2.4187359047151222
2025-03-23 19:44:17.713,1.5521470817693481
2025-03-23 19:44:17.713,-3.433431585498551
2025-03-23 19:44:17.723,-5.607931719916708
2025-03-23 19:44:17.723,-0.7321465893289165
2025-03-23 19:44:17.723,6.53106226143607
2025-03-23 19:44:17.723,7.617715333950063
2025-03-23 19:44:17.723,0.5988439504632713
2025-03-23 19:44:17.733,-7.017026924912603
2025-03-23 19:44:17.733,-6.970311732206567
2025-03-23 19:44:17.733,0.16775983767803304
2025-03-23 19:44:17.733,5.996797289797416
2025-03-23 19:44:17.733,4.328720325717937
2025-03-23 19:44:17.743,-1.8388743499958276
2025-03-23 19:44:17.743,-4.503095932379372
2025-03-23 19:44:17.743,-0.6971171251952306
2025-03-23 19:44:17.743,3.9897034819767825
2025-03-23 19:44:17.743,2.8560727125687624
2025-03-23 19:44:17.753,-2.9851839279511085
2025-03-23 19:44:17.753,-5.865537721404389
2025-03-23 19:44:17.753,-1.4852663115899882
2025-03-23 19:44:17.753,5.385516273832914
2025-03-23 19:44:17.753,6.674946125155554
2025-03-23 19:44:17.762,0.7438878561723565
2025-03-23 19:44:17.763,-5.8411770535591305
2025-03-23 19:44:17.763,-6.003763351277937
2025-03-23 19:44:17.763,0.118744032735562
2025-03-23 19:44:17.763,5.6716188525474385
2025-03-23 19:44:17.772,4.453383722970735
2025-03-23 19:44:17.773,-2.505862170973387
2025-03-23 19:44:17.773,-7.416390333744511
2025-03-23 19:44:17.773,-3.5097970396452824
2025-03-23 19:44:17.773,6.645595732919934
2025-03-23 19:44:17.781,11.919545601084296
2025-03-23 19:44:17.781,4.313743192047078
2025-03-23 19:44:17.781,-10.34152155369767
2025-03-23 19:44:17.781,-16.691702222643958
2025-03-23 19:44:17.790,-6.569329033214849
2025-03-23 19:44:17.791,10.82603590205855
2025-03-23 19:44:17.791,18.093986566850443
2025-03-23 19:44:17.791,8.29542143943639
2025-03-23 19:44:17.791,-8.042198990196987
2025-03-23 19:44:17.799,-14.899951363011283
2025-03-23 19:44:17.799,-7.442722189051604
2025-03-23 19:44:17.799,4.738735728242533
2025-03-23 19:44:17.799,9.425283733400674
2025-03-23 19:44:17.809,4.159842001067088
2025-03-23 19:44:17.809,-3.394056928639391
2025-03-23 19:44:17.809,-5.127143699799208
2025-03-23 19:44:17.809,-0.590366680083394
2025-03-23 19:44:17.809,4.051343194463816
2025-03-23 19:44:17.819,3.4260265270643835
2025-03-23 19:44:17.819,-1.523194974911537
2025-03-23 19:44:17.819,-5.071729569192555
2025-03-23 19:44:17.819,-3.162507541469569
2025-03-23 19:44:17.819,2.166998139952247
2025-03-23 19:44:17.829,5.135034126666695
2025-03-23 19:44:17.829,2.7006327415155393
2025-03-23 19:44:17.829,-2.195770616085391
2025-03-23 19:44:17.829,-4.233949349974343
2025-03-23 19:44:17.829,-1.6973510191989098
2025-03-23 19:44:17.839,2.104358006518647
2025-03-23 19:44:17.839,3.0668934343800167
2025-03-23 19:44:17.839,0.764208567986821
2025-03-23 19:44:17.839,-1.7609202013171743
2025-03-23 19:44:17.839,-1.910639068559877
2025-03-23 19:44:17.849,-0.25532815957365035
2025-03-23 19:44:17.849,0.8176378173777161
2025-03-23 19:44:17.849,0.3932021884958318
2025-03-23 19:44:17.849,-0.07571629982922072
2025-03-23 19:44:17.849,0.688632160777327
2025-03-23 19:44:17.858,1.576227398800558
2025-03-23 19:44:17.859,0.6221470961085884
2025-03-23 19:44:17.859,-1.8482751649224933
2025-03-23 19:44:17.859,-3.1915443832005717
2025-03-23 19:44:17.859,-1.695478521807625
2025-03-23 19:44:17.869,1.420875777409209
2025-03-23 19:44:17.869,3.5496771964279286
2025-03-23 19:44:17.869,3.177677073464597
2025-03-23 19:44:17.869,0.612737974939032
2025-03-23 19:44:17.869,-2.5602586441104154
2025-03-23 19:44:17.878,-4.173936010266458
2025-03-23 19:44:17.879,-2.7042472695521744
2025-03-23 19:44:17.879,1.0823204959609007
2025-03-23 19:44:17.879,4.040461354662201
2025-03-23 19:44:17.879,3.3301114853593026
2025-03-23 19:44:17.887,-0.4284402866952274
2025-03-23 19:44:17.887,-3.4013149573330974
2025-03-23 19:44:17.887,-2.5785157253235877
2025-03-23 19:44:17.887,0.909538719370385
2025-03-23 19:44:17.888,3.2319168892619414
2025-03-23 19:44:17.897,2.135343566997279
2025-03-23 19:44:17.897,-1.1291882506494664
2025-03-23 19:44:17.897,-3.6491933869241286
2025-03-23 19:44:17.897,-3.386621464103618
2025-03-23 19:44:17.907,-0.2356420736447077
2025-03-23 19:44:17.907,3.85023957092678
2025-03-23 19:44:17.907,5.578140436055195
2025-03-23 19:44:17.907,2.747571379467265
2025-03-23 19:44:17.908,-3.0229468145433707
2025-03-23 19:44:17.917,-6.795402154139121
2025-03-23 19:44:17.917,-4.782346598356422
2025-03-23 19:44:17.917,1.4975706540879408
2025-03-23 19:44:17.917,6.247961549851486
2025-03-23 19:44:17.917,5.108975245591138
2025-03-23 19:44:17.927,-0.39931867271933336
2025-03-23 19:44:17.927,-4.6489360539281925
2025-03-23 19:44:17.927,-3.9132002896782114
2025-03-23 19:44:17.927,0.17952999328985164
2025-03-23 19:44:17.927,3.174131698685657
2025-03-23 19:44:17.937,2.58804340685671
2025-03-23 19:44:17.937,-0.36725364018805784
2025-03-23 19:44:17.937,-2.720950941309725
2025-03-23 19:44:17.937,-2.3727865781825077
2025-03-23 19:44:17.937,0.44539387023125343
2025-03-23 19:44:17.947,3.2298412416769193
2025-03-23 19:44:17.947,3.1595251541636973
2025-03-23 19:44:17.947,-0.04863771987707133
2025-03-23 19:44:17.947,-3.4833790084118625
2025-03-23 19:44:17.947,-3.9553413783826037
2025-03-23 19:44:17.957,-1.2527156351011
2025-03-23 19:44:17.957,2.1692066916796193
2025-03-23 19:44:17.957,4.085030869938411
2025-03-23 19:44:17.957,3.786230009642274
2025-03-23 19:44:17.957,1.0535899061790603
2025-03-23 19:44:17.967,-3.660706921442239
2025-03-23 19:44:17.967,-7.25124303129511
2025-03-23 19:44:17.967,-5.071674225039151
2025-03-23 19:44:17.967,3.1487248092954907
2025-03-23 19:44:17.967,10.143538027009082
2025-03-23 19:44:17.976,7.778409120434656
2025-03-23 19:44:17.977,-2.726925987708554
2025-03-23 19:44:17.977,-10.699139189152744
2025-03-23 19:44:17.977,-7.842141969686426
2025-03-23 19:44:17.977,2.3006581749752018
2025-03-23 19:44:17.985,8.904935659315168
2025-03-23 19:44:17.985,6.11282480005461
2025-03-23 19:44:17.985,-1.8424354300309078
2025-03-23 19:44:17.985,-6.724570013275673
2025-03-23 19:44:17.986,-4.690590943022079
2025-03-23 19:44:17.995,1.4155800510795602
2025-03-23 19:44:17.995,5.745392626067721
2025-03-23 19:44:17.995,4.569601788052262
2025-03-23 19:44:17.996,-0.8259005295089052
2025-03-23 19:44:17.996,-5.385805895305332
2025-03-23 19:44:18.005,-4.945511868947846
2025-03-23 19:44:18.005,-0.14736002681109217
2025-03-23 19:44:18.005,4.37910800807707
2025-03-23 19:44:18.005,4.631729948968423
2025-03-23 19:44:18.006,0.8634461336162301
2025-03-23 19:44:18.015,-3.011633230939325
2025-03-23 19:44:18.015,-3.301705737134091
2025-03-23 19:44:18.015,-0.1556774685684647
2025-03-23 19:44:18.015,2.546517827998672
2025-03-23 19:44:18.025,1.4629773923359717
2025-03-23 19:44:18.025,-2.0323546240929327
2025-03-23 19:44:18.025,-3.12889696472732
2025-03-23 19:44:18.025,0.30217290479750347
2025-03-23 19:44:18.025,4.309042539193383
2025-03-23 19:44:18.035,3.4373374191606896
2025-03-23 19:44:18.035,-1.920903168739858
2025-03-23 19:44:18.035,-5.344421140647633
2025-03-23 19:44:18.035,-2.395647501946141
2025-03-23 19:44:18.035,3.4584343541141602
2025-03-23 19:44:18.044,5.059207936126244
2025-03-23 19:44:18.045,0.5525319283801786
2025-03-23 19:44:18.045,-4.483924743351346
2025-03-23 19:44:18.045,-4.189046758084749
2025-03-23 19:44:18.045,0.6566437777883354
2025-03-23 19:44:18.054,4.310459669413911
2025-03-23 19:44:18.055,3.2407407135185418
2025-03-23 19:44:18.055,-0.48470793567003145
2025-03-23 19:44:18.055,-2.776270107357684
2025-03-23 19:44:18.055,-2.3379313539395485
2025-03-23 19:44:18.064,-0.7879458624995616
2025-03-23 19:44:18.065,0.5592243902763109
2025-03-23 19:44:18.065,1.822803697929714
2025-03-23 19:44:18.065,2.5537585907126346
2025-03-23 19:44:18.065,1.1524912376149477
2025-03-23 19:44:18.073,-2.2021825311315664
2025-03-23 19:44:18.073,-4.034852391906384
2025-03-23 19:44:18.073,-1.570733922895782
2025-03-23 19:44:18.073,2.8262095569712926
2025-03-23 19:44:18.074,4.184692857836299
2025-03-23 19:44:18.083,1.4475705341644387
2025-03-23 19:44:18.083,-1.7398463856012012
2025-03-23 19:44:18.083,-2.697864047316316
2025-03-23 19:44:18.083,-2.411791627546015
2025-03-23 19:44:18.093,-1.7800303242678068
2025-03-23 19:44:18.093,0.6234392250931419
2025-03-23 19:44:18.093,4.61632582941935
2025-03-23 19:44:18.093,5.800519523649586
2025-03-23 19:44:18.093,0.8285205398315153
2025-03-23 19:44:18.103,-6.381041513251325
2025-03-23 19:44:18.103,-7.843572245455213
2025-03-23 19:44:18.103,-1.2587458505593987
2025-03-23 19:44:18.103,6.525133169924497
2025-03-23 19:44:18.103,7.221415093254484
2025-03-23 19:44:18.113,0.5658223397066093
2025-03-23 19:44:18.113,-5.707317120395656
2025-03-23 19:44:18.113,-4.927043368521901
2025-03-23 19:44:18.113,1.1635350166972185
2025-03-23 19:44:18.113,5.031749719222866
2025-03-23 19:44:18.123,2.4574138664310476
2025-03-23 19:44:18.123,-2.849851844012658
2025-03-23 19:44:18.123,-4.38751723593156
2025-03-23 19:44:18.123,-0.8818048187492189
2025-03-23 19:44:18.123,2.9178485802543417
2025-03-23 19:44:18.132,2.8890052296903925
2025-03-23 19:44:18.133,0.2737503336608341
2025-03-23 19:44:18.133,-1.2122522898519084
2025-03-23 19:44:18.133,-0.6763135724220998
2025-03-23 19:44:18.133,-0.15375882271875768
2025-03-23 19:44:18.141,-0.5970408003482592
2025-03-23 19:44:18.141,-0.6597865672156805
2025-03-23 19:44:18.141,0.3399685055480759
2025-03-23 19:44:18.142,0.9758045323164588
2025-03-23 19:44:18.142,0.317688785160916
2025-03-23 19:44:18.151,-0.38554526582008447
2025-03-23 19:44:18.151,-0.16918983740636478
2025-03-23 19:44:18.151,-0.18308849769855265
2025-03-23 19:44:18.151,-0.9960921745187145
2025-03-23 19:44:18.161,-0.5067821617969384
2025-03-23 19:44:18.161,2.4298556506597846
2025-03-23 19:44:18.161,4.323517560717615
2025-03-23 19:44:18.161,0.9646391176610724
2025-03-23 19:44:18.161,-5.700618734126477
2025-03-23 19:44:18.171,-8.400254498544854
2025-03-23 19:44:18.171,-2.874241984660313
2025-03-23 19:44:18.171,6.783099847962142
2025-03-23 19:44:18.171,11.661989103050864
2025-03-23 19:44:18.171,6.363080719642451
2025-03-23 19:44:18.179,-5.329222442985017
2025-03-23 19:44:18.179,-12.744873645251936
2025-03-23 19:44:18.179,-8.315177432664147
2025-03-23 19:44:18.180,3.740945140134492
2025-03-23 19:44:18.180,10.940946531526548
2025-03-23 19:44:18.189,6.251216925455586
2025-03-23 19:44:18.189,-3.910382086011047
2025-03-23 19:44:18.189,-7.590304348632047
2025-03-23 19:44:18.189,-1.5103170202765899
2025-03-23 19:44:18.199,5.815991032677459
2025-03-23 19:44:18.199,5.128370286724422
2025-03-23 19:44:18.199,-2.542443355943184
2025-03-23 19:44:18.199,-7.811453814254624
2025-03-23 19:44:18.199,-4.411467372697847
2025-03-23 19:44:18.209,3.8710306937106296
2025-03-23 19:44:18.209,8.11776681531866
2025-03-23 19:44:18.209,4.27152631675417
2025-03-23 19:44:18.209,-3.161664793646108
2025-03-23 19:44:18.209,-6.668311134891101
2025-03-23 19:44:18.219,-3.4903108754486367
2025-03-23 19:44:18.219,2.3979404312720316
2025-03-23 19:44:18.219,5.012555672458026
2025-03-23 19:44:18.219,2.2697998303890325
2025-03-23 19:44:18.219,-2.510352933481122
2025-03-23 19:44:18.229,-4.315234402028058
2025-03-23 19:44:18.229,-1.4644287730245973
2025-03-23 19:44:18.229,2.8806047356714632
2025-03-23 19:44:18.229,4.120238424182135
2025-03-23 19:44:18.229,1.0607274993488087
2025-03-23 19:44:18.239,-2.8575522789502115
2025-03-23 19:44:18.239,-3.3424216510263594
2025-03-23 19:44:18.239,-0.06671114798051198
2025-03-23 19:44:18.239,2.872998258948464
2025-03-23 19:44:18.239,1.7370334395863165
2025-03-23 19:44:18.248,-2.141924451496168
2025-03-23 19:44:18.249,-3.6366201129905162
2025-03-23 19:44:18.249,-0.10753949488616033
2025-03-23 19:44:18.249,4.870256054264773
2025-03-23 19:44:18.249,5.230985535773847
2025-03-23 19:44:18.258,-0.5211349825415735
2025-03-23 19:44:18.259,-7.031605011849797
2025-03-23 19:44:18.259,-7.2899202586597545
2025-03-23 19:44:18.259,-0.03432173553739182
2025-03-23 19:44:18.259,8.223194986466135
2025-03-23 19:44:18.267,9.154511938463635
2025-03-23 19:44:18.267,1.177800513448706
2025-03-23 19:44:18.267,-8.313717110490705
2025-03-23 19:44:18.268,-10.146712549136085
2025-03-23 19:44:18.268,-2.675219510301681
2025-03-23 19:44:18.277,6.879139879664518
2025-03-23 19:44:18.277,10.046943701697405
2025-03-23 19:44:18.277,4.870680753722878
2025-03-23 19:44:18.278,-3.6514216878291466
2025-03-23 19:44:18.278,-8.864239664601069
2025-03-23 19:44:18.287,-7.392313326505096
2025-03-23 19:44:18.287,-0.6644362630272282
2025-03-23 19:44:18.287,6.399309518227203
2025-03-23 19:44:18.287,8.60358251057582
2025-03-23 19:44:18.288,4.344754386231497
2025-03-23 19:44:18.297,-2.8157194289209757
2025-03-23 19:44:18.297,-7.092725545464345
2025-03-23 19:44:18.297,-5.650308005067234
2025-03-23 19:44:18.297,-0.7350151974438013
2025-03-23 19:44:18.307,3.289585875369216
2025-03-23 19:44:18.307,4.214554835991662
2025-03-23 19:44:18.307,2.8436553081306446
2025-03-23 19:44:18.307,0.6902981582223252
2025-03-23 19:44:18.307,-1.5239841299028323
2025-03-23 19:44:18.317,-3.072748386258078
2025-03-23 19:44:18.317,-2.7391656610565343
2025-03-23 19:44:18.317,-0.3261706161171014
2025-03-23 19:44:18.317,2.221813773945726
2025-03-23 19:44:18.318,2.53760029306391
2025-03-23 19:44:18.327,0.5322670084878651
2025-03-23 19:44:18.327,-1.5230590910976156
2025-03-23 19:44:18.327,-1.6073538347274243
2025-03-23 19:44:18.327,0.02725431306590942
2025-03-23 19:44:18.327,1.4768410353226158
2025-03-23 19:44:18.337,1.2824674728057934
2025-03-23 19:44:18.337,-0.2517075107633278
2025-03-23 19:44:18.337,-1.524782073170792
2025-03-23 19:44:18.337,-1.2756745048878084
2025-03-23 19:44:18.337,0.14319482785354354
2025-03-23 19:44:18.347,1.1496853066480113
2025-03-23 19:44:18.347,0.7066349735067435
2025-03-23 19:44:18.347,-0.438817524038678
2025-03-23 19:44:18.347,-0.6567743202700337
2025-03-23 19:44:18.347,0.4164041262140123
2025-03-23 19:44:18.357,1.2325578412362246
2025-03-23 19:44:18.357,0.35039297131484703
2025-03-23 19:44:18.357,-1.363009865058732
2025-03-23 19:44:18.357,-1.6052462924356674
2025-03-23 19:44:18.357,0.1753797950648209
2025-03-23 19:44:18.365,1.7307949319210216
2025-03-23 19:44:18.365,0.9793320164197931
2025-03-23 19:44:18.365,-1.0610578125906753
2025-03-23 19:44:18.366,-1.7171685107819636
2025-03-23 19:44:18.366,-0.36164415629112384
2025-03-23 19:44:18.377,1.125347421729302
2025-03-23 19:44:18.377,1.4155280796101302
2025-03-23 19:44:18.377,1.1805268111240335
2025-03-23 19:44:18.377,0.9591057093805648
2025-03-23 19:44:18.377,-0.29280186950073966
2025-03-23 19:44:18.386,-2.9672606423928656
2025-03-23 19:44:18.387,-4.571390042962603
2025-03-23 19:44:18.387,-2.06202285895455
2025-03-23 19:44:18.387,3.599825904816879
2025-03-23 19:44:18.387,7.212529391823423
2025-03-23 19:44:18.395,4.728684248397111
2025-03-23 19:44:18.395,-1.9768735160035937
2025-03-23 19:44:18.396,-6.824408264055246
2025-03-23 19:44:18.396,-5.811312081028806
2025-03-23 19:44:18.396,-0.6879758336584225
2025-03-23 19:44:18.407,3.684394630447768
2025-03-23 19:44:18.407,4.497632132932163
2025-03-23 19:44:18.407,2.6250587360709354
2025-03-23 19:44:18.407,0.03695232298318529
2025-03-23 19:44:18.407,-2.335209611737508
2025-03-23 19:44:18.417,-3.698960692891431
2025-03-23 19:44:18.417,-2.5290548014003362
2025-03-23 19:44:18.417,1.3871568124517433
2025-03-23 19:44:18.417,4.907890830094829
2025-03-23 19:44:18.417,3.9411556677334163
2025-03-23 19:44:18.425,-1.5011483517940523
2025-03-23 19:44:18.425,-6.24229366530104
2025-03-23 19:44:18.425,-5.177677033099914
2025-03-23 19:44:18.426,0.9835604521646835
2025-03-23 19:44:18.426,6.287358585854184
2025-03-23 19:44:18.435,5.806203835439098
2025-03-23 19:44:18.435,0.5076304738558092
2025-03-23 19:44:18.435,-4.319245286057426
2025-03-23 19:44:18.435,-4.679139640392334
2025-03-23 19:44:18.445,-1.3139866175226476
2025-03-23 19:44:18.445,1.9256025856702736
2025-03-23 19:44:18.445,2.213425723373857
2025-03-23 19:44:18.445,0.1442139084543358
2025-03-23 19:44:18.445,-1.4010370503968577
2025-03-23 19:44:18.455,-0.47385766704596194
2025-03-23 19:44:18.455,1.813049976757895
2025-03-23 19:44:18.455,2.5881117651999888
2025-03-23 19:44:18.455,0.7068779529550062
2025-03-23 19:44:18.455,-1.868881594563095
2025-03-23 19:44:18.465,-2.722695944254507
2025-03-23 19:44:18.465,-1.8956793036051434
2025-03-23 19:44:18.465,-0.8981088716079282
2025-03-23 19:44:18.465,0.1065248476732354
2025-03-23 19:44:18.465,2.0221901213711635
2025-03-23 19:44:18.475,4.046673237159493
2025-03-23 19:44:18.475,3.5985392917969956
2025-03-23 19:44:18.475,-0.1586118677142057
2025-03-23 19:44:18.475,-4.395969228564172
2025-03-23 19:44:18.475,-5.42091398479219
2025-03-23 19:44:18.485,-2.5687356810562716
2025-03-23 19:44:18.485,1.568631256939724
2025-03-23 19:44:18.485,4.105527066041684
2025-03-23 19:44:18.485,4.08351259060965
2025-03-23 19:44:18.485,2.1308201196325074
2025-03-23 19:44:18.495,-0.7877148130570197
2025-03-23 19:44:18.495,-3.5869469168266144
2025-03-23 19:44:18.495,-4.637144690515663
2025-03-23 19:44:18.495,-2.4860005025516525
2025-03-23 19:44:18.495,2.131590559079753
2025-03-23 19:44:18.505,5.625257874166337
2025-03-23 19:44:18.505,4.441346525775192
2025-03-23 19:44:18.505,-0.8094143056834515
2025-03-23 19:44:18.505,-5.28096492173271
2025-03-23 19:44:18.505,-4.9305600148672495
2025-03-23 19:44:18.515,-0.7350290288419747
2025-03-23 19:44:18.515,3.1716940083736787
2025-03-23 19:44:18.515,4.3569451711807305
2025-03-23 19:44:18.515,3.278002134600779
2025-03-23 19:44:18.515,0.7032392362772412
2025-03-23 19:44:18.525,-3.072565848775177
2025-03-23 19:44:18.525,-6.087824756940901
2025-03-23 19:44:18.525,-4.846058992667375
2025-03-23 19:44:18.525,1.2841506027977305
2025-03-23 19:44:18.525,7.338982480202218
2025-03-23 19:44:18.533,7.077525756779613
2025-03-23 19:44:18.533,0.26289938515804767
2025-03-23 19:44:18.534,-6.2943604385106
2025-03-23 19:44:18.534,-6.121499236118341
2025-03-23 19:44:18.534,-0.38071105970735225
2025-03-23 19:44:18.545,3.9538540766911625
2025-03-23 19:44:18.545,2.781372453528386
2025-03-23 19:44:18.545,-0.7971027795644737
2025-03-23 19:44:18.545,-1.7493255560449217
2025-03-23 19:44:18.545,0.10150043817082957
2025-03-23 19:44:18.555,1.2471848141402238
2025-03-23 19:44:18.555,0.4965952934782982
2025-03-23 19:44:18.555,-0.05120412460612615
2025-03-23 19:44:18.555,0.4267850526504682
2025-03-23 19:44:18.555,-0.024671041562708496
2025-03-23 19:44:18.565,-2.0937511918071063
2025-03-23 19:44:18.565,-3.0474677530099674
2025-03-23 19:44:18.565,-0.6107070804938084
2025-03-23 19:44:18.565,3.194059674308459
2025-03-23 19:44:18.565,4.3027781463833135
2025-03-23 19:44:18.573,1.6532806412488714
2025-03-23 19:44:18.573,-1.8810209898434882
2025-03-23 19:44:18.574,-3.18714946553488
2025-03-23 19:44:18.574,-2.0022371764178613
2025-03-23 19:44:18.574,-0.19496835288684133
2025-03-23 19:44:18.583,0.812905288701545
2025-03-23 19:44:18.583,1.1220552658180905
2025-03-23 19:44:18.583,1.2395742346535594
2025-03-23 19:44:18.584,0.8781328193147001
2025-03-23 19:44:18.584,-0.4036398534925093
2025-03-23 19:44:18.593,-1.7025147752872205
2025-03-23 19:44:18.593,-1.2194673339697883
2025-03-23 19:44:18.594,1.1483101122055928
2025-03-23 19:44:18.594,2.797617914950772
2025-03-23 19:44:18.594,1.320864735424333
2025-03-23 19:44:18.603,-2.1534409259577942
2025-03-23 19:44:18.603,-3.9816253739373595
2025-03-23 19:44:18.603,-2.262164211302175
2025-03-23 19:44:18.604,1.2502739315593034
2025-03-23 19:44:18.613,3.5801522236143835
2025-03-23 19:44:18.613,3.4986496976677888
2025-03-23 19:44:18.613,1.5643490756361809
2025-03-23 19:44:18.613,-1.3244237379789088
2025-03-23 19:44:18.614,-3.968319958261289
2025-03-23 19:44:18.623,-4.288083149837487
2025-03-23 19:44:18.623,-0.9545423281269103
2025-03-23 19:44:18.623,3.8437403667305285
2025-03-23 19:44:18.623,5.313186800280085
2025-03-23 19:44:18.624,1.4152673465936134
2025-03-23 19:44:18.633,-3.8838331492411053
2025-03-23 19:44:18.633,-4.754321251843057
2025-03-23 19:44:18.633,-0.4265217837119548
2025-03-23 19:44:18.633,4.042287037305852
2025-03-23 19:44:18.633,3.9551483713420197
2025-03-23 19:44:18.643,-0.026571722209876525
2025-03-23 19:44:18.643,-3.609035444043769
2025-03-23 19:44:18.643,-3.82939191731337
2025-03-23 19:44:18.643,-1.179272398273461
2025-03-23 19:44:18.644,2.0153969157365066
2025-03-23 19:44:18.653,3.7686290584775266
2025-03-23 19:44:18.653,3.204989293916323
2025-03-23 19:44:18.653,0.5668174161300119
2025-03-23 19:44:18.653,-2.722935042443568
2025-03-23 19:44:18.653,-4.421669041186357
2025-03-23 19:44:18.663,-2.9396600385576592
2025-03-23 19:44:18.663,0.9088676204972638
2025-03-23 19:44:18.663,4.023522788481048
2025-03-23 19:44:18.663,3.7497979785218414
2025-03-23 19:44:18.663,0.604854649834718
2025-03-23 19:44:18.671,-2.362468362143068
2025-03-23 19:44:18.671,-2.94071328137221
2025-03-23 19:44:18.671,-1.5916456248303965
2025-03-23 19:44:18.672,0.15956344163306385
2025-03-23 19:44:18.672,1.6827200300292424
2025-03-23 19:44:18.681,2.647755648715037
2025-03-23 19:44:18.681,1.9162559670041976
2025-03-23 19:44:18.681,-0.9634322660434125
2025-03-23 19:44:18.681,-3.6651597772482725
2025-03-23 19:44:18.682,-2.910150917438357
2025-03-23 19:44:18.691,0.9930573239025081
2025-03-23 19:44:18.691,3.6088946008164116
2025-03-23 19:44:18.692,1.8482538177638104
2025-03-23 19:44:18.692,-1.703686241849952
2025-03-23 19:44:18.701,-2.1117107940569486
2025-03-23 19:44:18.701,1.1131718250109492
2025-03-23 19:44:18.701,3.1610605919033072
2025-03-23 19:44:18.701,0.37293281662442357
2025-03-23 19:44:18.702,-4.531349908934562
2025-03-23 19:44:18.711,-5.310812281928789
2025-03-23 19:44:18.711,0.20195895393263738
2025-03-23 19:44:18.711,6.821861835778533
2025-03-23 19:44:18.711,7.23939348096256
2025-03-23 19:44:18.711,0.31788424319191433
2025-03-23 19:44:18.721,-7.0490829039436464
2025-03-23 19:44:18.721,-7.321124032371441
2025-03-23 19:44:18.721,-0.726576158586443
2025-03-23 19:44:18.721,5.334169667594244
2025-03-23 19:44:18.721,5.044104125923276
2025-03-23 19:44:18.731,0.22776158445454026
2025-03-23 19:44:18.731,-3.058348522858524
2025-03-23 19:44:18.731,-2.0025033391788196
2025-03-23 19:44:18.731,0.7694361189241267
2025-03-23 19:44:18.731,1.6067934587679753
2025-03-23 19:44:18.741,0.175843355753815
2025-03-23 19:44:18.741,-1.1963114755232724
2025-03-23 19:44:18.741,-0.9648975128117797
2025-03-23 19:44:18.741,0.18474261004023473
2025-03-23 19:44:18.741,0.8240849771875606
2025-03-23 19:44:18.751,0.4674011353522912
2025-03-23 19:44:18.751,-0.3543737277825196
2025-03-23 19:44:18.751,-0.8181079186312237
2025-03-23 19:44:18.751,-0.3131759309981686
2025-03-23 19:44:18.751,1.054745862864386
2025-03-23 19:44:18.759,2.0720260999567706
2025-03-23 19:44:18.759,1.2302647373727256
2025-03-23 19:44:18.760,-1.3989559288704287
2025-03-23 19:44:18.760,-3.5526422933847703
2025-03-23 19:44:18.760,-2.877827142215053
2025-03-23 19:44:18.769,0.3717266744063344
2025-03-23 19:44:18.769,3.3827591035568796
2025-03-23 19:44:18.770,3.6709395366801076
2025-03-23 19:44:18.770,1.4236656746698713
2025-03-23 19:44:18.770,-1.211608149419146
2025-03-23 19:44:18.779,-2.538682467938663
2025-03-23 19:44:18.779,-2.41792954457215
2025-03-23 19:44:18.779,-1.393817889099282
2025-03-23 19:44:18.779,0.217460371744616
2025-03-23 19:44:18.789,1.9738821605791723
2025-03-23 19:44:18.789,2.7714892859356266
2025-03-23 19:44:18.789,1.6099580203643113
2025-03-23 19:44:18.789,-0.9524623540179467
2025-03-23 19:44:18.790,-2.740409782110162
2025-03-23 19:44:18.799,-1.9842131288582536
2025-03-23 19:44:18.799,0.5994357959842069
2025-03-23 19:44:18.799,2.273426492737624
2025-03-23 19:44:18.799,1.2179797392467908
2025-03-23 19:44:18.799,-1.2565732157276384
2025-03-23 19:44:18.809,-2.0743484093035045
2025-03-23 19:44:18.809,-0.10298942241562825
2025-03-23 19:44:18.809,2.2533806024288263
2025-03-23 19:44:18.809,1.8945204421479767
2025-03-23 19:44:18.809,-0.9886238141469323
2025-03-23 19:44:18.819,-2.9387317548327485
2025-03-23 19:44:18.819,-1.4582512565281325
2025-03-23 19:44:18.819,1.9016797660917644
2025-03-23 19:44:18.819,3.4222983064166668
2025-03-23 19:44:18.819,1.474475927748458
2025-03-23 19:44:18.829,-1.9886288795717526
2025-03-23 19:44:18.829,-3.8099333015197057
2025-03-23 19:44:18.829,-2.6101130771840264
2025-03-23 19:44:18.829,0.490355750000544
2025-03-23 19:44:18.829,3.224410511096286
2025-03-23 19:44:18.839,3.8917147855207563
2025-03-23 19:44:18.839,2.22989022536507
2025-03-23 19:44:18.839,-0.7642664189537056
2025-03-23 19:44:18.839,-3.523651840138814
2025-03-23 19:44:18.839,-4.482097800517079
2025-03-23 19:44:18.849,-2.6897907360973035
2025-03-23 19:44:18.849,1.1711741163275107
2025-03-23 19:44:18.849,4.491118024474385
2025-03-23 19:44:18.849,4.665036398812481
2025-03-23 19:44:18.849,1.7376270397929012
2025-03-23 19:44:18.859,-1.770857379868181
2025-03-23 19:44:18.859,-3.7334147547731256
2025-03-23 19:44:18.859,-3.8190764535290205
2025-03-23 19:44:18.859,-2.155420922317425
2025-03-23 19:44:18.859,1.1864080456613537
2025-03-23 19:44:18.868,4.582125316073673
2025-03-23 19:44:18.869,4.919035765303272
2025-03-23 19:44:18.869,1.0021143452402974
2025-03-23 19:44:18.869,-4.148087489403295
2025-03-23 19:44:18.869,-5.86129931533711
2025-03-23 19:44:18.879,-2.4676596617926614
2025-03-23 19:44:18.879,3.1133147840692152
2025-03-23 19:44:18.879,6.039112697918199
2025-03-23 19:44:18.879,3.7140516233457657
2025-03-23 19:44:18.879,-1.9062960131610869
2025-03-23 19:44:18.887,-5.82838969259859
2025-03-23 19:44:18.887,-4.515101327466606
2025-03-23 19:44:18.888,0.6163871634132732
2025-03-23 19:44:18.888,4.534855372809808
2025-03-23 19:44:18.888,3.783403444309893
2025-03-23 19:44:18.897,-0.028296926154667168
2025-03-23 19:44:18.897,-2.3588119053637486
2025-03-23 19:44:18.898,-1.0308148732766909
2025-03-23 19:44:18.898,1.440681914632064
2025-03-23 19:44:18.898,1.1426000414671722
2025-03-23 19:44:18.907,-2.2355814235320204
2025-03-23 19:44:18.907,-4.663909268797779
2025-03-23 19:44:18.907,-2.3783707953533733
2025-03-23 19:44:18.908,3.4033491829123808
2025-03-23 19:44:18.917,7.267414042991984
2025-03-23 19:44:18.917,5.209453131854865
2025-03-23 19:44:18.917,-1.2436524666308997
2025-03-23 19:44:18.917,-6.765831807181658
2025-03-23 19:44:18.917,-7.2755330551823265
2025-03-23 19:44:18.927,-2.8072908251195576
2025-03-23 19:44:18.927,3.385616112327943
2025-03-23 19:44:18.927,7.154775290813536
2025-03-23 19:44:18.927,5.749260651212006
2025-03-23 19:44:18.927,0.015809035325024645
2025-03-23 19:44:18.937,-5.379151940534347
2025-03-23 19:44:18.937,-5.725170104266989
2025-03-23 19:44:18.937,-1.1060219981328168
2025-03-23 19:44:18.937,3.5481865640737325
2025-03-23 19:44:18.937,3.778472025390477
2025-03-23 19:44:18.947,0.17037324104501622
2025-03-23 19:44:18.947,-2.7777029932284507
2025-03-23 19:44:18.947,-1.7952433948741842
2025-03-23 19:44:18.947,1.5367081209799838
2025-03-23 19:44:18.947,2.5416968238301836
2025-03-23 19:44:18.957,-0.6899320630911812
2025-03-23 19:44:18.957,-3.8989496594195114
2025-03-23 19:44:18.957,-1.3908151270070197
2025-03-23 19:44:18.957,5.358069610422798
2025-03-23 19:44:18.957,7.294928086953654
2025-03-23 19:44:18.965,-0.8866759946322461
2025-03-23 19:44:18.965,-11.454726234142177
2025-03-23 19:44:18.965,-10.948634208217479
2025-03-23 19:44:18.965,2.69666007613514
2025-03-23 19:44:18.973,15.479266280659331
2025-03-23 19:44:18.973,13.009025532872183
2025-03-23 19:44:18.973,-2.3854237097668425
2025-03-23 19:44:18.974,-14.54521725311591
2025-03-23 19:44:18.983,-12.153438094514998
2025-03-23 19:44:18.983,0.05009378949652887
2025-03-23 19:44:18.984,9.15289675300068
2025-03-23 19:44:18.984,8.673752792324896
2025-03-23 19:44:18.984,2.5537396572337494
2025-03-23 19:44:18.993,-2.5070304643817547
2025-03-23 19:44:18.993,-4.206048048090354
2025-03-23 19:44:18.993,-3.8775581299071975
2025-03-23 19:44:18.993,-2.3693058581508026
2025-03-23 19:44:18.994,0.5262288543943558
2025-03-23 19:44:19.003,3.6894197979607797
2025-03-23 19:44:19.003,4.522062988872629
2025-03-23 19:44:19.003,1.889052016701177
2025-03-23 19:44:19.003,-2.2144938464808086
2025-03-23 19:44:19.003,-4.651486164608052
2025-03-23 19:44:19.013,-3.903264421752665
2025-03-23 19:44:19.013,-0.5468692071143053
2025-03-23 19:44:19.013,3.606063043336472
2025-03-23 19:44:19.013,5.937758650323992
2025-03-23 19:44:19.013,4.0511166377230925
2025-03-23 19:44:19.023,-1.680679548220537
2025-03-23 19:44:19.023,-6.923271242921262
2025-03-23 19:44:19.023,-6.708780582794691
2025-03-23 19:44:19.023,-0.7248673667784925
2025-03-23 19:44:19.024,5.765438804310175
2025-03-23 19:44:19.033,7.07899867240488
2025-03-23 19:44:19.033,2.6279575047920307
2025-03-23 19:44:19.033,-3.1630973176926034
2025-03-23 19:44:19.033,-5.572860431858495
2025-03-23 19:44:19.033,-3.379755422783159
2025-03-23 19:44:19.043,1.1070047962374243
2025-03-23 19:44:19.043,4.211667962306778
2025-03-23 19:44:19.043,3.3648819385414495
2025-03-23 19:44:19.043,-0.7670362232263388
2025-03-23 19:44:19.043,-4.182817809736836
2025-03-23 19:44:19.053,-3.148698901061624
2025-03-23 19:44:19.053,1.3569533182245062
2025-03-23 19:44:19.053,4.290640890525178
2025-03-23 19:44:19.053,2.6077899389678607
2025-03-23 19:44:19.053,-1.0541718651771723
2025-03-23 19:44:19.063,-2.412573948952519
2025-03-23 19:44:19.063,-1.394443669795181
2025-03-23 19:44:19.063,-1.0498066269701096
2025-03-23 19:44:19.063,-1.74379941268335
2025-03-23 19:44:19.063,-0.4286448711471957
2025-03-23 19:44:19.071,3.6054944517336143
2025-03-23 19:44:19.071,5.966791320753225
2025-03-23 19:44:19.072,2.5636453237243755
2025-03-23 19:44:19.072,-4.231895944425901
2025-03-23 19:44:19.072,-7.602744095339001
2025-03-23 19:44:19.081,-4.1751980948024645
2025-03-23 19:44:19.081,2.252877618812371
2025-03-23 19:44:19.082,5.501322510727028
2025-03-23 19:44:19.082,3.909670429122854
2025-03-23 19:44:19.082,0.8903046691119388
2025-03-23 19:44:19.091,-0.5863314177190605
2025-03-23 19:44:19.091,-1.4498300717024724
2025-03-23 19:44:19.091,-3.425942479557486
2025-03-23 19:44:19.092,-4.772896134412737
2025-03-23 19:44:19.101,-1.9981773931866105
2025-03-23 19:44:19.101,4.400816658733957
2025-03-23 19:44:19.101,8.591233875852248
2025-03-23 19:44:19.101,5.308829294699493
2025-03-23 19:44:19.101,-3.703310069997424
2025-03-23 19:44:19.109,-10.423662709650323
2025-03-23 19:44:19.109,-8.159096527185827
2025-03-23 19:44:19.109,1.6225224215337286
2025-03-23 19:44:19.110,10.268875200590882
2025-03-23 19:44:19.119,10.065438948060429
2025-03-23 19:44:19.119,1.5012944836318016
2025-03-23 19:44:19.119,-7.60589343618982
2025-03-23 19:44:19.119,-9.87092935967601
2025-03-23 19:44:19.120,-4.711321555405937
2025-03-23 19:44:19.129,2.576706394301045
2025-03-23 19:44:19.129,6.630534854507248
2025-03-23 19:44:19.129,6.086925781863225
2025-03-23 19:44:19.129,2.849920959265984
2025-03-23 19:44:19.129,-0.8936206267945508
2025-03-23 19:44:19.137,-4.139849864383997
2025-03-23 19:44:19.137,-6.169626824136458
2025-03-23 19:44:19.138,-5.399195896682544
2025-03-23 19:44:19.138,-0.43556006026870386
2025-03-23 19:44:19.138,6.870727369047194
2025-03-23 19:44:19.147,10.430735343121894
2025-03-23 19:44:19.147,4.907935295909471
2025-03-23 19:44:19.147,-6.728211569276225
2025-03-23 19:44:19.147,-13.26902121528351
2025-03-23 19:44:19.157,-6.681288139319588
2025-03-23 19:44:19.157,7.156787422154132
2025-03-23 19:44:19.157,13.415353973824931
2025-03-23 19:44:19.157,5.326476013379924
2025-03-23 19:44:19.157,-7.513067940748823
2025-03-23 19:44:19.165,-10.682667619979927
2025-03-23 19:44:19.165,-2.0868050326717564
2025-03-23 19:44:19.166,6.672347724252901
2025-03-23 19:44:19.166,5.522747446676454
2025-03-23 19:44:19.175,-2.125902324083409
2025-03-23 19:44:19.175,-5.0944895803884656
2025-03-23 19:44:19.176,0.6910099619047092
2025-03-23 19:44:19.176,7.205190907539904
2025-03-23 19:44:19.176,4.734669121055102
2025-03-23 19:44:19.185,-5.677020011231541
2025-03-23 19:44:19.185,-12.626996836637808
2025-03-23 19:44:19.185,-6.981467497124718
2025-03-23 19:44:19.185,7.381392438047603
2025-03-23 19:44:19.185,16.564297190512065
2025-03-23 19:44:19.193,10.717437695706268
2025-03-23 19:44:19.193,-5.419979504015287
2025-03-23 19:44:19.194,-16.89420257523939
2025-03-23 19:44:19.194,-13.355372280938894
2025-03-23 19:44:19.203,1.2767883075094746
2025-03-23 19:44:19.203,13.55849036201529
2025-03-23 19:44:19.203,13.462574658133722
2025-03-23 19:44:19.203,2.552555123295937
2025-03-23 19:44:19.203,-8.825903924068129
2025-03-23 19:44:19.213,-11.246153837933374
2025-03-23 19:44:19.213,-4.056762030011967
2025-03-23 19:44:19.213,4.956002697657734
2025-03-23 19:44:19.213,7.509888636359404
2025-03-23 19:44:19.213,2.786918457198145
2025-03-23 19:44:19.223,-2.701257632115348
2025-03-23 19:44:19.223,-3.109371626083565
2025-03-23 19:44:19.223,0.2561413986271806
2025-03-23 19:44:19.223,1.6787529892643287
2025-03-23 19:44:19.223,-0.9434808518376161
2025-03-23 19:44:19.233,-3.4813510588567675
2025-03-23 19:44:19.233,-1.507270907706208
2025-03-23 19:44:19.233,3.532173960744805
2025-03-23 19:44:19.233,5.89316576744918
2025-03-23 19:44:19.234,2.33844519709245
2025-03-23 19:44:19.243,-4.17540156067128
2025-03-23 19:44:19.243,-7.454058176023935
2025-03-23 19:44:19.243,-4.017485692360278
2025-03-23 19:44:19.243,3.473944259214695
2025-03-23 19:44:19.243,8.227521870397895
2025-03-23 19:44:19.253,5.491515835483493
2025-03-23 19:44:19.253,-2.434733627387721
2025-03-23 19:44:19.253,-7.924375011542787
2025-03-23 19:44:19.253,-5.715360726604754
2025-03-23 19:44:19.253,1.5188678242945883
2025-03-23 19:44:19.261,6.315481263782045
2025-03-23 19:44:19.261,4.693641600933617
2025-03-23 19:44:19.261,-0.32036020431433915
2025-03-23 19:44:19.262,-3.471751515089259
2025-03-23 19:44:19.262,-3.2863438000636727
2025-03-23 19:44:19.271,-1.8011180043787633
2025-03-23 19:44:19.271,-0.222020460020155
2025-03-23 19:44:19.272,2.089947245734008
2025-03-23 19:44:19.272,4.449463898651455
2025-03-23 19:44:19.272,3.8904913851596064
2025-03-23 19:44:19.281,-0.828819987103662
2025-03-23 19:44:19.281,-6.025750048138422
2025-03-23 19:44:19.281,-6.265618375070905
2025-03-23 19:44:19.281,-0.6800314766694648
2025-03-23 19:44:19.291,5.465878455271183
2025-03-23 19:44:19.291,6.236269222208613
2025-03-23 19:44:19.291,1.4391893321040046
2025-03-23 19:44:19.291,-3.3513428429722536
2025-03-23 19:44:19.292,-3.4064649299730223
2025-03-23 19:44:19.301,-0.3185180287072224
2025-03-23 19:44:19.301,0.7423660783992727
2025-03-23 19:44:19.301,-1.3669388051463633
2025-03-23 19:44:19.301,-2.063876553445573
2025-03-23 19:44:19.301,1.6892092682197997
2025-03-23 19:44:19.311,5.7309764580707725
2025-03-23 19:44:19.311,3.8863178465853316
2025-03-23 19:44:19.311,-2.938765224467374
2025-03-23 19:44:19.311,-7.210857887939469
2025-03-23 19:44:19.312,-4.366518571739602
2025-03-23 19:44:19.321,1.9755229419573483
2025-03-23 19:44:19.321,5.474720016216506
2025-03-23 19:44:19.321,4.30588907948362
2025-03-23 19:44:19.321,0.9769392541561561
2025-03-23 19:44:19.321,-2.250028011411644
2025-03-23 19:44:19.331,-4.609637319602652
2025-03-23 19:44:19.331,-4.750749886080755
2025-03-23 19:44:19.331,-1.03295607042234
2025-03-23 19:44:19.331,5.022843559134226
2025-03-23 19:44:19.331,8.018419888008648
2025-03-23 19:44:19.341,3.9218193184781067
2025-03-23 19:44:19.341,-4.36386407489901
2025-03-23 19:44:19.341,-8.992044344111449
2025-03-23 19:44:19.341,-5.5965930885761805
2025-03-23 19:44:19.341,1.9249144460997911
2025-03-23 19:44:19.351,6.285912867347994
2025-03-23 19:44:19.351,4.919890652389073
2025-03-23 19:44:19.351,1.2361091942655353
2025-03-23 19:44:19.351,-1.0802185671153948
2025-03-23 19:44:19.351,-1.9888041699280414
2025-03-23 19:44:19.359,-2.8667291649031825
2025-03-23 19:44:19.359,-3.196653263911525
2025-03-23 19:44:19.360,-1.4823621933476707
2025-03-23 19:44:19.360,1.8137584660363817
2025-03-23 19:44:19.360,4.198040824436617
2025-03-23 19:44:19.369,3.749369558359363
2025-03-23 19:44:19.369,0.7296680015948929
2025-03-23 19:44:19.369,-2.8796356002841965
2025-03-23 19:44:19.369,-4.522911714252202
2025-03-23 19:44:19.379,-2.636918987499146
2025-03-23 19:44:19.379,1.5567821762550262
2025-03-23 19:44:19.379,4.391857611750732
2025-03-23 19:44:19.379,3.228588007150967
2025-03-23 19:44:19.380,-0.6869813235969066
2025-03-23 19:44:19.389,-3.6927122393472978
2025-03-23 19:44:19.389,-3.4624060002127584
2025-03-23 19:44:19.389,-0.5787207064039862
2025-03-23 19:44:19.390,2.6240175220650204
2025-03-23 19:44:19.390,3.717324108668067
2025-03-23 19:44:19.399,1.693288479462762
2025-03-23 19:44:19.399,-1.738869818042905
2025-03-23 19:44:19.399,-3.0661182202062944
2025-03-23 19:44:19.399,-0.8062665278171214
2025-03-23 19:44:19.400,1.9937059007514153
2025-03-23 19:44:19.409,1.1310974203494544
2025-03-23 19:44:19.409,-2.715252890262532
2025-03-23 19:44:19.409,-3.8781070219960645
2025-03-23 19:44:19.409,0.8420470171282852
2025-03-23 19:44:19.409,6.786602108403881
2025-03-23 19:44:19.419,6.356537664639131
2025-03-23 19:44:19.419,-1.3014496864523624
2025-03-23 19:44:19.419,-8.425006642142781
2025-03-23 19:44:19.419,-7.363541301707945
2025-03-23 19:44:19.419,0.63895636960677
2025-03-23 19:44:19.429,6.967620679348237
2025-03-23 19:44:19.429,5.436473726848608
2025-03-23 19:44:19.429,-1.045777915267359
2025-03-23 19:44:19.429,-4.446265918954421
2025-03-23 19:44:19.429,-1.2982385767225355
2025-03-23 19:44:19.437,3.5151440975227417
2025-03-23 19:44:19.437,3.2724777484629115
2025-03-23 19:44:19.437,-2.1264841583245437
2025-03-23 19:44:19.438,-6.251928059685493
2025-03-23 19:44:19.438,-4.123699714313507
2025-03-23 19:44:19.447,2.1846902088222304
2025-03-23 19:44:19.447,6.542474087906378
2025-03-23 19:44:19.447,5.5578687128416036
2025-03-23 19:44:19.448,0.9895844371293852
2025-03-23 19:44:19.448,-3.4750639086971287
2025-03-23 19:44:19.457,-5.661338629453719
2025-03-23 19:44:19.457,-4.93660965387934
2025-03-23 19:44:19.458,-1.1676170856621062
2025-03-23 19:44:19.458,4.254035713473265
2025-03-23 19:44:19.458,7.323150837815984
2025-03-23 19:44:19.467,4.33873657827907
2025-03-23 19:44:19.467,-3.001934259467135
2025-03-23 19:44:19.468,-7.610287153317678
2025-03-23 19:44:19.468,-4.348559197849617
2025-03-23 19:44:19.477,3.4268581525714072
2025-03-23 19:44:19.477,6.990344560614188
2025-03-23 19:44:19.477,2.253131935190003
2025-03-23 19:44:19.478,-5.296825022300401
2025-03-23 19:44:19.478,-6.901709690785618
2025-03-23 19:44:19.487,-0.5922432649392202
2025-03-23 19:44:19.487,6.8356378565701625
2025-03-23 19:44:19.487,7.641590672235744
2025-03-23 19:44:19.488,1.1344981609206817
2025-03-23 19:44:19.488,-6.52803861435164
2025-03-23 19:44:19.497,-8.73284009849613
2025-03-23 19:44:19.497,-3.690117925743793
2025-03-23 19:44:19.497,4.7443264371295655
2025-03-23 19:44:19.497,9.683833736714865
2025-03-23 19:44:19.498,6.265074258236391
2025-03-23 19:44:19.507,-3.144246433146416
2025-03-23 19:44:19.507,-9.549137049027264
2025-03-23 19:44:19.507,-6.270691074885189
2025-03-23 19:44:19.507,2.765257397284594
2025-03-23 19:44:19.508,7.07552998154894
2025-03-23 19:44:19.517,2.5491223995385948
2025-03-23 19:44:19.517,-3.5735046889439137
2025-03-23 19:44:19.517,-2.7323140655951152
2025-03-23 19:44:19.517,3.4464070141495102
2025-03-23 19:44:19.517,5.590971178556071
2025-03-23 19:44:19.525,-0.7298544854407399
2025-03-23 19:44:19.525,-8.829861785684113
2025-03-23 19:44:19.526,-8.69683798353826
2025-03-23 19:44:19.526,1.1422436638998241
2025-03-23 19:44:19.535,11.41678062566912
2025-03-23 19:44:19.535,11.583461507133277
2025-03-23 19:44:19.535,0.7142426483748715
2025-03-23 19:44:19.535,-11.16369815439153
2025-03-23 19:44:19.535,-12.626946224970258
2025-03-23 19:44:19.543,-2.220833016746299
2025-03-23 19:44:19.543,9.739192020821454
2025-03-23 19:44:19.543,11.487312792813677
2025-03-23 19:44:19.544,1.958979625800292
2025-03-23 19:44:19.553,-8.460387029626737
2025-03-23 19:44:19.553,-9.41007590901082
2025-03-23 19:44:19.553,-1.0673163311066711
2025-03-23 19:44:19.554,7.462327784178055
2025-03-23 19:44:19.554,8.220386765439281
2025-03-23 19:44:19.563,1.3020457889249495
2025-03-23 19:44:19.563,-6.614976241564808
2025-03-23 19:44:19.563,-8.485025101626404
2025-03-23 19:44:19.563,-2.6047024332872044
2025-03-23 19:44:19.563,5.707498262669149
2025-03-23 19:44:19.573,8.538686053953747
2025-03-23 19:44:19.573,3.319902889115939
2025-03-23 19:44:19.573,-4.083099088250938
2025-03-23 19:44:19.573,-6.041339739666775
2025-03-23 19:44:19.573,-2.145823788264958
2025-03-23 19:44:19.583,1.3186644287750027
2025-03-23 19:44:19.583,0.6671483035556043
2025-03-23 19:44:19.583,-0.5468875661757764
2025-03-23 19:44:19.583,1.8282860969041559
2025-03-23 19:44:19.583,5.084328457044259
2025-03-23 19:44:19.591,3.200078753782954
2025-03-23 19:44:19.591,-3.667717121594061
2025-03-23 19:44:19.592,-8.116488924368806
2025-03-23 19:44:19.592,-4.786508365879824
2025-03-23 19:44:19.592,2.970437917134171
2025-03-23 19:44:19.601,7.516314764674112
2025-03-23 19:44:19.601,5.468569981158232
