timestamp,bandpass_and_notch
2025-03-23 19:34:34.872,0.28805344383533427
2025-03-23 19:34:34.872,-4.682448105185691
2025-03-23 19:34:34.872,-5.5514124459544325
2025-03-23 19:34:34.872,-3.58014066115757
2025-03-23 19:34:34.873,-2.3227501354392603
2025-03-23 19:34:35.874,-2.3334234037943222
2025-03-23 19:34:36.434,-0.9740486762281059
2025-03-23 19:34:36.434,3.1596038135891247
2025-03-23 19:34:36.434,5.050766244311559
2025-03-23 19:34:36.434,-3.5366081703727867
2025-03-23 19:34:36.443,-18.885807357965582
2025-03-23 19:34:36.443,-19.555448463749276
2025-03-23 19:34:36.443,8.878270330151297
2025-03-23 19:34:36.443,44.54419494793274
2025-03-23 19:34:36.444,44.35123952848007
2025-03-23 19:34:36.451,-3.220305926177618
2025-03-23 19:34:36.452,-55.307936344111255
2025-03-23 19:34:36.452,-58.61652160085809
2025-03-23 19:34:36.452,-9.33695229736195
2025-03-23 19:34:36.459,44.097808792682024
2025-03-23 19:34:36.460,55.396713103855674
2025-03-23 19:34:36.460,24.265628661821385
2025-03-23 19:34:36.460,-15.054098193636648
2025-03-23 19:34:36.460,-34.22042878768393
2025-03-23 19:34:36.469,-30.212885243860537
2025-03-23 19:34:36.469,-13.790881925889787
2025-03-23 19:34:36.469,5.739942169524029
2025-03-23 19:34:36.470,21.546194144230427
2025-03-23 19:34:36.477,25.74621613456508
2025-03-23 19:34:36.478,14.117018193808804
2025-03-23 19:34:36.478,-6.488144221513355
2025-03-23 19:34:36.478,-21.12933241433572
2025-03-23 19:34:36.487,-19.754326519248295
2025-03-23 19:34:36.487,-5.946954210075164
2025-03-23 19:34:36.488,7.962073666184416
2025-03-23 19:34:36.488,12.94693747514909
2025-03-23 19:34:36.488,9.415903970302898
2025-03-23 19:34:36.497,3.1664592198334987
2025-03-23 19:34:36.497,-1.6729789317373205
2025-03-23 19:34:36.497,-4.707176253360844
2025-03-23 19:34:36.498,-6.346638018514618
2025-03-23 19:34:36.498,-5.5537794330575
2025-03-23 19:34:36.507,-1.4260765411623872
2025-03-23 19:34:36.507,4.1190223625921
2025-03-23 19:34:36.507,6.927236842722365
2025-03-23 19:34:36.508,4.582920388720558
2025-03-23 19:34:36.508,-0.7828021457380229
2025-03-23 19:34:36.517,-4.485412261059641
2025-03-23 19:34:36.517,-3.9708953154426814
2025-03-23 19:34:36.518,-0.8489127586743306
2025-03-23 19:34:36.518,1.5430044169891346
2025-03-23 19:34:36.518,1.6135438551544476
2025-03-23 19:34:36.527,0.36578096599799115
2025-03-23 19:34:36.527,-0.3402631701399339
2025-03-23 19:34:36.528,0.1879543395834563
2025-03-23 19:34:36.528,0.9449060507308082
2025-03-23 19:34:36.528,0.5224142876976361
2025-03-23 19:34:36.537,-1.0693928113880045
2025-03-23 19:34:36.537,-2.1789952898918936
2025-03-23 19:34:36.537,-1.3564530479292125
2025-03-23 19:34:36.538,0.9026899972448711
2025-03-23 19:34:36.538,2.617393708309524
2025-03-23 19:34:36.545,2.3498431998778737
2025-03-23 19:34:36.546,0.4537816332602608
2025-03-23 19:34:36.546,-1.6067033332434852
2025-03-23 19:34:36.546,-2.7103154750893603
2025-03-23 19:34:36.546,-2.519533278102063
2025-03-23 19:34:36.555,-0.9163858755840536
2025-03-23 19:34:36.556,1.903092089228308
2025-03-23 19:34:36.556,4.39691085682391
2025-03-23 19:34:36.556,3.9948186772410703
2025-03-23 19:34:36.556,-0.10871668640064613
2025-03-23 19:34:36.565,-4.87636483118716
2025-03-23 19:34:36.566,-5.7891868007892056
2025-03-23 19:34:36.566,-1.7642133843844325
2025-03-23 19:34:36.566,3.415907077035364
2025-03-23 19:34:36.575,5.20695969238676
2025-03-23 19:34:36.575,2.8759414160153356
2025-03-23 19:34:36.575,-0.767082183561234
2025-03-23 19:34:36.576,-3.057268285931939
2025-03-23 19:34:36.576,-3.34586218207214
2025-03-23 19:34:36.585,-1.833970651340697
2025-03-23 19:34:36.585,1.144927121864469
2025-03-23 19:34:36.586,3.948189136963416
2025-03-23 19:34:36.586,3.7282065012978323
2025-03-23 19:34:36.586,-0.37576912709251536
2025-03-23 19:34:36.595,-4.906451339485491
2025-03-23 19:34:36.596,-4.995794707481809
2025-03-23 19:34:36.596,0.021385981693791856
2025-03-23 19:34:36.596,5.2989692343877435
2025-03-23 19:34:36.596,5.560680750547942
2025-03-23 19:34:36.605,0.7257994215461986
2025-03-23 19:34:36.605,-4.277320262940235
2025-03-23 19:34:36.606,-4.870472418244896
2025-03-23 19:34:36.606,-1.242593858434501
2025-03-23 19:34:36.606,2.5020561935736843
2025-03-23 19:34:36.615,2.910547769720428
2025-03-23 19:34:36.615,0.47541630935135937
2025-03-23 19:34:36.616,-1.4841435294745988
2025-03-23 19:34:36.616,-0.7841638615495916
2025-03-23 19:34:36.616,1.2614396480821206
2025-03-23 19:34:36.625,1.6759246915705475
2025-03-23 19:34:36.625,-0.3643468840470149
2025-03-23 19:34:36.626,-2.4168303556566824
2025-03-23 19:34:36.626,-1.8623539710340373
2025-03-23 19:34:36.626,0.669284077621844
2025-03-23 19:34:36.635,2.054331484924393
2025-03-23 19:34:36.635,0.7488653580805742
2025-03-23 19:34:36.635,-1.193524899257973
2025-03-23 19:34:36.636,-0.9246452094394556
2025-03-23 19:34:36.636,1.2859983056799253
2025-03-23 19:34:36.645,2.318259740530679
2025-03-23 19:34:36.645,0.3577220138989311
2025-03-23 19:34:36.645,-2.5766069397526765
2025-03-23 19:34:36.646,-3.0836126413525524
2025-03-23 19:34:36.646,-0.5814073798609074
2025-03-23 19:34:36.655,2.129035911660609
2025-03-23 19:34:36.655,2.3913998757931068
2025-03-23 19:34:36.655,0.6082373739992472
2025-03-23 19:34:36.656,-0.8273242277290661
2025-03-23 19:34:36.656,-0.5977908086306254
2025-03-23 19:34:36.663,0.39734410972508516
2025-03-23 19:34:36.664,0.5542844444811439
2025-03-23 19:34:36.664,-0.6002551254428209
2025-03-23 19:34:36.664,-2.0023393754444836
2025-03-23 19:34:36.664,-1.9782839383366149
2025-03-23 19:34:36.675,0.15903778070468097
2025-03-23 19:34:36.675,2.9296891551551227
2025-03-23 19:34:36.675,3.581891744622768
2025-03-23 19:34:36.676,1.0062405155524334
2025-03-23 19:34:36.676,-2.556056032137593
2025-03-23 19:34:36.685,-3.6467568910738652
2025-03-23 19:34:36.685,-1.3608243408047014
2025-03-23 19:34:36.686,1.7546974026207507
2025-03-23 19:34:36.686,2.561706455225204
2025-03-23 19:34:36.686,0.5623841352062078
2025-03-23 19:34:36.695,-1.7737769503770182
2025-03-23 19:34:36.695,-1.7102199696341907
2025-03-23 19:34:36.696,0.7279451455295843
2025-03-23 19:34:36.696,2.619986625852097
2025-03-23 19:34:36.696,1.381685032350751
2025-03-23 19:34:36.703,-2.0722300677142007
2025-03-23 19:34:36.704,-3.931607896304984
2025-03-23 19:34:36.704,-1.4401755243814418
2025-03-23 19:34:36.704,3.7669472995830575
2025-03-23 19:34:36.704,6.3989528936219475
2025-03-23 19:34:36.713,2.4177772918965714
2025-03-23 19:34:36.714,-5.840600714418114
2025-03-23 19:34:36.714,-10.226927935986192
2025-03-23 19:34:36.714,-4.6563125803457455
2025-03-23 19:34:36.723,7.027098361519499
2025-03-23 19:34:36.723,13.333073088438557
2025-03-23 19:34:36.723,7.145147122385394
2025-03-23 19:34:36.724,-5.855113586025599
2025-03-23 19:34:36.724,-12.969072617014042
2025-03-23 19:34:36.733,-8.077378568093636
2025-03-23 19:34:36.733,2.7419116381416444
2025-03-23 19:34:36.733,8.977503220683014
2025-03-23 19:34:36.734,6.531106184450929
2025-03-23 19:34:36.734,-0.07382601203837597
2025-03-23 19:34:36.743,-4.175237380489898
2025-03-23 19:34:36.743,-3.4773054029147366
2025-03-23 19:34:36.743,-0.458682397556469
2025-03-23 19:34:36.743,1.5678825928017073
2025-03-23 19:34:36.744,1.3859174403241177
2025-03-23 19:34:36.751,-0.3276160091202528
2025-03-23 19:34:36.752,-2.1166189220054408
2025-03-23 19:34:36.752,-2.141735513231481
2025-03-23 19:34:36.752,0.6770694312131679
2025-03-23 19:34:36.752,4.4853704614268395
2025-03-23 19:34:36.761,4.9268061201295925
2025-03-23 19:34:36.762,-0.02347653239257011
2025-03-23 19:34:36.762,-6.237805092860293
2025-03-23 19:34:36.762,-6.9788723419635925
2025-03-23 19:34:36.771,-0.8300825799785574
2025-03-23 19:34:36.772,5.963440281256683
2025-03-23 19:34:36.772,6.3872598072076965
2025-03-23 19:34:36.772,0.6513789217025503
2025-03-23 19:34:36.772,-4.3501541039694684
2025-03-23 19:34:36.781,-3.334398858830464
2025-03-23 19:34:36.782,1.2555765076142933
2025-03-23 19:34:36.782,2.6685339468922193
2025-03-23 19:34:36.782,-1.1505339283826541
2025-03-23 19:34:36.782,-4.370734438689191
2025-03-23 19:34:36.791,-0.9602818581018392
2025-03-23 19:34:36.791,6.162513913144674
2025-03-23 19:34:36.791,7.511113059885541
2025-03-23 19:34:36.792,-0.7723013699285959
2025-03-23 19:34:36.792,-10.629733376841909
2025-03-23 19:34:36.800,-10.545251562934384
2025-03-23 19:34:36.800,1.0953596223291138
2025-03-23 19:34:36.800,13.333331555477912
2025-03-23 19:34:36.800,13.625887954788283
2025-03-23 19:34:36.800,0.9157570602493178
2025-03-23 19:34:36.809,-12.794594193939549
2025-03-23 19:34:36.810,-14.557285761113985
2025-03-23 19:34:36.810,-3.8227245986742364
2025-03-23 19:34:36.810,7.893081025277542
2025-03-23 19:34:36.819,10.466995218048822
2025-03-23 19:34:36.819,5.161219854445778
2025-03-23 19:34:36.819,-0.2227842517722956
2025-03-23 19:34:36.820,-2.3061983931256584
2025-03-23 19:34:36.820,-3.8125517208461988
2025-03-23 19:34:36.829,-5.953576294845551
2025-03-23 19:34:36.829,-5.06216338829286
2025-03-23 19:34:36.830,1.0567177836775419
2025-03-23 19:34:36.830,7.582921454245792
2025-03-23 19:34:36.830,7.538035317439945
2025-03-23 19:34:36.837,0.7781849916971622
2025-03-23 19:34:36.838,-5.536044168862306
2025-03-23 19:34:36.838,-5.544383464005114
2025-03-23 19:34:36.838,-0.8085380045476015
2025-03-23 19:34:36.838,2.976038213020324
2025-03-23 19:34:36.847,2.831311923282836
2025-03-23 19:34:36.848,0.33736813036500674
2025-03-23 19:34:36.848,-1.7062232357517197
2025-03-23 19:34:36.848,-2.1172498215686923
2025-03-23 19:34:36.857,-1.0863209055459984
2025-03-23 19:34:36.858,0.8606836571073486
2025-03-23 19:34:36.858,2.745085325827071
2025-03-23 19:34:36.858,3.0143202691155837
2025-03-23 19:34:36.858,0.8194912513371458
2025-03-23 19:34:36.858,-2.529307595547228
2025-03-23 19:34:36.868,-4.196145474769863
2025-03-23 19:34:36.868,-2.4968351576920087
2025-03-23 19:34:36.868,1.0767560155386424
2025-03-23 19:34:36.868,3.019163024411648
2025-03-23 19:34:36.868,1.6355402362015818
2025-03-23 19:34:36.878,-0.5701666591964559
2025-03-23 19:34:36.878,0.17723808183504125
2025-03-23 19:34:36.878,3.1821184771526685
2025-03-23 19:34:36.878,2.8996300687170034
2025-03-23 19:34:36.878,-3.4482572361770414
2025-03-23 19:34:36.888,-9.885109858192985
2025-03-23 19:34:36.888,-7.359190945750745
2025-03-23 19:34:36.888,4.349367537315041
2025-03-23 19:34:36.888,14.201828164529156
2025-03-23 19:34:36.895,11.572722007516969
2025-03-23 19:34:36.896,-1.6833017510996138
2025-03-23 19:34:36.896,-13.223544417196681
2025-03-23 19:34:36.896,-13.270781100674979
2025-03-23 19:34:36.896,-3.3392370966261353
2025-03-23 19:34:36.906,7.461133035880271
2025-03-23 19:34:36.906,11.67246367937662
2025-03-23 19:34:36.906,8.059717472489417
2025-03-23 19:34:36.906,-0.023517018829857544
2025-03-23 19:34:36.915,-7.664162775489069
2025-03-23 19:34:36.915,-10.37057033274225
2025-03-23 19:34:36.916,-6.1453504637521394
2025-03-23 19:34:36.916,2.5552083141988398
2025-03-23 19:34:36.916,9.601295418982545
2025-03-23 19:34:36.925,9.556682597146466
2025-03-23 19:34:36.925,2.350828275673605
2025-03-23 19:34:36.926,-6.215827363659789
2025-03-23 19:34:36.926,-9.24914062142664
2025-03-23 19:34:36.926,-4.92390682054372
2025-03-23 19:34:36.935,1.9525426533442785
2025-03-23 19:34:36.935,5.039011941417776
2025-03-23 19:34:36.936,3.06070504042237
2025-03-23 19:34:36.936,0.4070527054092538
2025-03-23 19:34:36.936,0.9202501884789968
2025-03-23 19:34:36.945,2.636780742679653
2025-03-23 19:34:36.946,0.6394032325225031
2025-03-23 19:34:36.946,-5.190022573404337
2025-03-23 19:34:36.946,-8.229438278844768
2025-03-23 19:34:36.946,-3.1179851825541016
2025-03-23 19:34:36.955,6.111187777998938
2025-03-23 19:34:36.955,9.588380880681749
2025-03-23 19:34:36.955,3.5505640222496893
2025-03-23 19:34:36.956,-4.854497496737312
2025-03-23 19:34:36.956,-6.460394515484099
2025-03-23 19:34:36.965,-0.9265491569312315
2025-03-23 19:34:36.965,4.059366240556162
2025-03-23 19:34:36.965,2.718542575222334
2025-03-23 19:34:36.966,-2.770617111059973
2025-03-23 19:34:36.966,-5.775678452591578
2025-03-23 19:34:36.975,-2.350447750487789
2025-03-23 19:34:36.975,5.145769649558889
2025-03-23 19:34:36.976,9.799865397658175
2025-03-23 19:34:36.976,5.875238484362536
2025-03-23 19:34:36.976,-5.0464524229500185
2025-03-23 19:34:36.984,-13.625800808332206
2025-03-23 19:34:36.984,-10.868590706085723
2025-03-23 19:34:36.984,2.2604738029166676
2025-03-23 19:34:36.984,14.623571460633997
2025-03-23 19:34:36.993,15.152003661348141
2025-03-23 19:34:36.993,2.9394138572768598
2025-03-23 19:34:36.993,-12.24307566653909
2025-03-23 19:34:36.994,-18.13620295791874
2025-03-23 19:34:36.994,-9.581455977535338
2025-03-23 19:34:37.002,7.2214327034833525
2025-03-23 19:34:37.002,19.0295504150035
2025-03-23 19:34:37.002,16.07514384519709
2025-03-23 19:34:37.002,0.38913644321816
2025-03-23 19:34:37.002,-15.833988625814937
2025-03-23 19:34:37.011,-20.36891385216851
2025-03-23 19:34:37.012,-10.202105309494534
2025-03-23 19:34:37.012,7.233151937875412
2025-03-23 19:34:37.012,19.915493032955748
2025-03-23 19:34:37.019,19.088374691159444
2025-03-23 19:34:37.020,4.880419291432242
2025-03-23 19:34:37.020,-13.177617395903484
2025-03-23 19:34:37.020,-22.122999024284862
2025-03-23 19:34:37.029,-15.19080831613647
2025-03-23 19:34:37.029,2.3079190674704684
2025-03-23 19:34:37.030,16.898315181329547
2025-03-23 19:34:37.030,18.16938871762543
2025-03-23 19:34:37.030,7.1325851954615995
2025-03-23 19:34:37.037,-6.162168552231506
2025-03-23 19:34:37.038,-12.55322440782329
2025-03-23 19:34:37.038,-10.542161344746958
2025-03-23 19:34:37.038,-4.2392051519624845
2025-03-23 19:34:37.038,2.4293397077698415
2025-03-23 19:34:37.048,7.624342410524144
2025-03-23 19:34:37.048,9.591257306774272
2025-03-23 19:34:37.048,6.3507634973171685
2025-03-23 19:34:37.048,-1.3722877354561664
2025-03-23 19:34:37.048,-8.73639565096905
2025-03-23 19:34:37.057,-10.229363457848534
2025-03-23 19:34:37.058,-4.643596386710409
2025-03-23 19:34:37.058,3.822436822635672
2025-03-23 19:34:37.058,9.087134723888905
2025-03-23 19:34:37.067,7.754466929196434
2025-03-23 19:34:37.067,1.3705264311405583
2025-03-23 19:34:37.068,-4.946890865885988
2025-03-23 19:34:37.068,-6.75610601339857
2025-03-23 19:34:37.068,-3.905713788699756
2025-03-23 19:34:37.077,0.2678027859180444
2025-03-23 19:34:37.077,2.8937321022515192
2025-03-23 19:34:37.078,3.4852533754394415
2025-03-23 19:34:37.078,2.4982982679961454
2025-03-23 19:34:37.078,0.3594921029511445
2025-03-23 19:34:37.087,-1.625449160217315
2025-03-23 19:34:37.087,-1.7240348208633582
2025-03-23 19:34:37.088,-0.3033260645051281
2025-03-23 19:34:37.088,0.008818042307213714
2025-03-23 19:34:37.088,-1.7640404198549033
2025-03-23 19:34:37.097,-2.628070821183936
2025-03-23 19:34:37.097,0.42424248006335913
2025-03-23 19:34:37.098,5.1819944316864115
2025-03-23 19:34:37.098,5.879204855029522
2025-03-23 19:34:37.098,0.37875894387376985
2025-03-23 19:34:37.107,-6.520355544619156
2025-03-23 19:34:37.107,-7.8311896920907555
2025-03-23 19:34:37.108,-1.601995785990518
2025-03-23 19:34:37.108,6.691199154033807
2025-03-23 19:34:37.108,8.760329330053407
2025-03-23 19:34:37.117,1.6595992230568544
2025-03-23 19:34:37.118,-7.951475197293658
2025-03-23 19:34:37.118,-9.446973904997634
2025-03-23 19:34:37.118,0.04476030877187431
2025-03-23 19:34:37.118,10.836581662997137
2025-03-23 19:34:37.125,10.350318565958222
2025-03-23 19:34:37.126,-2.20932331505707
2025-03-23 19:34:37.126,-13.604777069952327
2025-03-23 19:34:37.126,-10.952710336539594
2025-03-23 19:34:37.135,3.2913387568997967
2025-03-23 19:34:37.135,13.850938900180985
2025-03-23 19:34:37.135,10.060115268962598
2025-03-23 19:34:37.136,-2.7454895254550045
2025-03-23 19:34:37.136,-10.823726301302587
2025-03-23 19:34:37.145,-7.689244416904364
2025-03-23 19:34:37.145,1.0492761914238524
2025-03-23 19:34:37.145,6.391333994726526
2025-03-23 19:34:37.146,5.19061762684962
2025-03-23 19:34:37.146,0.6573877581485041
2025-03-23 19:34:37.155,-2.7736587154036583
2025-03-23 19:34:37.155,-3.3306957857179773
2025-03-23 19:34:37.155,-1.993658379925739
2025-03-23 19:34:37.156,-0.15942824964832938
2025-03-23 19:34:37.156,1.9952781812540692
2025-03-23 19:34:37.164,4.133913634047025
2025-03-23 19:34:37.164,3.7975591048789887
2025-03-23 19:34:37.164,-1.185058696505403
2025-03-23 19:34:37.164,-7.625424007755174
2025-03-23 19:34:37.164,-7.959656402904625
2025-03-23 19:34:37.174,0.6838998934484148
2025-03-23 19:34:37.174,10.6224129597065
2025-03-23 19:34:37.174,10.86706041036531
2025-03-23 19:34:37.174,0.1346600903018157
2025-03-23 19:34:37.183,-10.819768575728709
2025-03-23 19:34:37.183,-11.046424773835918
2025-03-23 19:34:37.184,-1.2145746080255544
2025-03-23 19:34:37.184,8.071473722288507
2025-03-23 19:34:37.184,8.326640875901841
2025-03-23 19:34:37.193,1.4372172117391016
2025-03-23 19:34:37.193,-4.1833055400966614
2025-03-23 19:34:37.193,-3.716432060174494
2025-03-23 19:34:37.194,-0.19033843935434658
2025-03-23 19:34:37.194,1.074147836863101
2025-03-23 19:34:37.203,-0.617846042073444
2025-03-23 19:34:37.203,-1.794566401652224
2025-03-23 19:34:37.204,-0.24175156396407874
2025-03-23 19:34:37.204,2.5898606470909833
2025-03-23 19:34:37.204,3.8506121854379067
2025-03-23 19:34:37.212,2.0359829427385074
2025-03-23 19:34:37.212,-1.9837290975084194
2025-03-23 19:34:37.212,-5.246256766606296
2025-03-23 19:34:37.212,-4.705212111193375
2025-03-23 19:34:37.221,-0.3141374658894013
2025-03-23 19:34:37.222,4.372199382504212
2025-03-23 19:34:37.222,5.66907070859985
2025-03-23 19:34:37.222,3.2778743212401205
2025-03-23 19:34:37.222,-0.42929280013970966
2025-03-23 19:34:37.231,-3.5436194240328325
2025-03-23 19:34:37.231,-5.403218577547552
2025-03-23 19:34:37.232,-4.929260422626028
2025-03-23 19:34:37.232,-0.8432234612675661
2025-03-23 19:34:37.232,5.336579782061089
2025-03-23 19:34:37.241,8.55071912182194
2025-03-23 19:34:37.241,4.873436377766472
2025-03-23 19:34:37.242,-3.243799917183942
2025-03-23 19:34:37.242,-8.355889115619448
2025-03-23 19:34:37.242,-5.703761205973591
2025-03-23 19:34:37.251,1.3011348847851112
2025-03-23 19:34:37.251,4.807318435956987
2025-03-23 19:34:37.251,1.902865623404746
2025-03-23 19:34:37.252,-1.886331126806772
2025-03-23 19:34:37.252,-0.26615181624096224
2025-03-23 19:34:37.261,4.725211293066094
2025-03-23 19:34:37.261,5.051540735428855
2025-03-23 19:34:37.261,-2.1528277490556587
2025-03-23 19:34:37.262,-9.808841906125311
2025-03-23 19:34:37.262,-8.970573402371993
2025-03-23 19:34:37.271,0.7637766361010511
2025-03-23 19:34:37.271,10.7214890348066
2025-03-23 19:34:37.271,11.858746556916453
2025-03-23 19:34:37.272,2.9960470768437304
2025-03-23 19:34:37.272,-8.463907070863344
2025-03-23 19:34:37.279,-12.930042526140944
2025-03-23 19:34:37.280,-6.623487499029281
2025-03-23 19:34:37.280,5.180701291227552
2025-03-23 19:34:37.280,12.489121852838572
2025-03-23 19:34:37.289,9.111170977693115
2025-03-23 19:34:37.289,-1.9238772951146155
2025-03-23 19:34:37.289,-10.957433012294546
2025-03-23 19:34:37.289,-10.255862319783498
2025-03-23 19:34:37.290,-0.9643273222302627
2025-03-23 19:34:37.299,8.117811807056265
2025-03-23 19:34:37.299,9.095310158089482
2025-03-23 19:34:37.299,2.4987812755161256
2025-03-23 19:34:37.300,-4.114905417694025
2025-03-23 19:34:37.300,-4.887350921604419
2025-03-23 19:34:37.308,-1.5314982907269783
2025-03-23 19:34:37.308,0.4182082725036377
2025-03-23 19:34:37.308,-0.6594381997251451
2025-03-23 19:34:37.308,-1.315427034987791
2025-03-23 19:34:37.308,1.0039089882429153
2025-03-23 19:34:37.318,4.230907544843554
2025-03-23 19:34:37.318,4.579210204317948
2025-03-23 19:34:37.318,0.7065780119440803
2025-03-23 19:34:37.318,-5.168043287208375
2025-03-23 19:34:37.318,-8.180427113028248
2025-03-23 19:34:37.328,-4.01982319902418
2025-03-23 19:34:37.328,5.581574703828464
2025-03-23 19:34:37.328,11.746778097241613
2025-03-23 19:34:37.328,6.89424335379735
2025-03-23 19:34:37.337,-5.658695153268119
2025-03-23 19:34:37.337,-13.804247091991051
2025-03-23 19:34:37.338,-9.207190129861258
2025-03-23 19:34:37.338,3.9577160816037678
2025-03-23 19:34:37.338,13.37425485558879
2025-03-23 19:34:37.345,10.78817119518693
2025-03-23 19:34:37.346,-0.5132537022003235
2025-03-23 19:34:37.346,-9.905739114838243
2025-03-23 19:34:37.346,-10.189882444556368
2025-03-23 19:34:37.355,-3.349948990056519
2025-03-23 19:34:37.356,3.695109734574746
2025-03-23 19:34:37.356,6.637458479037336
2025-03-23 19:34:37.356,5.852562269039249
2025-03-23 19:34:37.356,3.0456069227923264
2025-03-23 19:34:37.356,-1.1097950057040047
2025-03-23 19:34:37.365,-5.549677147707295
2025-03-23 19:34:37.366,-7.334637280909398
2025-03-23 19:34:37.366,-3.9301497452364127
2025-03-23 19:34:37.366,2.8920469757972063
2025-03-23 19:34:37.375,7.434569231864308
2025-03-23 19:34:37.376,5.850458229651079
2025-03-23 19:34:37.376,0.36563464205694346
2025-03-23 19:34:37.376,-3.8620685664861907
2025-03-23 19:34:37.376,-4.6516826148743995
2025-03-23 19:34:37.385,-3.281828733086729
2025-03-23 19:34:37.385,-0.7136134186055269
2025-03-23 19:34:37.386,2.9735129949881616
2025-03-23 19:34:37.386,5.695331598264903
2025-03-23 19:34:37.386,3.9114154881139007
2025-03-23 19:34:37.395,-2.3315007534942893
2025-03-23 19:34:37.395,-7.415710178307485
2025-03-23 19:34:37.396,-5.618047047701448
2025-03-23 19:34:37.396,1.995115422328408
2025-03-23 19:34:37.396,7.954455024115701
2025-03-23 19:34:37.405,6.20676170894857
2025-03-23 19:34:37.405,-1.3014061736999596
2025-03-23 19:34:37.406,-6.69619310002301
2025-03-23 19:34:37.406,-4.823124779333954
2025-03-23 19:34:37.406,1.120715127235656
2025-03-23 19:34:37.415,3.7607721432583494
2025-03-23 19:34:37.415,0.823810978994028
2025-03-23 19:34:37.416,-2.348157436153487
2025-03-23 19:34:37.416,-0.6125873399961397
2025-03-23 19:34:37.416,3.664133685636382
2025-03-23 19:34:37.425,4.134456235776252
2025-03-23 19:34:37.425,-0.5214849507266248
2025-03-23 19:34:37.426,-5.002672622610898
2025-03-23 19:34:37.426,-4.680433782636775
2025-03-23 19:34:37.426,-0.9097465043776598
2025-03-23 19:34:37.435,2.137323439307329
2025-03-23 19:34:37.435,3.0307166828851124
2025-03-23 19:34:37.435,3.057615628753478
2025-03-23 19:34:37.436,2.4030843652084743
2025-03-23 19:34:37.436,-0.24739866973130067
2025-03-23 19:34:37.445,-4.114256518097852
2025-03-23 19:34:37.445,-5.403481865544871
2025-03-23 19:34:37.445,-1.7510847536234275
2025-03-23 19:34:37.446,3.9587729388997377
2025-03-23 19:34:37.446,6.119859714181472
2025-03-23 19:34:37.453,2.467856978842684
2025-03-23 19:34:37.454,-3.472583882860574
2025-03-23 19:34:37.454,-5.9934942960812485
2025-03-23 19:34:37.454,-2.76281855685221
2025-03-23 19:34:37.454,3.0378682472462937
2025-03-23 19:34:37.463,5.827009386932283
2025-03-23 19:34:37.464,3.132449523403582
2025-03-23 19:34:37.464,-1.9832777046249637
2025-03-23 19:34:37.464,-4.505350831207274
2025-03-23 19:34:37.473,-3.049917640775524
2025-03-23 19:34:37.474,-0.4633371076475298
2025-03-23 19:34:37.474,0.8786472282354753
2025-03-23 19:34:37.474,1.8298925204173253
2025-03-23 19:34:37.474,3.4718600069258487
2025-03-23 19:34:37.474,3.867376906316769
2025-03-23 19:34:37.484,0.4761133388244851
2025-03-23 19:34:37.484,-4.977803682695473
2025-03-23 19:34:37.484,-6.896520352388578
2025-03-23 19:34:37.484,-2.3193409657972444
2025-03-23 19:34:37.493,4.453873750633107
2025-03-23 19:34:37.494,6.077133321580028
2025-03-23 19:34:37.494,1.2153268479355686
2025-03-23 19:34:37.494,-3.3109162430952854
2025-03-23 19:34:37.494,-1.5223492444797755
2025-03-23 19:34:37.503,3.106875247811442
2025-03-23 19:34:37.503,2.431835737663054
2025-03-23 19:34:37.504,-3.935991596967237
2025-03-23 19:34:37.504,-7.0982579022389505
2025-03-23 19:34:37.504,-1.6293319256202035
2025-03-23 19:34:37.513,6.147408207404481
2025-03-23 19:34:37.514,7.042686802919334
2025-03-23 19:34:37.514,1.4819920581677655
2025-03-23 19:34:37.514,-2.944343850922381
2025-03-23 19:34:37.514,-3.3346523263135976
2025-03-23 19:34:37.523,-3.35951972297159
2025-03-23 19:34:37.523,-3.9597401827142353
2025-03-23 19:34:37.524,-0.5929247935514451
2025-03-23 19:34:37.524,7.218535050071496
2025-03-23 19:34:37.524,10.71789142349799
2025-03-23 19:34:37.531,2.5558267347564243
2025-03-23 19:34:37.532,-10.861346803324077
2025-03-23 19:34:37.532,-14.609998127017057
2025-03-23 19:34:37.532,-3.18657902109805
2025-03-23 19:34:37.541,11.947968245919444
2025-03-23 19:34:37.541,15.09535209783192
2025-03-23 19:34:37.541,3.701149110509415
2025-03-23 19:34:37.542,-9.82276196387254
2025-03-23 19:34:37.542,-12.478452977066974
2025-03-23 19:34:37.551,-3.884655664471229
2025-03-23 19:34:37.551,5.575861329211152
2025-03-23 19:34:37.551,7.34907577561348
2025-03-23 19:34:37.552,2.7527753417279492
2025-03-23 19:34:37.552,-1.2936916726461507
2025-03-23 19:34:37.560,-1.426250520607859
2025-03-23 19:34:37.560,-0.3079169476426415
2025-03-23 19:34:37.560,-1.135559766429331
2025-03-23 19:34:37.560,-2.8476308526971104
2025-03-23 19:34:37.569,-2.117572280272374
2025-03-23 19:34:37.570,1.473230396615132
2025-03-23 19:34:37.570,4.306746343967447
2025-03-23 19:34:37.570,3.0429219775336414
2025-03-23 19:34:37.570,-1.1502990045755603
2025-03-23 19:34:37.579,-3.7610639166822613
2025-03-23 19:34:37.580,-2.1728672518880203
2025-03-23 19:34:37.580,1.3920605792702152
2025-03-23 19:34:37.580,2.772423824583247
2025-03-23 19:34:37.580,0.7663817740187109
2025-03-23 19:34:37.589,-2.0121821062674585
2025-03-23 19:34:37.590,-2.5648848693985915
2025-03-23 19:34:37.590,-0.4270356349283958
2025-03-23 19:34:37.590,2.4801030797378854
2025-03-23 19:34:37.590,3.5134851150066
2025-03-23 19:34:37.599,1.1820149803034674
2025-03-23 19:34:37.600,-3.0335028513730733
2025-03-23 19:34:37.600,-4.961197023264922
2025-03-23 19:34:37.600,-1.7569917586700492
2025-03-23 19:34:37.600,4.021049613743379
2025-03-23 19:34:37.609,6.167481402803659
2025-03-23 19:34:37.610,1.6968303855214288
2025-03-23 19:34:37.610,-5.103414478262448
2025-03-23 19:34:37.610,-6.840115487682821
2025-03-23 19:34:37.610,-1.2890415846385181
2025-03-23 19:34:37.619,5.59637651286462
2025-03-23 19:34:37.619,6.152810884318446
2025-03-23 19:34:37.620,0.11888120732924062
2025-03-23 19:34:37.620,-4.971897108552748
2025-03-23 19:34:37.620,-3.3832023038329573
2025-03-23 19:34:37.629,1.733478140930687
2025-03-23 19:34:37.629,3.3744270719286305
2025-03-23 19:34:37.630,0.23173672745911994
2025-03-23 19:34:37.630,-2.730807544862096
2025-03-23 19:34:37.630,-1.965242789977138
2025-03-23 19:34:37.639,0.6955565319692211
2025-03-23 19:34:37.639,1.959721053136531
2025-03-23 19:34:37.640,1.3360370335105096
2025-03-23 19:34:37.640,0.31500945182102735
2025-03-23 19:34:37.640,-0.23221503796635581
2025-03-23 19:34:37.649,-0.4474706047249221
2025-03-23 19:34:37.649,-0.6325795687146455
2025-03-23 19:34:37.650,-0.951520084539992
2025-03-23 19:34:37.650,-1.2510561268881266
2025-03-23 19:34:37.650,-0.9005606373805304
2025-03-23 19:34:37.659,0.46330456126668407
2025-03-23 19:34:37.659,2.0555810243837156
2025-03-23 19:34:37.659,2.5682852424176854
2025-03-23 19:34:37.660,1.5757676570915842
2025-03-23 19:34:37.660,-0.29118906069756445
2025-03-23 19:34:37.668,-2.1911499544752697
2025-03-23 19:34:37.668,-3.3111212372773506
2025-03-23 19:34:37.668,-2.708838889709398
2025-03-23 19:34:37.668,-0.13914031306876562
2025-03-23 19:34:37.668,2.8279002219827296
2025-03-23 19:34:37.678,3.7096070888808312
2025-03-23 19:34:37.678,1.859217152483998
2025-03-23 19:34:37.678,-0.5313120502664729
2025-03-23 19:34:37.678,-1.1609425549089163
2025-03-23 19:34:37.687,-0.6264811175693593
2025-03-23 19:34:37.688,-1.2112779874279573
2025-03-23 19:34:37.688,-2.9586112270442957
2025-03-23 19:34:37.688,-2.9470207177114895
2025-03-23 19:34:37.688,0.6443706622563223
2025-03-23 19:34:37.697,5.1828927756423235
2025-03-23 19:34:37.698,5.916586098063539
2025-03-23 19:34:37.698,1.4750810025964265
2025-03-23 19:34:37.698,-4.214975220034348
2025-03-23 19:34:37.698,-6.000638579341318
2025-03-23 19:34:37.707,-2.8284963336588547
2025-03-23 19:34:37.708,1.672610669267486
2025-03-23 19:34:37.708,3.5548593386847545
2025-03-23 19:34:37.708,2.36602562871228
2025-03-23 19:34:37.708,0.31585441960129373
2025-03-23 19:34:37.717,-0.9329175844645959
2025-03-23 19:34:37.717,-1.2424693791980503
2025-03-23 19:34:37.718,-0.7441682581027902
2025-03-23 19:34:37.718,0.2980159905303308
2025-03-23 19:34:37.718,0.6375768784504428
2025-03-23 19:34:37.727,-0.6535710497971566
2025-03-23 19:34:37.728,-1.874083663394706
2025-03-23 19:34:37.728,-0.24989378300643506
2025-03-23 19:34:37.728,3.4000529169822573
2025-03-23 19:34:37.728,4.269384028444152
2025-03-23 19:34:37.737,-0.26164065665210673
2025-03-23 19:34:37.737,-6.011745759756851
2025-03-23 19:34:37.738,-6.178787995811459
2025-03-23 19:34:37.738,0.3464563347084669
2025-03-23 19:34:37.738,7.064141510759276
2025-03-23 19:34:37.747,6.91631961235343
2025-03-23 19:34:37.747,0.0965848829790723
2025-03-23 19:34:37.747,-6.234643042207914
2025-03-23 19:34:37.748,-5.880802305420853
2025-03-23 19:34:37.748,-0.1798159389038298
2025-03-23 19:34:37.757,4.152083411982572
2025-03-23 19:34:37.757,3.040567235336662
2025-03-23 19:34:37.758,-0.7766795457479114
2025-03-23 19:34:37.758,-2.0355447527507344
2025-03-23 19:34:37.758,0.32458842222790596
2025-03-23 19:34:37.765,2.4523675648145713
2025-03-23 19:34:37.766,1.0364377977748436
2025-03-23 19:34:37.766,-2.485709955811504
2025-03-23 19:34:37.766,-3.836483137064985
2025-03-23 19:34:37.766,-1.0350966299874897
2025-03-23 19:34:37.776,3.1696492745304417
2025-03-23 19:34:37.776,4.075778376970202
2025-03-23 19:34:37.776,0.3422850637375417
2025-03-23 19:34:37.776,-3.835174641739195
2025-03-23 19:34:37.776,-3.1249626791160177
2025-03-23 19:34:37.786,2.1256559526082
2025-03-23 19:34:37.786,5.428895577615231
2025-03-23 19:34:37.786,1.9400406959447056
2025-03-23 19:34:37.786,-4.918616153233743
2025-03-23 19:34:37.786,-7.036874338887679
2025-03-23 19:34:37.796,-1.4331273733483338
2025-03-23 19:34:37.796,5.942344634210858
2025-03-23 19:34:37.796,7.093493761815813
2025-03-23 19:34:37.796,1.1030741882030823
2025-03-23 19:34:37.796,-5.156849233051559
2025-03-23 19:34:37.806,-5.1064774503354275
2025-03-23 19:34:37.806,0.2521926964301131
2025-03-23 19:34:37.806,4.089361358988886
2025-03-23 19:34:37.806,2.1229336545729987
2025-03-23 19:34:37.806,-2.5386291936862904
2025-03-23 19:34:37.816,-3.72707473057753
2025-03-23 19:34:37.816,0.055827025288340326
2025-03-23 19:34:37.816,4.156198230740719
2025-03-23 19:34:37.816,3.779849872000276
2025-03-23 19:34:37.816,-0.46565611427200965
2025-03-23 19:34:37.826,-3.874680803600415
2025-03-23 19:34:37.826,-3.264879412780354
2025-03-23 19:34:37.826,-0.01655274214644553
2025-03-23 19:34:37.826,2.203643762065951
2025-03-23 19:34:37.835,1.616407828467723
2025-03-23 19:34:37.836,-0.2573493147020625
2025-03-23 19:34:37.836,-0.8646478283492627
2025-03-23 19:34:37.836,0.41443559937270513
2025-03-23 19:34:37.836,1.770589600313563
2025-03-23 19:34:37.845,1.1323008417963323
2025-03-23 19:34:37.846,-1.440337873180115
2025-03-23 19:34:37.846,-3.5461064033690586
2025-03-23 19:34:37.846,-2.6749374252985345
2025-03-23 19:34:37.846,1.116468042398557
2025-03-23 19:34:37.855,4.655553046277106
2025-03-23 19:34:37.856,4.2298195977401
2025-03-23 19:34:37.856,-0.5057124512161716
2025-03-23 19:34:37.856,-5.211235189231907
2025-03-23 19:34:37.856,-4.747727670959996
2025-03-23 19:34:37.865,0.7820410707762403
2025-03-23 19:34:37.865,5.242293611372617
2025-03-23 19:34:37.866,3.4708099535621493
2025-03-23 19:34:37.866,-2.0003894570802374
2025-03-23 19:34:37.866,-3.981167468740235
2025-03-23 19:34:37.875,-0.2158173516611392
2025-03-23 19:34:37.875,3.5069631751870607
2025-03-23 19:34:37.876,1.4016127327967833
2025-03-23 19:34:37.876,-4.029811205191292
2025-03-23 19:34:37.876,-4.979927441582882
2025-03-23 19:34:37.885,1.1416158675265076
2025-03-23 19:34:37.885,7.527389628844555
2025-03-23 19:34:37.886,5.9893579431484
2025-03-23 19:34:37.886,-2.5894339739281627
2025-03-23 19:34:37.886,-8.680143996861025
2025-03-23 19:34:37.895,-5.403045061512042
2025-03-23 19:34:37.895,3.1800155855474483
2025-03-23 19:34:37.896,7.143625864109937
2025-03-23 19:34:37.896,2.682454968612387
2025-03-23 19:34:37.896,-3.8928155805691627
2025-03-23 19:34:37.905,-4.482117268150036
2025-03-23 19:34:37.905,1.0478610337839052
2025-03-23 19:34:37.905,5.333257595724593
2025-03-23 19:34:37.906,2.7604319061884106
2025-03-23 19:34:37.906,-3.906300546207181
2025-03-23 19:34:37.915,-6.884173957126907
2025-03-23 19:34:37.915,-2.418812711003862
2025-03-23 19:34:37.916,4.822391299289399
2025-03-23 19:34:37.916,6.994924732003195
2025-03-23 19:34:37.916,2.055694099888788
2025-03-23 19:34:37.925,-4.052960693155567
2025-03-23 19:34:37.925,-4.720289015964459
2025-03-23 19:34:37.925,-0.41241737518156374
2025-03-23 19:34:37.926,2.755664536036499
2025-03-23 19:34:37.926,1.1952494345660931
2025-03-23 19:34:37.935,-2.0867951539864253
2025-03-23 19:34:37.935,-2.1436916190734308
2025-03-23 19:34:37.936,1.3563437074020326
2025-03-23 19:34:37.936,3.9654822805163366
2025-03-23 19:34:37.936,2.2006504045706654
2025-03-23 19:34:37.944,-2.172876022606279
2025-03-23 19:34:37.944,-4.221784528150165
2025-03-23 19:34:37.944,-1.6110147970400779
2025-03-23 19:34:37.944,2.597415165993553
2025-03-23 19:34:37.944,3.3574607397947247
2025-03-23 19:34:37.954,-0.41245305522256925
2025-03-23 19:34:37.954,-4.1724591012195145
2025-03-23 19:34:37.954,-2.844155992955178
2025-03-23 19:34:37.954,2.814006639795515
2025-03-23 19:34:37.963,6.405991623832975
2025-03-23 19:34:37.964,3.2483867431944873
2025-03-23 19:34:37.964,-3.7339457758502608
2025-03-23 19:34:37.964,-7.096207566218528
2025-03-23 19:34:37.964,-3.4556356219440456
2025-03-23 19:34:37.973,2.812309167338452
2025-03-23 19:34:37.974,5.01978165698689
2025-03-23 19:34:37.974,1.9217768691162906
2025-03-23 19:34:37.974,-1.533001431211167
2025-03-23 19:34:37.974,-1.0464302124183433
2025-03-23 19:34:37.983,1.468729380702939
2025-03-23 19:34:37.983,0.9759579161759485
2025-03-23 19:34:37.984,-3.0188677432491935
2025-03-23 19:34:37.984,-4.989807901623637
2025-03-23 19:34:37.984,-0.8352875738857843
2025-03-23 19:34:37.993,5.682368489090955
2025-03-23 19:34:37.993,6.834482595804556
2025-03-23 19:34:37.994,0.6346956583739509
2025-03-23 19:34:37.994,-6.321679665452088
2025-03-23 19:34:37.994,-6.65118105414569
2025-03-23 19:34:38.003,-0.6135659465896599
2025-03-23 19:34:38.004,5.015538704980346
2025-03-23 19:34:38.004,5.166996992560881
2025-03-23 19:34:38.004,1.2314406449938886
2025-03-23 19:34:38.004,-2.2225742030141022
2025-03-23 19:34:38.013,-2.9822596234243295
2025-03-23 19:34:38.013,-2.125746148161103
2025-03-23 19:34:38.014,-1.0354973996522194
2025-03-23 19:34:38.014,0.29364866317833443
2025-03-23 19:34:38.014,1.9894415849323244
2025-03-23 19:34:38.023,3.086723382226439
2025-03-23 19:34:38.023,2.4082389790039134
2025-03-23 19:34:38.024,0.009208020558907914
2025-03-23 19:34:38.024,-2.7199385064946955
2025-03-23 19:34:38.024,-4.0324095373250275
2025-03-23 19:34:38.033,-2.854496375784627
2025-03-23 19:34:38.033,0.4352755301389457
2025-03-23 19:34:38.034,3.7829442675829763
2025-03-23 19:34:38.034,4.556794291631486
2025-03-23 19:34:38.034,1.8040662668652259
2025-03-23 19:34:38.043,-2.3381707250142814
2025-03-23 19:34:38.043,-4.161281669259494
2025-03-23 19:34:38.044,-2.074546801449741
2025-03-23 19:34:38.044,1.3894724272786398
2025-03-23 19:34:38.044,2.2191926623075275
2025-03-23 19:34:38.053,-0.15123550997336127
2025-03-23 19:34:38.053,-1.827922575825583
2025-03-23 19:34:38.054,0.42265663338035087
2025-03-23 19:34:38.054,4.0603567003053245
2025-03-23 19:34:38.054,3.182124368728562
2025-03-23 19:34:38.062,-3.3749592030927658
2025-03-23 19:34:38.062,-8.657259794012582
2025-03-23 19:34:38.062,-4.877043065011918
2025-03-23 19:34:38.062,6.184945498735185
2025-03-23 19:34:38.062,12.987261574943346
2025-03-23 19:34:38.072,6.668510748683124
2025-03-23 19:34:38.072,-7.652497907591959
2025-03-23 19:34:38.072,-15.247710194804208
2025-03-23 19:34:38.072,-8.025628064544424
2025-03-23 19:34:38.081,6.421439030537827
2025-03-23 19:34:38.081,13.657640220762621
2025-03-23 19:34:38.082,8.056509745313466
2025-03-23 19:34:38.082,-2.864865002577376
2025-03-23 19:34:38.082,-8.438888605975853
2025-03-23 19:34:38.091,-5.876989187086687
2025-03-23 19:34:38.092,-0.5923644086781343
2025-03-23 19:34:38.092,1.8730374263035772
2025-03-23 19:34:38.092,1.5480174845586032
2025-03-23 19:34:38.092,1.6941176556536568
2025-03-23 19:34:38.101,3.1399164334101606
2025-03-23 19:34:38.101,3.1164119528445187
2025-03-23 19:34:38.102,-0.3250439781080307
2025-03-23 19:34:38.102,-4.7126935285539115
2025-03-23 19:34:38.102,-5.538709386638829
2025-03-23 19:34:38.111,-1.6732136407364426
2025-03-23 19:34:38.111,3.216382064848676
2025-03-23 19:34:38.112,4.794270327028901
2025-03-23 19:34:38.112,2.304357200081763
2025-03-23 19:34:38.112,-1.397119941811845
2025-03-23 19:34:38.121,-2.728347550552103
2025-03-23 19:34:38.121,-0.4980209068585969
2025-03-23 19:34:38.122,2.379233867593109
2025-03-23 19:34:38.122,1.276955504862877
2025-03-23 19:34:38.122,-3.7361680964664385
2025-03-23 19:34:38.131,-5.811877379371887
2025-03-23 19:34:38.131,0.11704038428064861
2025-03-23 19:34:38.131,8.303305448835129
2025-03-23 19:34:38.132,7.86222537398806
2025-03-23 19:34:38.132,-2.2353961582521746
2025-03-23 19:34:38.140,-10.326893983684695
2025-03-23 19:34:38.140,-6.6865527581899595
2025-03-23 19:34:38.140,4.159797751043683
2025-03-23 19:34:38.140,9.58122165285296
2025-03-23 19:34:38.140,4.245047822836365
2025-03-23 19:34:38.150,-4.816441181387238
2025-03-23 19:34:38.150,-7.692201073079746
2025-03-23 19:34:38.150,-2.5259073491925097
2025-03-23 19:34:38.150,4.062265696988428
2025-03-23 19:34:38.159,5.3289069594877345
2025-03-23 19:34:38.160,1.2434618044772328
2025-03-23 19:34:38.160,-2.7598335959656173
2025-03-23 19:34:38.160,-2.467579655200284
2025-03-23 19:34:38.160,0.6752386661660538
2025-03-23 19:34:38.169,2.0215110573473187
2025-03-23 19:34:38.170,-0.16124711737256145
2025-03-23 19:34:38.170,-2.62050582719944
2025-03-23 19:34:38.170,-1.78396793095264
2025-03-23 19:34:38.170,1.2783635417594397
2025-03-23 19:34:38.179,2.5798506231593485
2025-03-23 19:34:38.180,0.9522801362755716
2025-03-23 19:34:38.180,-0.6866008729692524
2025-03-23 19:34:38.180,-0.08910199578750908
2025-03-23 19:34:38.180,0.988487407035045
2025-03-23 19:34:38.189,-0.17858205925802284
2025-03-23 19:34:38.190,-2.6826770710200067
2025-03-23 19:34:38.190,-2.9085600184764524
2025-03-23 19:34:38.190,0.1916288649506556
2025-03-23 19:34:38.190,3.2081935174114284
2025-03-23 19:34:38.199,2.755579990513844
2025-03-23 19:34:38.200,0.012910402667695109
2025-03-23 19:34:38.200,-1.214611768733961
2025-03-23 19:34:38.200,-0.012758323129721721
2025-03-23 19:34:38.200,0.6605789885630153
2025-03-23 19:34:38.209,-1.174757888282905
2025-03-23 19:34:38.209,-3.186888374295887
2025-03-23 19:34:38.210,-1.9269829047024998
2025-03-23 19:34:38.210,2.0256910217535133
2025-03-23 19:34:38.210,4.338210097446239
2025-03-23 19:34:38.218,2.343175760828746
2025-03-23 19:34:38.218,-1.6491819526211258
2025-03-23 19:34:38.218,-3.310074846919739
2025-03-23 19:34:38.218,-1.3618273425368554
2025-03-23 19:34:38.218,1.547290562820677
2025-03-23 19:34:38.228,2.340946840754437
2025-03-23 19:34:38.228,0.4561832056134098
2025-03-23 19:34:38.228,-2.370985969969783
2025-03-23 19:34:38.228,-3.642550490389152
2025-03-23 19:34:38.237,-1.4798960485218302
2025-03-23 19:34:38.238,3.5060662011972354
2025-03-23 19:34:38.238,7.067880125026234
2025-03-23 19:34:38.238,4.306368571580672
2025-03-23 19:34:38.238,-4.146507458800386
2025-03-23 19:34:38.247,-10.33386112795765
2025-03-23 19:34:38.248,-6.576378303993027
2025-03-23 19:34:38.248,4.6031241793203
2025-03-23 19:34:38.248,11.354568761770876
2025-03-23 19:34:38.248,5.815247152356971
2025-03-23 19:34:38.257,-5.656628312143011
2025-03-23 19:34:38.258,-9.613695931240324
2025-03-23 19:34:38.258,-2.221479201335535
2025-03-23 19:34:38.258,6.338672054069248
2025-03-23 19:34:38.258,5.765442931769539
2025-03-23 19:34:38.267,-1.3441251604363416
2025-03-23 19:34:38.268,-4.6792290637829295
2025-03-23 19:34:38.268,-0.8730854165765156
2025-03-23 19:34:38.268,3.115773273644857
2025-03-23 19:34:38.268,0.9942625373459865
2025-03-23 19:34:38.277,-4.05284333072637
2025-03-23 19:34:38.278,-4.236590469578494
2025-03-23 19:34:38.278,2.0423397463469866
2025-03-23 19:34:38.278,7.827934358218114
2025-03-23 19:34:38.278,5.971463965068272
2025-03-23 19:34:38.287,-2.463154652419006
2025-03-23 19:34:38.288,-9.243641838860713
2025-03-23 19:34:38.288,-7.618994954021075
2025-03-23 19:34:38.288,0.8861656843971811
2025-03-23 19:34:38.288,8.187160577734343
2025-03-23 19:34:38.296,7.729162177707163
2025-03-23 19:34:38.296,0.6748602362131628
2025-03-23 19:34:38.296,-5.877490506954215
2025-03-23 19:34:38.296,-6.252990827684189
2025-03-23 19:34:38.296,-1.2068285249236217
2025-03-23 19:34:38.306,3.8868577449390536
2025-03-23 19:34:38.306,4.633611208671788
2025-03-23 19:34:38.306,1.1926100078779183
2025-03-23 19:34:38.306,-2.745324065207871
2025-03-23 19:34:38.306,-3.7423889493082516
2025-03-23 19:34:38.316,-1.4562634562824737
2025-03-23 19:34:38.316,1.7006999793786748
2025-03-23 19:34:38.316,3.065123950653043
2025-03-23 19:34:38.316,1.8040135015494094
2025-03-23 19:34:38.316,-0.6518749366285199
2025-03-23 19:34:38.325,-1.774006645493905
2025-03-23 19:34:38.326,-0.4752483192961213
2025-03-23 19:34:38.326,1.0339014054006574
2025-03-23 19:34:38.326,-0.43268804294002106
2025-03-23 19:34:38.335,-3.8482818170956947
2025-03-23 19:34:38.336,-3.6140770200889385
2025-03-23 19:34:38.336,2.884944945674007
2025-03-23 19:34:38.336,9.374006798780945
2025-03-23 19:34:38.336,6.80810653099721
2025-03-23 19:34:38.345,-4.360668852105102
2025-03-23 19:34:38.345,-12.498724570990492
2025-03-23 19:34:38.346,-7.9792473562060895
2025-03-23 19:34:38.346,4.700638610092261
2025-03-23 19:34:38.346,11.676190788308853
2025-03-23 19:34:38.355,5.9132659863410835
2025-03-23 19:34:38.356,-5.008686378315081
2025-03-23 19:34:38.356,-8.545624220246726
2025-03-23 19:34:38.356,-1.8579617421720673
2025-03-23 19:34:38.356,5.9601723129930555
2025-03-23 19:34:38.364,5.543109409334743
2025-03-23 19:34:38.364,-1.9036129178630747
2025-03-23 19:34:38.364,-6.943594025837408
2025-03-23 19:34:38.364,-3.577404146686391
2025-03-23 19:34:38.364,3.9929646324783117
2025-03-23 19:34:38.374,6.942492719966086
2025-03-23 19:34:38.374,2.2789393898480443
2025-03-23 19:34:38.374,-4.326929550489764
2025-03-23 19:34:38.374,-5.773193755569653
2025-03-23 19:34:38.384,-1.3795976237730794
2025-03-23 19:34:38.384,3.479870909585343
2025-03-23 19:34:38.384,4.089766841847983
2025-03-23 19:34:38.384,0.9206786093481388
2025-03-23 19:34:38.384,-2.166637411591513
2025-03-23 19:34:38.393,-2.397452681579995
2025-03-23 19:34:38.394,-0.27440613200334074
2025-03-23 19:34:38.394,1.4578728481193803
2025-03-23 19:34:38.394,0.5675684242906855
2025-03-23 19:34:38.394,-2.026596134826782
2025-03-23 19:34:38.403,-2.5357774024592468
2025-03-23 19:34:38.404,1.2394568644691975
2025-03-23 19:34:38.404,5.932323011935272
2025-03-23 19:34:38.404,5.439914265810302
2025-03-23 19:34:38.404,-1.527836187747075
2025-03-23 19:34:38.413,-8.737535173997344
2025-03-23 19:34:38.414,-8.650881137758475
2025-03-23 19:34:38.414,-0.5368079455645446
2025-03-23 19:34:38.414,8.425331666297764
2025-03-23 19:34:38.414,9.9511177506459
2025-03-23 19:34:38.423,2.6944187744356025
2025-03-23 19:34:38.424,-6.206426772035448
2025-03-23 19:34:38.424,-8.193928199977396
2025-03-23 19:34:38.424,-2.194462890154029
2025-03-23 19:34:38.424,4.550648901955248
2025-03-23 19:34:38.433,4.908223234013684
2025-03-23 19:34:38.433,-0.427749761866164
2025-03-23 19:34:38.434,-4.637204176146857
2025-03-23 19:34:38.434,-2.908386999329209
2025-03-23 19:34:38.434,2.6149650434165874
2025-03-23 19:34:38.443,5.719510820274199
2025-03-23 19:34:38.443,2.931193087993877
2025-03-23 19:34:38.444,-2.920427765082513
2025-03-23 19:34:38.444,-5.868846487769547
2025-03-23 19:34:38.444,-3.242732180234239
2025-03-23 19:34:38.453,1.738782258785675
2025-03-23 19:34:38.453,4.005723230810936
2025-03-23 19:34:38.453,2.2455733510672826
2025-03-23 19:34:38.454,-0.5175139293093405
2025-03-23 19:34:38.454,-1.2426494904364196
2025-03-23 19:34:38.462,-0.17994729157225411
2025-03-23 19:34:38.462,0.4183090202004326
2025-03-23 19:34:38.462,-0.41921183149849556
2025-03-23 19:34:38.462,-1.4629010423717155
2025-03-23 19:34:38.472,-1.2420284284506982
2025-03-23 19:34:38.472,0.18390661118403662
2025-03-23 19:34:38.472,1.6503140060861798
2025-03-23 19:34:38.472,2.156489318330887
2025-03-23 19:34:38.472,1.2013525269323568
2025-03-23 19:34:38.472,-1.0720867706592598
2025-03-23 19:34:38.482,-3.05727902322412
2025-03-23 19:34:38.482,-2.2487025310200126
2025-03-23 19:34:38.482,1.4856398382819573
2025-03-23 19:34:38.482,4.12098072314384
2025-03-23 19:34:38.482,1.7261025427616252
2025-03-23 19:34:38.492,-3.5424723948473713
2025-03-23 19:34:38.492,-4.928141236580552
2025-03-23 19:34:38.492,0.18597000270851416
2025-03-23 19:34:38.492,5.971024884334137
2025-03-23 19:34:38.492,5.080881015854712
2025-03-23 19:34:38.502,-1.940346274028797
2025-03-23 19:34:38.502,-7.163695575058528
2025-03-23 19:34:38.502,-4.769373296817195
2025-03-23 19:34:38.502,2.475495640309922
2025-03-23 19:34:38.511,6.805275067838822
2025-03-23 19:34:38.512,4.031647850787051
2025-03-23 19:34:38.512,-2.3931381128383813
2025-03-23 19:34:38.512,-5.533725350274346
2025-03-23 19:34:38.512,-2.521060411403796
2025-03-23 19:34:38.521,2.639796380802135
2025-03-23 19:34:38.522,3.9719601088273677
2025-03-23 19:34:38.522,0.41400473081901923
2025-03-23 19:34:38.522,-3.3072073417958103
2025-03-23 19:34:38.522,-2.5798380108833623
2025-03-23 19:34:38.531,1.6440513436632136
2025-03-23 19:34:38.532,4.186622802623978
2025-03-23 19:34:38.532,1.8295102339691263
2025-03-23 19:34:38.532,-3.0533583226102112
2025-03-23 19:34:38.532,-5.274787218555463
2025-03-23 19:34:38.541,-2.3533111514610647
2025-03-23 19:34:38.542,3.197344113722076
2025-03-23 19:34:38.542,6.403501114347476
2025-03-23 19:34:38.542,4.2285834721694
2025-03-23 19:34:38.542,-1.8002620785495607
2025-03-23 19:34:38.551,-6.692842608995293
2025-03-23 19:34:38.552,-6.205848413863879
2025-03-23 19:34:38.552,-0.6833437913003605
2025-03-23 19:34:38.552,5.212569352639121
2025-03-23 19:34:38.552,6.740660189884262
2025-03-23 19:34:38.561,3.116866756614067
2025-03-23 19:34:38.561,-2.3310264802452676
2025-03-23 19:34:38.562,-5.425947244284903
2025-03-23 19:34:38.562,-4.354441238997023
2025-03-23 19:34:38.562,-0.38091058943959
2025-03-23 19:34:38.571,3.4455369359661034
2025-03-23 19:34:38.571,4.226382685931489
2025-03-23 19:34:38.572,1.3366882671615397
2025-03-23 19:34:38.572,-2.4798720980323643
2025-03-23 19:34:38.572,-3.299827627350018
2025-03-23 19:34:38.580,-0.4207462928211962
2025-03-23 19:34:38.580,2.509546827518042
2025-03-23 19:34:38.580,2.0279707626566874
2025-03-23 19:34:38.580,-0.7024589466935494
2025-03-23 19:34:38.580,-1.8432489690240965
2025-03-23 19:34:38.590,-0.39962583430708337
2025-03-23 19:34:38.590,0.7427138067416117
2025-03-23 19:34:38.590,-0.4168044022343042
2025-03-23 19:34:38.590,-1.72188656195838
2025-03-23 19:34:38.599,-0.13824793332641994
2025-03-23 19:34:38.600,3.144455769141238
2025-03-23 19:34:38.600,3.5903468538471133
2025-03-23 19:34:38.600,-0.41388121704759717
2025-03-23 19:34:38.600,-4.591425932443515
2025-03-23 19:34:38.609,-3.797866308005776
2025-03-23 19:34:38.610,1.222460489214615
2025-03-23 19:34:38.610,4.392426340662205
2025-03-23 19:34:38.610,1.8785705110336104
2025-03-23 19:34:38.610,-2.8601125836409746
2025-03-23 19:34:38.619,-3.3098579253141054
2025-03-23 19:34:38.620,1.476066025023647
2025-03-23 19:34:38.620,4.98929202889247
2025-03-23 19:34:38.620,1.4894035607903238
2025-03-23 19:34:38.620,-5.562719626741361
2025-03-23 19:34:38.629,-6.6226709802015025
2025-03-23 19:34:38.630,1.5469608882233257
2025-03-23 19:34:38.630,9.905576478773517
2025-03-23 19:34:38.630,7.161142841314308
2025-03-23 19:34:38.630,-5.3150736121515045
2025-03-23 19:34:38.639,-13.350056176054004
2025-03-23 19:34:38.640,-6.684997790193062
2025-03-23 19:34:38.640,7.876498169013623
2025-03-23 19:34:38.640,14.074990146290888
2025-03-23 19:34:38.640,5.4791249792975725
2025-03-23 19:34:38.648,-7.549906979973182
2025-03-23 19:34:38.648,-11.10299216477154
2025-03-23 19:34:38.648,-3.6141795921018884
2025-03-23 19:34:38.648,4.737273690533824
2025-03-23 19:34:38.648,5.750971643334184
2025-03-23 19:34:38.658,1.372983732080739
2025-03-23 19:34:38.658,-1.826532995329822
2025-03-23 19:34:38.658,-1.4011394242832473
2025-03-23 19:34:38.658,0.337106118627915
2025-03-23 19:34:38.658,1.2167217991295765
2025-03-23 19:34:38.668,1.007237504895327
2025-03-23 19:34:38.668,-0.4407955873808485
2025-03-23 19:34:38.668,-3.1103595726477002
2025-03-23 19:34:38.668,-4.588277310911737
2025-03-23 19:34:38.678,-1.4105084096643599
2025-03-23 19:34:38.678,5.487749095656885
2025-03-23 19:34:38.678,9.241009437906321
2025-03-23 19:34:38.678,4.190292897359173
2025-03-23 19:34:38.678,-6.16512500070266
2025-03-23 19:34:38.687,-11.554710972191756
2025-03-23 19:34:38.688,-6.146764336583838
2025-03-23 19:34:38.688,4.747121443605183
2025-03-23 19:34:38.688,10.474974477016378
2025-03-23 19:34:38.688,6.259555020746019
2025-03-23 19:34:38.697,-2.7222195315675815
2025-03-23 19:34:38.698,-7.658070287529671
2025-03-23 19:34:38.698,-4.917418150643494
2025-03-23 19:34:38.698,1.5096469357678473
2025-03-23 19:34:38.698,5.075407375960369
2025-03-23 19:34:38.707,3.222817741856464
2025-03-23 19:34:38.708,-0.9826618316936458
2025-03-23 19:34:38.708,-3.009799471336948
2025-03-23 19:34:38.708,-1.7507033607335831
2025-03-23 19:34:38.708,0.26386104051966097
2025-03-23 19:34:38.717,0.8139053551087687
2025-03-23 19:34:38.718,0.4775614913172672
2025-03-23 19:34:38.718,0.6735798768445509
2025-03-23 19:34:38.718,1.0068327593828867
2025-03-23 19:34:38.718,0.27746027552563524
2025-03-23 19:34:38.727,-0.9159507094526924
2025-03-23 19:34:38.728,-0.8516653480598597
2025-03-23 19:34:38.728,0.2255115505049543
2025-03-23 19:34:38.728,0.09167761943549235
2025-03-23 19:34:38.728,-1.6780420814122918
2025-03-23 19:34:38.737,-2.160268642942997
2025-03-23 19:34:38.738,0.9017672675492384
2025-03-23 19:34:38.738,4.882884859097975
2025-03-23 19:34:38.738,4.575259758967322
2025-03-23 19:34:38.738,-1.0970212725838635
2025-03-23 19:34:38.747,-6.7249198574019005
2025-03-23 19:34:38.748,-6.10615878179909
2025-03-23 19:34:38.748,0.5646505037470781
2025-03-23 19:34:38.748,6.616810656424383
2025-03-23 19:34:38.748,6.124578185745492
2025-03-23 19:34:38.757,0.14355954640846713
2025-03-23 19:34:38.758,-5.009986224818535
2025-03-23 19:34:38.758,-4.954946204937457
2025-03-23 19:34:38.758,-1.1646931549472628
2025-03-23 19:34:38.758,2.254165925305395
2025-03-23 19:34:38.767,3.3928285318147675
2025-03-23 19:34:38.768,2.806982075343399
2025-03-23 19:34:38.768,1.021394623037583
2025-03-23 19:34:38.768,-1.7085886805735078
2025-03-23 19:34:38.768,-3.952477465607175
2025-03-23 19:34:38.777,-3.7775638878853686
2025-03-23 19:34:38.777,-0.9423371722286901
2025-03-23 19:34:38.778,2.8534114385570204
2025-03-23 19:34:38.778,5.461352316179669
2025-03-23 19:34:38.778,4.993536218531076
2025-03-23 19:34:38.786,0.4402605294652494
2025-03-23 19:34:38.786,-6.108276441939623
2025-03-23 19:34:38.786,-8.846588793480594
2025-03-23 19:34:38.786,-3.4933236356136965
2025-03-23 19:34:38.786,6.062837404359614
2025-03-23 19:34:38.796,9.965430504575801
2025-03-23 19:34:38.796,3.666267250307115
2025-03-23 19:34:38.796,-5.71092336579802
2025-03-23 19:34:38.796,-7.640705310816539
2025-03-23 19:34:38.806,-1.0761242580839334
2025-03-23 19:34:38.806,5.067228053972937
2025-03-23 19:34:38.806,3.890207904314016
2025-03-23 19:34:38.806,-1.569203431632567
2025-03-23 19:34:38.806,-3.916211490512827
2025-03-23 19:34:38.815,-1.1446115641304897
2025-03-23 19:34:38.816,2.3107868162193186
2025-03-23 19:34:38.816,2.4004592542689385
2025-03-23 19:34:38.816,-0.05338552408675165
2025-03-23 19:34:38.816,-1.7234386497540515
2025-03-23 19:34:38.826,-1.125853188773335
2025-03-23 19:34:38.826,0.4811062064026673
2025-03-23 19:34:38.826,1.2838468523641793
2025-03-23 19:34:38.826,0.7335010199443518
2025-03-23 19:34:38.826,-0.5165193212725808
2025-03-23 19:34:38.835,-1.4903057460567646
2025-03-23 19:34:38.836,-1.4348771325525174
2025-03-23 19:34:38.836,-0.09416492050531147
2025-03-23 19:34:38.836,1.9021153735182987
2025-03-23 19:34:38.836,2.922001810329883
2025-03-23 19:34:38.845,1.391085338417719
2025-03-23 19:34:38.846,-2.1731335227728934
2025-03-23 19:34:38.846,-4.531730761371999
2025-03-23 19:34:38.846,-2.631944019869893
2025-03-23 19:34:38.846,2.327674249884111
2025-03-23 19:34:38.854,5.252412113966792
2025-03-23 19:34:38.854,2.822893312018058
2025-03-23 19:34:38.854,-2.2676472167596415
2025-03-23 19:34:38.854,-4.357227166064508
2025-03-23 19:34:38.854,-1.619647951016261
2025-03-23 19:34:38.864,1.9653979811066975
2025-03-23 19:34:38.864,1.9600860957079265
2025-03-23 19:34:38.864,-0.7388865635241122
2025-03-23 19:34:38.864,-1.3646695974360052
2025-03-23 19:34:38.865,1.6043633445855736
2025-03-23 19:34:38.874,3.532116901182515
2025-03-23 19:34:38.874,-0.001091402669048086
2025-03-23 19:34:38.874,-5.776683362933854
2025-03-23 19:34:38.874,-5.81995798468256
2025-03-23 19:34:38.874,1.8444724353783313
2025-03-23 19:34:38.884,9.123136263775825
2025-03-23 19:34:38.884,7.11846964246529
2025-03-23 19:34:38.884,-2.6768199047784336
2025-03-23 19:34:38.884,-9.803178955899252
2025-03-23 19:34:38.894,-7.105266357713433
2025-03-23 19:34:38.894,1.6003203347089885
2025-03-23 19:34:38.894,7.147446087596988
2025-03-23 19:34:38.894,5.563424087454796
2025-03-23 19:34:38.894,0.5939805503812003
2025-03-23 19:34:38.894,-2.664314597928359
2025-03-23 19:34:38.904,-3.1840728459538585
2025-03-23 19:34:38.904,-2.587120915397916
2025-03-23 19:34:38.904,-1.3361924390745024
2025-03-23 19:34:38.904,1.2119392463075467
2025-03-23 19:34:38.913,3.928837387041254
2025-03-23 19:34:38.914,3.8344221564279457
2025-03-23 19:34:38.914,-0.06452492807233542
2025-03-23 19:34:38.914,-4.468953245503131
2025-03-23 19:34:38.914,-5.033733241007691
2025-03-23 19:34:38.924,-1.2807521673687252
2025-03-23 19:34:38.924,3.267168439002543
2025-03-23 19:34:38.924,5.2512850683127645
2025-03-23 19:34:38.924,3.969452585268923
2025-03-23 19:34:38.924,0.3195364167743311
2025-03-23 19:34:38.934,-4.214119058167681
2025-03-23 19:34:38.934,-7.122833603346419
2025-03-23 19:34:38.934,-5.579895927621614
2025-03-23 19:34:38.934,0.9574264377157584
2025-03-23 19:34:38.934,8.864958674977961
2025-03-23 19:34:38.943,11.513594549774933
2025-03-23 19:34:38.944,4.210325049914239
2025-03-23 19:34:38.944,-9.353595826716663
2025-03-23 19:34:38.944,-16.811463858264467
2025-03-23 19:34:38.944,-8.441010256733245
2025-03-23 19:34:38.952,9.750803695649207
2025-03-23 19:34:38.952,19.328965185777996
2025-03-23 19:34:38.952,9.462442938567387
2025-03-23 19:34:38.952,-9.664451748068027
2025-03-23 19:34:38.961,-17.835568090755782
2025-03-23 19:34:38.962,-7.709901912872901
2025-03-23 19:34:38.962,7.914507203243379
2025-03-23 19:34:38.962,12.500245676707207
2025-03-23 19:34:38.962,4.712459077049477
2025-03-23 19:34:38.971,-3.3610829945694682
2025-03-23 19:34:38.972,-4.082593007468285
2025-03-23 19:34:38.972,-2.4144865319775057
2025-03-23 19:34:38.972,-4.240138022820087
2025-03-23 19:34:38.972,-5.072280352381017
2025-03-23 19:34:38.980,2.047886454883443
2025-03-23 19:34:38.980,12.140371963768137
2025-03-23 19:34:38.980,11.755060789241702
2025-03-23 19:34:38.980,-2.3783009599256286
2025-03-23 19:34:38.989,-16.224023904553775
2025-03-23 19:34:38.990,-14.261485540629204
2025-03-23 19:34:38.990,1.8069235332982156
2025-03-23 19:34:38.990,15.047362110717543
2025-03-23 19:34:38.990,12.698997325210987
2025-03-23 19:34:38.999,-0.7365020968596658
2025-03-23 19:34:39.000,-10.557533958420194
2025-03-23 19:34:39.000,-8.52181356664473
2025-03-23 19:34:39.000,0.27533816110602016
2025-03-23 19:34:39.000,5.672394572272941
2025-03-23 19:34:39.008,3.930951626976844
2025-03-23 19:34:39.008,-0.4293527843460741
2025-03-23 19:34:39.008,-1.9737709693892282
2025-03-23 19:34:39.008,-0.4688029343509805
2025-03-23 19:34:39.008,0.6290700327486588
2025-03-23 19:34:39.018,-0.5060509707972631
2025-03-23 19:34:39.018,-1.993590285019794
2025-03-23 19:34:39.018,-1.0721368445285728
2025-03-23 19:34:39.018,2.145122915916111
2025-03-23 19:34:39.027,4.28570491772421
2025-03-23 19:34:39.028,2.2830861858775595
2025-03-23 19:34:39.028,-2.7668919245364245
2025-03-23 19:34:39.028,-6.047794870286633
2025-03-23 19:34:39.028,-3.9456648331897957
2025-03-23 19:34:39.037,1.8961012444375775
2025-03-23 19:34:39.038,6.133880795786647
2025-03-23 19:34:39.038,5.07444449427151
2025-03-23 19:34:39.038,-0.060277328170266625
2025-03-23 19:34:39.038,-4.730346735159531
2025-03-23 19:34:39.047,-5.139173951641955
2025-03-23 19:34:39.048,-1.1538023089333809
2025-03-23 19:34:39.048,3.6372155816232254
2025-03-23 19:34:39.048,4.761349249767474
2025-03-23 19:34:39.048,0.9534082703594302
2025-03-23 19:34:39.057,-4.106852272494133
2025-03-23 19:34:39.058,-5.038753216910901
2025-03-23 19:34:39.058,-0.44622230903781795
2025-03-23 19:34:39.058,5.1679119192772704
2025-03-23 19:34:39.058,5.954569083571708
2025-03-23 19:34:39.067,1.0322671466522584
2025-03-23 19:34:39.068,-4.583903577791486
2025-03-23 19:34:39.068,-5.663029764498284
2025-03-23 19:34:39.068,-2.367661339437171
2025-03-23 19:34:39.068,1.0417963311973906
2025-03-23 19:34:39.077,2.2580142028011014
2025-03-23 19:34:39.078,2.9714770996958713
2025-03-23 19:34:39.078,4.285633167049568
2025-03-23 19:34:39.078,3.4815153791266895
2025-03-23 19:34:39.078,-1.7868945736317543
2025-03-23 19:34:39.087,-8.062681055119375
2025-03-23 19:34:39.088,-8.56295686164235
2025-03-23 19:34:39.088,-1.2205511667637525
2025-03-23 19:34:39.088,8.09425900696043
2025-03-23 19:34:39.088,10.999787698896794
2025-03-23 19:34:39.096,4.510221585605276
2025-03-23 19:34:39.096,-5.9594275382644755
2025-03-23 19:34:39.096,-10.940291717232007
2025-03-23 19:34:39.096,-5.66116077681943
2025-03-23 19:34:39.105,4.529709578109817
2025-03-23 19:34:39.106,9.098757923778102
2025-03-23 19:34:39.106,3.911027791369013
2025-03-23 19:34:39.106,-4.113927372933763
2025-03-23 19:34:39.106,-5.811953178206079
2025-03-23 19:34:39.116,-0.953511027704996
2025-03-23 19:34:39.116,2.911419516179381
2025-03-23 19:34:39.116,1.5785374832214094
2025-03-23 19:34:39.116,-0.9135824321169941
2025-03-23 19:34:39.116,0.05499714012906984
2025-03-23 19:34:39.126,2.1481857762353225
2025-03-23 19:34:39.126,0.4742460486866762
2025-03-23 19:34:39.126,-3.5828421550254586
2025-03-23 19:34:39.126,-3.697554791843989
2025-03-23 19:34:39.126,1.6067650639308506
2025-03-23 19:34:39.136,5.870060703447427
2025-03-23 19:34:39.136,3.243041888952469
2025-03-23 19:34:39.136,-3.5336645715723947
2025-03-23 19:34:39.136,-6.539497547421654
2025-03-23 19:34:39.136,-2.4298904132339167
2025-03-23 19:34:39.145,3.9641345558952756
2025-03-23 19:34:39.146,5.832786938414025
2025-03-23 19:34:39.146,2.1113241196423536
2025-03-23 19:34:39.146,-2.346306566401275
2025-03-23 19:34:39.146,-3.370005567469457
2025-03-23 19:34:39.155,-1.9227811862604895
2025-03-23 19:34:39.156,-1.0613581826360314
2025-03-23 19:34:39.156,-0.7400191795767614
2025-03-23 19:34:39.156,1.3889713501905276
2025-03-23 19:34:39.156,4.658375670557705
2025-03-23 19:34:39.165,4.682843473596659
2025-03-23 19:34:39.166,-0.4727612557167663
2025-03-23 19:34:39.166,-6.231762939766455
2025-03-23 19:34:39.166,-6.307070514657011
2025-03-23 19:34:39.166,-0.42974580294348746
2025-03-23 19:34:39.175,5.193887273824018
2025-03-23 19:34:39.175,5.156212063133164
2025-03-23 19:34:39.176,0.6841719253461378
2025-03-23 19:34:39.176,-2.69096456398036
2025-03-23 19:34:39.176,-2.1506457648348105
2025-03-23 19:34:39.184,-0.34755932168239423
2025-03-23 19:34:39.184,-0.64456877676717
2025-03-23 19:34:39.184,-1.7424612006407656
2025-03-23 19:34:39.184,0.22132232965016457
2025-03-23 19:34:39.184,4.736874012313931
2025-03-23 19:34:39.194,5.7859546929710906
2025-03-23 19:34:39.194,-0.30766282854016913
2025-03-23 19:34:39.194,-8.33805365127054
2025-03-23 19:34:39.194,-9.06334959695693
2025-03-23 19:34:39.203,-0.4323804989779602
2025-03-23 19:34:39.204,9.217700643217585
2025-03-23 19:34:39.204,10.434132207969446
2025-03-23 19:34:39.204,2.757409069634171
2025-03-23 19:34:39.204,-6.1523810717502165
2025-03-23 19:34:39.214,-9.346598304976597
2025-03-23 19:34:39.214,-5.986077581175696
2025-03-23 19:34:39.214,0.5227088707462038
2025-03-23 19:34:39.214,6.176798956960772
2025-03-23 19:34:39.214,7.86476391497311
2025-03-23 19:34:39.223,4.37997529409205
2025-03-23 19:34:39.224,-2.046721757173656
2025-03-23 19:34:39.224,-6.503594038513617
2025-03-23 19:34:39.224,-5.646342057314421
2025-03-23 19:34:39.224,-1.1418969115136859
2025-03-23 19:34:39.234,2.39353250868756
2025-03-23 19:34:39.234,2.8013653830062113
2025-03-23 19:34:39.234,2.0446483311406243
2025-03-23 19:34:39.234,2.0827582450900626
2025-03-23 19:34:39.234,1.5140134869378983
2025-03-23 19:34:39.243,-1.5299212597704845
2025-03-23 19:34:39.244,-4.80949283144803
2025-03-23 19:34:39.244,-3.784452744916286
2025-03-23 19:34:39.244,1.6718959608870716
2025-03-23 19:34:39.244,5.6024530553758245
2025-03-23 19:34:39.253,3.046586113090054
2025-03-23 19:34:39.254,-3.160276826969448
2025-03-23 19:34:39.254,-5.492417279497046
2025-03-23 19:34:39.254,-1.1770189020667585
2025-03-23 19:34:39.254,4.391866509737331
2025-03-23 19:34:39.263,4.686497082338052
2025-03-23 19:34:39.264,0.07380054469632641
2025-03-23 19:34:39.264,-3.4927068832249946
2025-03-23 19:34:39.264,-2.53346900892289
2025-03-23 19:34:39.264,0.2929438623783215
2025-03-23 19:34:39.274,0.9346728042619337
2025-03-23 19:34:39.274,-0.5459045508612844
2025-03-23 19:34:39.274,-1.0268535625290427
2025-03-23 19:34:39.274,0.7996909791495644
2025-03-23 19:34:39.274,2.8289738761116237
2025-03-23 19:34:39.282,2.4559817095096466
2025-03-23 19:34:39.282,-0.42386642673740793
2025-03-23 19:34:39.282,-3.3711686205429623
2025-03-23 19:34:39.282,-3.61115264872201
2025-03-23 19:34:39.282,-0.5892721952874485
2025-03-23 19:34:39.292,3.020440307455215
2025-03-23 19:34:39.292,3.458148657938842
2025-03-23 19:34:39.292,0.06321663532314184
2025-03-23 19:34:39.292,-3.200072692097154
2025-03-23 19:34:39.293,-1.9999186976071455
2025-03-23 19:34:39.302,2.5181738497305006
2025-03-23 19:34:39.302,4.261056010403833
2025-03-23 19:34:39.302,-0.08745848019092523
2025-03-23 19:34:39.302,-5.752055311451085
2025-03-23 19:34:39.312,-5.125305456678106
2025-03-23 19:34:39.312,2.121352671101741
2025-03-23 19:34:39.312,7.646444900837109
2025-03-23 19:34:39.312,4.609451017269358
2025-03-23 19:34:39.312,-3.527957249182313
2025-03-23 19:34:39.322,-7.237986154875834
2025-03-23 19:34:39.322,-2.738085603478324
2025-03-23 19:34:39.322,3.8467847262216823
2025-03-23 19:34:39.322,4.808038023237761
2025-03-23 19:34:39.322,0.37147412837626587
2025-03-23 19:34:39.332,-2.7101367355672252
2025-03-23 19:34:39.332,-0.8487587549572322
2025-03-23 19:34:39.332,1.808177382416628
2025-03-23 19:34:39.332,0.06985044797396028
2025-03-23 19:34:39.332,-3.9679666052308904
2025-03-23 19:34:39.342,-3.3534100460979506
2025-03-23 19:34:39.342,3.2111007488639656
2025-03-23 19:34:39.342,7.914356509080445
2025-03-23 19:34:39.342,3.679729434539026
2025-03-23 19:34:39.342,-5.554643479756189
2025-03-23 19:34:39.351,-8.900629101498682
2025-03-23 19:34:39.352,-2.349566851127211
2025-03-23 19:34:39.352,6.046310788565165
2025-03-23 19:34:39.352,6.554752891079945
2025-03-23 19:34:39.352,-0.2552360875237032
2025-03-23 19:34:39.361,-5.3037116947568705
2025-03-23 19:34:39.362,-2.9836861854643324
2025-03-23 19:34:39.362,2.7418937683939753
2025-03-23 19:34:39.362,4.607230842627195
2025-03-23 19:34:39.362,0.9661867873075571
2025-03-23 19:34:39.371,-3.485543794201705
2025-03-23 19:34:39.372,-4.069560575546153
2025-03-23 19:34:39.372,-0.987324016414726
2025-03-23 19:34:39.372,1.9558660401216605
2025-03-23 19:34:39.372,2.099845507075464
2025-03-23 19:34:39.381,0.6457109625740829
2025-03-23 19:34:39.382,0.5308347109073794
2025-03-23 19:34:39.382,2.1208718329214973
2025-03-23 19:34:39.382,2.2619805202288625
2025-03-23 19:34:39.382,-1.513687078424427
2025-03-23 19:34:39.392,-6.573346128960253
2025-03-23 19:34:39.392,-6.824014825803031
2025-03-23 19:34:39.392,0.11223183354702632
2025-03-23 19:34:39.392,8.465295835471007
2025-03-23 19:34:39.392,9.48548654359972
2025-03-23 19:34:39.401,1.6014504863185441
2025-03-23 19:34:39.402,-7.031346124370282
2025-03-23 19:34:39.402,-7.8529486205637475
2025-03-23 19:34:39.402,-1.6239065806513184
2025-03-23 19:34:39.402,3.7931777542780636
2025-03-23 19:34:39.411,3.653130165240817
2025-03-23 19:34:39.411,0.5874693442274483
2025-03-23 19:34:39.412,-0.9845738877250497
2025-03-23 19:34:39.412,-0.5630110053548312
2025-03-23 19:34:39.412,-0.14912585594010488
2025-03-23 19:34:39.421,-0.2374282372523936
2025-03-23 19:34:39.422,0.117480568937426
2025-03-23 19:34:39.422,0.6995346739436092
2025-03-23 19:34:39.422,0.21505998558549644
2025-03-23 19:34:39.422,-1.2018564803815779
2025-03-23 19:34:39.432,-1.5475136630682274
2025-03-23 19:34:39.432,0.3455951936038225
2025-03-23 19:34:39.432,2.684456858031655
2025-03-23 19:34:39.432,2.299304714633901
2025-03-23 19:34:39.432,-1.4380664481325474
2025-03-23 19:34:39.441,-4.845925460008667
2025-03-23 19:34:39.442,-3.279382717898284
2025-03-23 19:34:39.442,3.0757143959331463
2025-03-23 19:34:39.442,7.8697274259415115
2025-03-23 19:34:39.442,4.89320689268736
2025-03-23 19:34:39.450,-4.206749888385366
2025-03-23 19:34:39.450,-10.38283947032312
2025-03-23 19:34:39.450,-6.643118751097703
2025-03-23 19:34:39.450,3.818189345671123
2025-03-23 19:34:39.460,10.53554638900943
2025-03-23 19:34:39.460,6.958950579845922
2025-03-23 19:34:39.460,-2.6090506457203704
2025-03-23 19:34:39.460,-8.118203552027438
2025-03-23 19:34:39.460,-4.856093351533712
2025-03-23 19:34:39.470,2.1887298845870924
2025-03-23 19:34:39.470,4.998847652702206
2025-03-23 19:34:39.470,1.5872730117515204
2025-03-23 19:34:39.470,-2.9528130188774333
2025-03-23 19:34:39.470,-3.2701912933079957
2025-03-23 19:34:39.479,0.4316483055303551
2025-03-23 19:34:39.480,3.6037144507803074
2025-03-23 19:34:39.480,2.9023649483068032
2025-03-23 19:34:39.480,-0.4165352740081011
2025-03-23 19:34:39.480,-2.4647258376677836
2025-03-23 19:34:39.489,-1.538554184085523
2025-03-23 19:34:39.489,-0.07686313909892026
2025-03-23 19:34:39.490,-0.9199321014737027
2025-03-23 19:34:39.490,-2.545560922653915
2025-03-23 19:34:39.490,-0.6591003448566622
2025-03-23 19:34:39.498,4.856518463413218
2025-03-23 19:34:39.498,7.708551144683771
2025-03-23 19:34:39.498,2.6317027625557725
2025-03-23 19:34:39.499,-6.658627768122083
2025-03-23 19:34:39.499,-10.482847906702546
2025-03-23 19:34:39.508,-4.3901096906138175
2025-03-23 19:34:39.508,5.43329969371609
2025-03-23 19:34:39.508,9.192356870751281
2025-03-23 19:34:39.508,4.24526747930326
2025-03-23 19:34:39.508,-2.86050044678012
2025-03-23 19:34:39.518,-4.68257743341892
2025-03-23 19:34:39.518,-1.3597374383724465
2025-03-23 19:34:39.518,0.7544350217411275
2025-03-23 19:34:39.518,-1.564933988347664
2025-03-23 19:34:39.527,-3.5049398422763147
2025-03-23 19:34:39.528,0.7417184942387784
2025-03-23 19:34:39.528,8.011672323079974
2025-03-23 19:34:39.528,8.29393175915196
2025-03-23 19:34:39.528,-1.8398485958362516
2025-03-23 19:34:39.537,-12.476783749030917
2025-03-23 19:34:39.538,-11.100630301709394
2025-03-23 19:34:39.538,1.9048707747662919
2025-03-23 19:34:39.538,13.008795351109013
2025-03-23 19:34:39.538,11.04350795074166
2025-03-23 19:34:39.546,-0.7273348864022258
2025-03-23 19:34:39.546,-9.617383409459801
2025-03-23 19:34:39.546,-7.987140573241155
2025-03-23 19:34:39.546,-0.1460683513968476
2025-03-23 19:34:39.556,4.445023862989933
2025-03-23 19:34:39.556,2.3337632906127865
2025-03-23 19:34:39.556,-1.148674367367476
2025-03-23 19:34:39.556,0.08071280893707959
2025-03-23 19:34:39.556,4.304389304008966
2025-03-23 19:34:39.556,4.134675614187708
2025-03-23 19:34:39.566,-2.894237108085715
2025-03-23 19:34:39.566,-9.38807415189918
2025-03-23 19:34:39.566,-6.510189288690649
2025-03-23 19:34:39.566,4.3142245612225345
2025-03-23 19:34:39.575,11.726677152143166
2025-03-23 19:34:39.575,7.189316986996373
2025-03-23 19:34:39.576,-5.000149087233938
2025-03-23 19:34:39.576,-12.190701597572998
2025-03-23 19:34:39.576,-7.046087657572134
2025-03-23 19:34:39.585,4.890993737727275
2025-03-23 19:34:39.585,11.539486613174663
2025-03-23 19:34:39.585,6.963296446131093
2025-03-23 19:34:39.586,-3.365130300671721
2025-03-23 19:34:39.586,-9.386539844508539
2025-03-23 19:34:39.595,-6.690265553211905
2025-03-23 19:34:39.596,0.6938079173279441
2025-03-23 19:34:39.596,5.859936958055589
2025-03-23 19:34:39.596,5.433369243984864
2025-03-23 19:34:39.596,1.1892797532060626
2025-03-23 19:34:39.605,-2.5747382766470013
2025-03-23 19:34:39.605,-2.89804603598822
2025-03-23 19:34:39.606,-0.5488400261182901
2025-03-23 19:34:39.606,1.1191031130444034
2025-03-23 19:34:39.606,0.1352718670902434
2025-03-23 19:34:39.615,-1.7371112232466246
2025-03-23 19:34:39.615,-1.444805559896179
2025-03-23 19:34:39.616,1.161621637337847
2025-03-23 19:34:39.616,3.0414028100927637
2025-03-23 19:34:39.616,1.9962498579761419
2025-03-23 19:34:39.624,-0.528890663640397
2025-03-23 19:34:39.624,-1.6995577139217133
2025-03-23 19:34:39.624,-1.2354652780521298
2025-03-23 19:34:39.624,-1.1669594083296246
2025-03-23 19:34:39.634,-1.8478456599666022
2025-03-23 19:34:39.634,-0.8525278316488539
2025-03-23 19:34:39.634,2.7748458629574904
2025-03-23 19:34:39.634,5.493970193556244
2025-03-23 19:34:39.634,3.1788421691566096
2025-03-23 19:34:39.644,-2.9521141910685333
2025-03-23 19:34:39.644,-7.018112171093374
2025-03-23 19:34:39.644,-5.075982531726027
2025-03-23 19:34:39.644,0.9168009033432314
2025-03-23 19:34:39.644,5.80122676735583
2025-03-23 19:34:39.653,6.180784822915228
2025-03-23 19:34:39.654,2.4200335169706824
2025-03-23 19:34:39.654,-2.659390681933753
2025-03-23 19:34:39.654,-5.90272783678845
2025-03-23 19:34:39.654,-5.328719627756279
2025-03-23 19:34:39.663,-1.1256233948016152
2025-03-23 19:34:39.664,4.041755143040453
2025-03-23 19:34:39.664,6.439990247354463
2025-03-23 19:34:39.664,4.192948932233789
2025-03-23 19:34:39.664,-0.9374299882970029
2025-03-23 19:34:39.673,-5.087978569139214
2025-03-23 19:34:39.674,-5.5500273424539115
2025-03-23 19:34:39.674,-2.443346038433563
2025-03-23 19:34:39.674,1.9609824918707646
2025-03-23 19:34:39.674,4.8121627327195995
2025-03-23 19:34:39.683,4.326326829319836
2025-03-23 19:34:39.683,1.0744958820361918
2025-03-23 19:34:39.683,-2.382576004970764
2025-03-23 19:34:39.684,-3.7088570762923805
2025-03-23 19:34:39.684,-2.5394416431186646
2025-03-23 19:34:39.693,-0.08513781082221394
2025-03-23 19:34:39.694,2.016228819893348
2025-03-23 19:34:39.694,2.253734343508309
2025-03-23 19:34:39.694,0.2723945497577564
2025-03-23 19:34:39.694,-1.7905690310070825
2025-03-23 19:34:39.702,-0.8727792159221636
2025-03-23 19:34:39.702,2.561284255671094
2025-03-23 19:34:39.702,3.670600221137904
2025-03-23 19:34:39.702,-0.5880627670656876
2025-03-23 19:34:39.703,-6.05633914519036
2025-03-23 19:34:39.712,-5.691861919920184
2025-03-23 19:34:39.712,1.103271824495706
2025-03-23 19:34:39.712,7.074471186212227
2025-03-23 19:34:39.712,5.858201117000037
2025-03-23 19:34:39.712,-0.7062798104375955
2025-03-23 19:34:39.722,-5.452650605251335
2025-03-23 19:34:39.722,-4.181529664742509
2025-03-23 19:34:39.722,0.6048081919748869
2025-03-23 19:34:39.722,3.450516426236004
2025-03-23 19:34:39.722,1.9520545975966104
2025-03-23 19:34:39.732,-1.3019502688196867
2025-03-23 19:34:39.732,-2.283914887769999
2025-03-23 19:34:39.732,-0.24497934901055265
2025-03-23 19:34:39.732,1.845505928865634
2025-03-23 19:34:39.742,1.3670165262546914
2025-03-23 19:34:39.742,-0.7282022477224139
2025-03-23 19:34:39.742,-1.5060142663231242
2025-03-23 19:34:39.742,-0.03056067017812758
2025-03-23 19:34:39.742,1.4750404033697764
2025-03-23 19:34:39.751,0.6272646804287739
2025-03-23 19:34:39.752,-1.751772976899454
2025-03-23 19:34:39.752,-2.27704559876489
2025-03-23 19:34:39.752,0.5810603630820932
2025-03-23 19:34:39.752,3.7124488917960594
2025-03-23 19:34:39.761,2.6492464629178243
2025-03-23 19:34:39.762,-2.3847972712663146
2025-03-23 19:34:39.762,-5.703127652515372
2025-03-23 19:34:39.762,-2.609113435525933
2025-03-23 19:34:39.762,4.51758882147707
2025-03-23 19:34:39.771,8.065379450300172
2025-03-23 19:34:39.772,3.2662309132437084
2025-03-23 19:34:39.772,-6.105442366079471
2025-03-23 19:34:39.772,-10.717949496082463
2025-03-23 19:34:39.772,-5.066959574698584
2025-03-23 19:34:39.780,6.150686529157866
2025-03-23 19:34:39.780,12.126969621410039
2025-03-23 19:34:39.780,6.968105545189016
2025-03-23 19:34:39.780,-4.222831770558041
2025-03-23 19:34:39.790,-10.877524432665997
2025-03-23 19:34:39.790,-7.614623645581509
2025-03-23 19:34:39.790,1.443245805002873
2025-03-23 19:34:39.790,7.8222296355852885
2025-03-23 19:34:39.790,6.625816313653077
2025-03-23 19:34:39.791,0.008081766840362548
2025-03-23 19:34:39.800,-5.447005250581238
2025-03-23 19:34:39.800,-4.787603166937028
2025-03-23 19:34:39.800,0.6563967825594954
2025-03-23 19:34:39.800,4.791709609573234
2025-03-23 19:34:39.800,3.5145038236563075
2025-03-23 19:34:39.810,-1.131881955662108
2025-03-23 19:34:39.810,-4.343339862039446
2025-03-23 19:34:39.810,-4.074096881559059
2025-03-23 19:34:39.810,-1.377097888703645
2025-03-23 19:34:39.819,2.487385132854199
2025-03-23 19:34:39.820,6.066926576751344
2025-03-23 19:34:39.820,6.169485647845379
2025-03-23 19:34:39.820,0.4951445538288405
2025-03-23 19:34:39.820,-7.426160123295225
2025-03-23 19:34:39.830,-9.604871928405787
2025-03-23 19:34:39.830,-2.5699856862813717
2025-03-23 19:34:39.830,6.97189530966245
2025-03-23 19:34:39.830,8.873760149585097
2025-03-23 19:34:39.830,1.6756311669467248
2025-03-23 19:34:39.840,-5.543426126792387
2025-03-23 19:34:39.840,-4.635691722248108
2025-03-23 19:34:39.840,1.715851919196635
2025-03-23 19:34:39.840,4.515035647623185
2025-03-23 19:34:39.840,0.5203339506005312
2025-03-23 19:34:39.849,-4.512933535496405
2025-03-23 19:34:39.850,-4.344799637733885
2025-03-23 19:34:39.850,0.31726474138212835
2025-03-23 19:34:39.850,4.338821123308681
2025-03-23 19:34:39.850,4.648307484283294
2025-03-23 19:34:39.860,1.8432708190502898
2025-03-23 19:34:39.860,-2.1145542248442295
2025-03-23 19:34:39.860,-4.895045825752111
2025-03-23 19:34:39.860,-4.089507164367893
2025-03-23 19:34:39.860,0.3891004599977206
2025-03-23 19:34:39.869,4.674100927474987
2025-03-23 19:34:39.870,4.365696911658575
2025-03-23 19:34:39.870,-0.17227357493773415
2025-03-23 19:34:39.870,-3.9250383374771287
2025-03-23 19:34:39.870,-3.1389217251190744
2025-03-23 19:34:39.879,0.5386493815686622
2025-03-23 19:34:39.880,2.730240323641217
2025-03-23 19:34:39.880,1.7516881732736715
2025-03-23 19:34:39.880,-0.24349530714033388
2025-03-23 19:34:39.880,-0.9226254414307751
2025-03-23 19:34:39.889,-0.564014035737805
2025-03-23 19:34:39.890,-0.6813570451434554
2025-03-23 19:34:39.890,-1.3719616784118696
2025-03-23 19:34:39.890,-1.1706726488329822
2025-03-23 19:34:39.890,0.857602445954849
2025-03-23 19:34:39.899,3.4709559190132
2025-03-23 19:34:39.899,3.844828062409879
2025-03-23 19:34:39.900,0.35123008353837726
2025-03-23 19:34:39.900,-4.769160792727725
2025-03-23 19:34:39.900,-6.419215701853318
2025-03-23 19:34:39.909,-1.844362665976562
2025-03-23 19:34:39.909,5.272191726640568
2025-03-23 19:34:39.910,7.6610044315182755
2025-03-23 19:34:39.910,2.397266207010973
2025-03-23 19:34:39.910,-5.200482228828614
2025-03-23 19:34:39.919,-7.208319657008199
2025-03-23 19:34:39.919,-2.1018427209911104
2025-03-23 19:34:39.920,3.950505649963781
2025-03-23 19:34:39.920,4.975154661357702
2025-03-23 19:34:39.920,1.7671015063616715
2025-03-23 19:34:39.928,-0.8991246996993101
2025-03-23 19:34:39.928,-1.1763142477689799
2025-03-23 19:34:39.928,-1.2454916776518739
2025-03-23 19:34:39.928,-2.477556780321801
2025-03-23 19:34:39.938,-2.9173899686733176
2025-03-23 19:34:39.938,-0.5105241071780974
2025-03-23 19:34:39.938,3.388378349891136
2025-03-23 19:34:39.938,5.264217087613028
2025-03-23 19:34:39.938,3.300725226464936
2025-03-23 19:34:39.948,-1.0215824737360588
2025-03-23 19:34:39.948,-4.583554879315868
2025-03-23 19:34:39.948,-5.0750528668419
2025-03-23 19:34:39.948,-2.3438690886537685
2025-03-23 19:34:39.948,1.6518657422085354
2025-03-23 19:34:39.957,4.20219512990354
2025-03-23 19:34:39.958,3.841266042293557
2025-03-23 19:34:39.958,1.3167494886467923
2025-03-23 19:34:39.958,-1.3967570149240922
2025-03-23 19:34:39.958,-2.8110866902878864
2025-03-23 19:34:39.967,-2.61181084800844
2025-03-23 19:34:39.968,-1.2317495245191543
2025-03-23 19:34:39.968,0.6357312030099043
2025-03-23 19:34:39.968,2.153860903579026
2025-03-23 19:34:39.968,2.5008450936136097
2025-03-23 19:34:39.978,1.3372257471015159
2025-03-23 19:34:39.978,-0.7819528268854253
2025-03-23 19:34:39.978,-2.5967982872924686
2025-03-23 19:34:39.978,-2.906418879965842
2025-03-23 19:34:39.978,-1.2747165524441582
2025-03-23 19:34:39.987,1.697970598305451
2025-03-23 19:34:39.987,4.363868638077132
2025-03-23 19:34:39.988,4.446177996547139
2025-03-23 19:34:39.988,0.5867163843514857
2025-03-23 19:34:39.988,-5.427114159704142
2025-03-23 19:34:39.997,-8.460193680294497
2025-03-23 19:34:39.998,-4.153144382219024
2025-03-23 19:34:39.998,5.393981119701995
2025-03-23 19:34:39.998,11.576272031325129
2025-03-23 19:34:39.998,7.531032777440119
2025-03-23 19:34:40.006,-3.688872737554541
2025-03-23 19:34:40.006,-11.593055161066712
2025-03-23 19:34:40.006,-9.223968517401007
2025-03-23 19:34:40.006,0.38639139833308395
2025-03-23 19:34:40.015,8.551735784671001
2025-03-23 19:34:40.016,9.132568083506165
2025-03-23 19:34:40.016,2.5424495517529966
2025-03-23 19:34:40.016,-5.326778380353777
2025-03-23 19:34:40.016,-7.6257976794689455
2025-03-23 19:34:40.026,-2.6144171340974798
2025-03-23 19:34:40.026,4.102862252591443
2025-03-23 19:34:40.026,5.323374172713155
2025-03-23 19:34:40.026,0.3958618347867485
2025-03-23 19:34:40.026,-4.350680355852386
2025-03-23 19:34:40.036,-3.492676000007336
2025-03-23 19:34:40.036,1.3786215293385577
2025-03-23 19:34:40.036,4.404534018286231
2025-03-23 19:34:40.036,2.6085653742009427
2025-03-23 19:34:40.036,-1.4473822129807645
2025-03-23 19:34:40.045,-3.5102998837469976
2025-03-23 19:34:40.046,-2.1683262276522988
2025-03-23 19:34:40.046,0.8127678913617946
2025-03-23 19:34:40.046,2.840322064419843
2025-03-23 19:34:40.046,2.1574452601913996
2025-03-23 19:34:40.056,-1.1321452934364329
2025-03-23 19:34:40.056,-4.1373472377420235
2025-03-23 19:34:40.056,-2.895199178666914
2025-03-23 19:34:40.056,2.7338710762740344
2025-03-23 19:34:40.056,7.039026247429123
2025-03-23 19:34:40.066,4.196470930824597
2025-03-23 19:34:40.066,-4.056209903827419
2025-03-23 19:34:40.066,-9.23503792366744
2025-03-23 19:34:40.066,-5.510002067484507
2025-03-23 19:34:40.066,3.6371415652084123
2025-03-23 19:34:40.075,9.278291952239076
2025-03-23 19:34:40.076,6.305792343981724
2025-03-23 19:34:40.076,-2.0405179373355518
2025-03-23 19:34:40.076,-7.875159044456067
2025-03-23 19:34:40.076,-6.131656864025682
2025-03-23 19:34:40.085,0.9296799752290571
2025-03-23 19:34:40.085,6.156286953282827
2025-03-23 19:34:40.086,4.819132375506966
2025-03-23 19:34:40.086,-0.7040533832214619
2025-03-23 19:34:40.086,-4.201173636624981
2025-03-23 19:34:40.096,-2.851981459555365
2025-03-23 19:34:40.096,0.4293711179255282
2025-03-23 19:34:40.096,1.731655908129981
2025-03-23 19:34:40.096,0.9595526921779648
2025-03-23 19:34:40.096,0.5143715066787332
2025-03-23 19:34:40.105,0.86076101872823
2025-03-23 19:34:40.106,0.1690430074298313
2025-03-23 19:34:40.106,-1.768987063847334
2025-03-23 19:34:40.106,-2.338071383142756
2025-03-23 19:34:40.106,-0.12841889864438585
2025-03-23 19:34:40.115,2.347390654326701
2025-03-23 19:34:40.115,2.0317936407108452
2025-03-23 19:34:40.116,-0.37219877622157627
2025-03-23 19:34:40.116,-1.7573695302109111
2025-03-23 19:34:40.116,-1.0715591052984446
2025-03-23 19:34:40.125,0.008267877119443864
2025-03-23 19:34:40.126,0.3516259338709004
2025-03-23 19:34:40.126,0.7869057788642682
2025-03-23 19:34:40.126,1.7167638755602592
2025-03-23 19:34:40.126,1.5526783432425557
2025-03-23 19:34:40.135,-0.8731014447184274
2025-03-23 19:34:40.135,-3.640351417480885
2025-03-23 19:34:40.136,-3.5129166197642943
2025-03-23 19:34:40.136,-0.07519260006353706
2025-03-23 19:34:40.136,3.595514571197313
2025-03-23 19:34:40.144,4.463234852372887
2025-03-23 19:34:40.144,2.3548535590220188
2025-03-23 19:34:40.144,-0.8565046821441531
2025-03-23 19:34:40.144,-3.3679900223898684
2025-03-23 19:34:40.145,-4.1225931908410605
2025-03-23 19:34:40.155,-2.671708042035897
2025-03-23 19:34:40.156,0.40906505022396544
2025-03-23 19:34:40.156,3.3741332956642975
2025-03-23 19:34:40.156,4.438016526306943
2025-03-23 19:34:40.156,3.0039867464256322
2025-03-23 19:34:40.164,-0.2856367008325491
2025-03-23 19:34:40.164,-3.8777477626269565
2025-03-23 19:34:40.164,-5.417409632176853
2025-03-23 19:34:40.164,-3.0102191892336077
2025-03-23 19:34:40.174,2.3014684938056447
2025-03-23 19:34:40.174,6.177365409693347
2025-03-23 19:34:40.174,4.764851545097321
2025-03-23 19:34:40.174,-0.9776683049773769
2025-03-23 19:34:40.174,-5.715638813265062
2025-03-23 19:34:40.184,-4.964689284665531
2025-03-23 19:34:40.184,0.36106810347420915
2025-03-23 19:34:40.184,4.8894846932197
2025-03-23 19:34:40.184,4.323250436440362
2025-03-23 19:34:40.184,-0.21866554286333473
2025-03-23 19:34:40.194,-3.773712584145493
2025-03-23 19:34:40.194,-3.159120080556141
2025-03-23 19:34:40.194,-0.020152238493250374
2025-03-23 19:34:40.194,1.9331930821336913
2025-03-23 19:34:40.194,1.439797933407744
2025-03-23 19:34:40.204,0.36752368179438644
2025-03-23 19:34:40.204,0.49081322323791715
2025-03-23 19:34:40.204,0.9673028697729925
2025-03-23 19:34:40.204,-0.27142863868374456
2025-03-23 19:34:40.204,-2.978741969501324
2025-03-23 19:34:40.214,-3.7662419645041605
2025-03-23 19:34:40.214,-0.16273976593594763
2025-03-23 19:34:40.214,5.025531747571213
2025-03-23 19:34:40.214,5.7609870633084395
2025-03-23 19:34:40.214,0.1850983104441457
2025-03-23 19:34:40.224,-6.041439454861241
2025-03-23 19:34:40.224,-5.900552614667899
2025-03-23 19:34:40.224,0.46102725605969014
2025-03-23 19:34:40.224,5.792801328553605
2025-03-23 19:34:40.224,4.461518100176241
2025-03-23 19:34:40.234,-1.1856296367036867
2025-03-23 19:34:40.234,-4.455723270698194
2025-03-23 19:34:40.234,-2.578879545356207
2025-03-23 19:34:40.234,1.020832403996844
2025-03-23 19:34:40.234,2.2128958754645542
2025-03-23 19:34:40.244,1.0694761899018064
2025-03-23 19:34:40.244,0.20756070685931566
2025-03-23 19:34:40.244,0.44374137035048855
2025-03-23 19:34:40.244,0.24505147064177996
2025-03-23 19:34:40.244,-1.2532824878796955
2025-03-23 19:34:40.254,-2.6124576826803323
2025-03-23 19:34:40.254,-1.8543574761957087
2025-03-23 19:34:40.254,0.9633499612126725
2025-03-23 19:34:40.254,3.44151720225145
2025-03-23 19:34:40.254,3.1620908303883617
2025-03-23 19:34:40.263,0.2590399554135966
2025-03-23 19:34:40.264,-2.591765928523945
2025-03-23 19:34:40.264,-2.9491071482816213
2025-03-23 19:34:40.264,-1.0786655235581906
2025-03-23 19:34:40.264,0.7351659468824875
2025-03-23 19:34:40.274,1.0753036692263795
2025-03-23 19:34:40.274,0.7680132647684574
2025-03-23 19:34:40.274,1.0483140415037189
2025-03-23 19:34:40.274,1.3014068307197448
2025-03-23 19:34:40.274,-0.013572709505050583
2025-03-23 19:34:40.284,-2.387402327436276
2025-03-23 19:34:40.284,-3.0124462938617764
2025-03-23 19:34:40.284,-0.35288878409709346
2025-03-23 19:34:40.284,3.3258683890158207
2025-03-23 19:34:40.284,4.160939473274128
2025-03-23 19:34:40.294,0.8820107807418927
2025-03-23 19:34:40.294,-3.7984323623364555
2025-03-23 19:34:40.294,-5.551161465554634
2025-03-23 19:34:40.294,-2.2529784339815735
2025-03-23 19:34:40.294,3.6369879886151253
2025-03-23 19:34:40.304,6.683957594120103
2025-03-23 19:34:40.304,3.7135758086585073
2025-03-23 19:34:40.304,-2.5201478793550347
2025-03-23 19:34:40.304,-6.0520710669875974
2025-03-23 19:34:40.304,-4.043375303333912
2025-03-23 19:34:40.314,0.7379296688098467
2025-03-23 19:34:40.314,3.608895918756207
2025-03-23 19:34:40.314,2.7809168147159933
2025-03-23 19:34:40.314,0.266683465499018
2025-03-23 19:34:40.314,-0.9467579232954074
2025-03-23 19:34:40.324,-0.13341614172123462
2025-03-23 19:34:40.324,0.5781482553651073
2025-03-23 19:34:40.324,-0.9085271346728798
2025-03-23 19:34:40.324,-3.242257759291344
2025-03-23 19:34:40.324,-2.5584334170867993
2025-03-23 19:34:40.333,2.140188058795382
2025-03-23 19:34:40.334,6.180598591155408
2025-03-23 19:34:40.334,4.175922924278216
2025-03-23 19:34:40.334,-2.754803165573612
2025-03-23 19:34:40.334,-7.40283256283417
2025-03-23 19:34:40.344,-4.775782481383059
2025-03-23 19:34:40.344,2.1345440909982067
2025-03-23 19:34:40.344,6.209820305755359
2025-03-23 19:34:40.344,4.357177310297637
2025-03-23 19:34:40.344,-0.05015990274458171
2025-03-23 19:34:40.352,-2.4173461778872865
2025-03-23 19:34:40.352,-2.4250829923137553
2025-03-23 19:34:40.352,-2.828283755771317
2025-03-23 19:34:40.352,-3.7707044463545105
2025-03-23 19:34:40.362,-1.4540876880131393
2025-03-23 19:34:40.362,5.446866039777697
2025-03-23 19:34:40.362,10.536762105851908
2025-03-23 19:34:40.362,5.739661412283275
2025-03-23 19:34:40.362,-6.893397686457323
2025-03-23 19:34:40.371,-14.460395783773881
2025-03-23 19:34:40.372,-7.646803049581101
2025-03-23 19:34:40.372,7.0959590388352884
2025-03-23 19:34:40.372,14.04142540363786
2025-03-23 19:34:40.372,6.143898044273492
2025-03-23 19:34:40.381,-7.204821206502519
2025-03-23 19:34:40.382,-11.379455255072392
2025-03-23 19:34:40.382,-2.890168883400671
2025-03-23 19:34:40.382,7.815128658487413
2025-03-23 19:34:40.382,9.1006987826045
2025-03-23 19:34:40.390,0.7412354586735986
2025-03-23 19:34:40.390,-7.553925819636983
2025-03-23 19:34:40.390,-7.882187728546925
2025-03-23 19:34:40.390,-1.4476298296633174
2025-03-23 19:34:40.391,5.070645490209882
2025-03-23 19:34:40.400,6.904451983725268
2025-03-23 19:34:40.400,3.9494370416809033
2025-03-23 19:34:40.400,-1.0655120802091405
2025-03-23 19:34:40.401,-4.939369793329465
2025-03-23 19:34:40.410,-5.520649923220273
2025-03-23 19:34:40.410,-2.700031274408053
2025-03-23 19:34:40.410,1.6562309331140739
2025-03-23 19:34:40.410,4.89990655922196
2025-03-23 19:34:40.410,4.956052780379798
2025-03-23 19:34:40.411,1.5161705071011184
2025-03-23 19:34:40.420,-3.1387838897188987
2025-03-23 19:34:40.420,-5.227649974834762
2025-03-23 19:34:40.420,-2.8779178647994024
2025-03-23 19:34:40.420,1.5791007173914318
2025-03-23 19:34:40.430,3.89597672764768
2025-03-23 19:34:40.430,2.4952301974077535
2025-03-23 19:34:40.430,-0.38294338738672523
2025-03-23 19:34:40.430,-2.002067327311376
2025-03-23 19:34:40.430,-1.8822246800474693
2025-03-23 19:34:40.440,-0.8050638465520104
2025-03-23 19:34:40.440,0.8286349152590394
2025-03-23 19:34:40.440,2.208386739124342
2025-03-23 19:34:40.440,1.5414649416629478
2025-03-23 19:34:40.440,-1.422303737275519
2025-03-23 19:34:40.450,-3.449777867770142
2025-03-23 19:34:40.450,-1.190164482297655
2025-03-23 19:34:40.450,3.668820360329341
2025-03-23 19:34:40.450,5.276204160616186
2025-03-23 19:34:40.450,0.6025692429245125
2025-03-23 19:34:40.460,-6.144893094244106
2025-03-23 19:34:40.460,-7.557631116573788
2025-03-23 19:34:40.460,-1.1887914218599784
2025-03-23 19:34:40.460,7.235729016089636
2025-03-23 19:34:40.460,9.288788201618821
2025-03-23 19:34:40.469,2.594957180905207
2025-03-23 19:34:40.470,-6.329756637980134
2025-03-23 19:34:40.470,-8.70312383247685
2025-03-23 19:34:40.470,-2.842251626844079
2025-03-23 19:34:40.470,4.294665531409769
2025-03-23 19:34:40.479,5.380605936709505
2025-03-23 19:34:40.480,0.8606068389940109
2025-03-23 19:34:40.480,-2.785547722213939
2025-03-23 19:34:40.480,-1.566296151000651
2025-03-23 19:34:40.480,1.9504557368917277
2025-03-23 19:34:40.489,3.0240031162047685
2025-03-23 19:34:40.490,0.46607737438479024
2025-03-23 19:34:40.490,-3.1033534376691394
2025-03-23 19:34:40.490,-4.693113804241475
2025-03-23 19:34:40.490,-3.0389768218551882
2025-03-23 19:34:40.499,1.3054924213495465
2025-03-23 19:34:40.500,5.893963993953014
2025-03-23 19:34:40.500,6.964184294368344
2025-03-23 19:34:40.500,2.431853981955244
2025-03-23 19:34:40.500,-4.925708773958913
2025-03-23 19:34:40.509,-8.825368963539116
2025-03-23 19:34:40.510,-5.445783313365994
2025-03-23 19:34:40.510,2.2719111788161257
2025-03-23 19:34:40.510,7.284496724432317
2025-03-23 19:34:40.510,5.548604078146889
2025-03-23 19:34:40.518,-0.17348531578701426
2025-03-23 19:34:40.518,-3.869404879206239
2025-03-23 19:34:40.518,-2.8964082422125887
2025-03-23 19:34:40.518,-0.033770435460922454
2025-03-23 19:34:40.519,0.8986878429300724
2025-03-23 19:34:40.528,-0.21857146034089045
2025-03-23 19:34:40.528,-0.7037704362746672
2025-03-23 19:34:40.528,0.4667101891616495
2025-03-23 19:34:40.528,1.4377995979854818
2025-03-23 19:34:40.529,0.8154108706969455
2025-03-23 19:34:40.538,-0.20735706078495864
2025-03-23 19:34:40.538,-0.24472333937879326
2025-03-23 19:34:40.538,-0.1907716973761142
2025-03-23 19:34:40.538,-1.2858900082315468
2025-03-23 19:34:40.548,-2.08989817408762
2025-03-23 19:34:40.548,-0.1430037995120592
2025-03-23 19:34:40.548,3.4551935823118827
2025-03-23 19:34:40.548,4.039579687527304
2025-03-23 19:34:40.548,-0.4957528644473348
2025-03-23 19:34:40.558,-5.564797611111632
2025-03-23 19:34:40.558,-4.668276803200542
2025-03-23 19:34:40.558,1.9843258425202972
2025-03-23 19:34:40.558,6.683057145851882
2025-03-23 19:34:40.558,3.587974890102122
2025-03-23 19:34:40.567,-3.513326944107981
2025-03-23 19:34:40.568,-5.884605323701378
2025-03-23 19:34:40.568,-1.2141859702429159
2025-03-23 19:34:40.568,3.7908247849302437
2025-03-23 19:34:40.568,3.066555825553284
2025-03-23 19:34:40.578,-0.8716711049518113
2025-03-23 19:34:40.578,-1.8518255503562908
2025-03-23 19:34:40.578,0.3821791447618516
2025-03-23 19:34:40.578,0.6940242102636769
2025-03-23 19:34:40.578,-2.2342517866875635
2025-03-23 19:34:40.587,-2.9785789373010987
2025-03-23 19:34:40.588,2.1309137220039376
2025-03-23 19:34:40.588,7.734843810027942
2025-03-23 19:34:40.588,5.094149808459252
2025-03-23 19:34:40.588,-5.690207413346414
2025-03-23 19:34:40.596,-13.295651929506741
2025-03-23 19:34:40.596,-7.555152790033082
2025-03-23 19:34:40.596,7.457840036355346
2025-03-23 19:34:40.596,16.33711584595966
2025-03-23 19:34:40.606,9.340568529637254
2025-03-23 19:34:40.606,-6.335712843061138
2025-03-23 19:34:40.606,-14.708658611691565
2025-03-23 19:34:40.606,-8.722666913420055
2025-03-23 19:34:40.606,3.441382498434204
2025-03-23 19:34:40.615,9.353733353113224
2025-03-23 19:34:40.616,5.757878240954745
2025-03-23 19:34:40.616,-0.7951095814163809
2025-03-23 19:34:40.616,-3.683504634086839
2025-03-23 19:34:40.616,-2.655079069158372
2025-03-23 19:34:40.626,-0.8908735111111353
2025-03-23 19:34:40.626,0.33041506524299513
2025-03-23 19:34:40.626,1.6611088641203051
2025-03-23 19:34:40.626,2.463002022846705
2025-03-23 19:34:40.626,0.8695477511539956
2025-03-23 19:34:40.636,-2.7069479706397206
2025-03-23 19:34:40.636,-4.574506860004982
2025-03-23 19:34:40.636,-1.7670114985874332
2025-03-23 19:34:40.636,3.7755945871296723
2025-03-23 19:34:40.636,6.4735253082765984
2025-03-23 19:34:40.645,3.027322035666839
2025-03-23 19:34:40.646,-3.5168394605803113
2025-03-23 19:34:40.646,-6.605868837230162
2025-03-23 19:34:40.646,-3.314504572195099
2025-03-23 19:34:40.646,2.4322739684780443
2025-03-23 19:34:40.654,4.594349284926301
2025-03-23 19:34:40.654,1.86100264311599
2025-03-23 19:34:40.654,-1.745978049380655
2025-03-23 19:34:40.654,-2.3211672008266704
2025-03-23 19:34:40.654,-0.08751375977952452
2025-03-23 19:34:40.664,2.0116255970979
2025-03-23 19:34:40.664,1.8271355172127122
2025-03-23 19:34:40.664,-0.4144787529101182
2025-03-23 19:34:40.664,-2.6634086754462087
2025-03-23 19:34:40.674,-2.635671061494519
2025-03-23 19:34:40.674,0.050286201977115544
2025-03-23 19:34:40.674,2.873610397890498
2025-03-23 19:34:40.674,2.6517408204567374
2025-03-23 19:34:40.674,-0.5838204683870586
2025-03-23 19:34:40.684,-2.9640330303919673
2025-03-23 19:34:40.684,-1.1210770425259264
2025-03-23 19:34:40.684,3.2261372825844945
2025-03-23 19:34:40.684,4.3702816235692845
2025-03-23 19:34:40.684,-0.7552504808605764
2025-03-23 19:34:40.693,-7.579276229076622
2025-03-23 19:34:40.693,-7.570073918059522
2025-03-23 19:34:40.694,1.6621292949761934
2025-03-23 19:34:40.694,11.534497097503795
2025-03-23 19:34:40.694,10.78562794312252
2025-03-23 19:34:40.702,-1.2620542239007428
2025-03-23 19:34:40.702,-12.70891405571712
2025-03-23 19:34:40.703,-11.828266175667979
2025-03-23 19:34:40.703,0.16459419918551366
2025-03-23 19:34:40.712,10.90770822549545
2025-03-23 19:34:40.712,10.32768807193909
2025-03-23 19:34:40.712,0.44758524824482926
2025-03-23 19:34:40.712,-7.996075843212792
2025-03-23 19:34:40.712,-7.238167525420408
2025-03-23 19:34:40.722,0.08614308988825348
2025-03-23 19:34:40.722,5.111285343869588
2025-03-23 19:34:40.722,3.253141754824371
2025-03-23 19:34:40.722,-1.2962057363088673
2025-03-23 19:34:40.722,-2.0501089847899885
2025-03-23 19:34:40.731,1.1910100309216796
2025-03-23 19:34:40.732,2.7783981214380864
2025-03-23 19:34:40.732,-0.6095819203010697
2025-03-23 19:34:40.732,-5.24145573614146
2025-03-23 19:34:40.732,-4.923914428753416
2025-03-23 19:34:40.741,1.2965298740606273
2025-03-23 19:34:40.742,7.646438187172266
2025-03-23 19:34:40.742,7.592859925417301
2025-03-23 19:34:40.742,0.44161538685402973
2025-03-23 19:34:40.742,-7.751689687609995
2025-03-23 19:34:40.752,-9.37632325716819
2025-03-23 19:34:40.752,-2.4057913321822157
2025-03-23 19:34:40.752,6.647340040316582
2025-03-23 19:34:40.752,8.464304621524377
2025-03-23 19:34:40.752,1.3656497786225297
2025-03-23 19:34:40.762,-5.9221799100522174
2025-03-23 19:34:40.762,-4.692529482349498
2025-03-23 19:34:40.762,2.621456908739126
2025-03-23 19:34:40.762,5.894659090788105
2025-03-23 19:34:40.762,0.8282522369745491
2025-03-23 19:34:40.772,-5.8959014827769245
2025-03-23 19:34:40.772,-5.913119371071807
2025-03-23 19:34:40.772,0.4771835651500603
2025-03-23 19:34:40.772,5.7894511144826195
2025-03-23 19:34:40.772,4.932218653732179
2025-03-23 19:34:40.781,0.22249789760447442
2025-03-23 19:34:40.782,-2.957059315174767
2025-03-23 19:34:40.782,-2.7074611580804997
2025-03-23 19:34:40.782,-1.1515516562855077
2025-03-23 19:34:40.782,-0.08846711015778748
2025-03-23 19:34:40.792,0.9220951142200816
2025-03-23 19:34:40.792,1.977597401832853
2025-03-23 19:34:40.792,1.4061415122646632
2025-03-23 19:34:40.792,-1.2950655019092316
2025-03-23 19:34:40.792,-3.2255069096364286
2025-03-23 19:34:40.801,-1.3210801108103958
2025-03-23 19:34:40.802,3.0091803314720593
2025-03-23 19:34:40.802,4.8491063114693755
2025-03-23 19:34:40.802,1.5874554959560343
2025-03-23 19:34:40.802,-3.821935021883809
2025-03-23 19:34:40.811,-6.018267566479683
2025-03-23 19:34:40.812,-2.8053092969036366
2025-03-23 19:34:40.812,2.9167712392037233
2025-03-23 19:34:40.812,6.121190531761775
2025-03-23 19:34:40.812,4.04272847018631
2025-03-23 19:34:40.821,-1.621460205482733
2025-03-23 19:34:40.822,-5.898289990993634
2025-03-23 19:34:40.822,-4.529208472750523
2025-03-23 19:34:40.822,1.6736932405310745
2025-03-23 19:34:40.822,6.5378504759566
2025-03-23 19:34:40.830,4.416688894414508
2025-03-23 19:34:40.830,-3.065987820555891
2025-03-23 19:34:40.830,-7.875452679336344
2025-03-23 19:34:40.830,-4.324276665358151
2025-03-23 19:34:40.831,4.208004500373547
2025-03-23 19:34:40.840,8.724710140067074
2025-03-23 19:34:40.840,4.409351826768898
2025-03-23 19:34:40.840,-4.213244680885511
2025-03-23 19:34:40.840,-8.26527096801243
2025-03-23 19:34:40.850,-3.998594097898252
2025-03-23 19:34:40.850,3.585709526192553
2025-03-23 19:34:40.850,6.626679228092301
2025-03-23 19:34:40.850,2.8074123895372747
2025-03-23 19:34:40.850,-2.996981221687603
2025-03-23 19:34:40.860,-4.758255807409169
2025-03-23 19:34:40.860,-1.5619085467211389
2025-03-23 19:34:40.860,2.4447078138149427
2025-03-23 19:34:40.860,3.2719219735820473
2025-03-23 19:34:40.860,1.0439136027747027
2025-03-23 19:34:40.870,-1.3183274803802147
2025-03-23 19:34:40.870,-1.9727177261819722
2025-03-23 19:34:40.870,-1.3478551725076955
2025-03-23 19:34:40.870,-0.2375010573219657
2025-03-23 19:34:40.870,1.105754989259828
2025-03-23 19:34:40.880,1.785276599977289
2025-03-23 19:34:40.880,0.5451500220951987
2025-03-23 19:34:40.880,-1.6904095671523787
2025-03-23 19:34:40.880,-1.730242943028727
2025-03-23 19:34:40.880,1.5303547451014765
2025-03-23 19:34:40.890,4.229988192744817
2025-03-23 19:34:40.890,1.718821341842169
2025-03-23 19:34:40.890,-4.6307891892542035
2025-03-23 19:34:40.890,-7.627440988965535
2025-03-23 19:34:40.890,-2.6394108241170864
2025-03-23 19:34:40.900,6.062326442849135
2025-03-23 19:34:40.900,9.513265679442931
2025-03-23 19:34:40.900,4.120661809280278
2025-03-23 19:34:40.900,-4.530644611348019
2025-03-23 19:34:40.900,-8.27975965976473
2025-03-23 19:34:40.910,-4.872344023674584
2025-03-23 19:34:40.910,1.29228685448601
2025-03-23 19:34:40.910,5.047503009426563
2025-03-23 19:34:40.910,4.703752911324974
2025-03-23 19:34:40.910,1.3541165479728219
2025-03-23 19:34:40.920,-2.8030868428687468
2025-03-23 19:34:40.920,-4.7759498602956105
2025-03-23 19:34:40.920,-2.326231273137353
2025-03-23 19:34:40.920,2.8951142520617767
2025-03-23 19:34:40.920,5.56603993421349
2025-03-23 19:34:40.929,2.315700230290744
2025-03-23 19:34:40.930,-3.666052775987041
2025-03-23 19:34:40.930,-5.853869272971403
2025-03-23 19:34:40.930,-2.12842708841613
2025-03-23 19:34:40.930,2.9109403505174494
2025-03-23 19:34:40.939,4.0239072808432175
2025-03-23 19:34:40.940,1.5318296986345916
2025-03-23 19:34:40.940,-0.3752332670930022
2025-03-23 19:34:40.940,-0.06390250435772851
2025-03-23 19:34:40.940,-0.17096183289158753
2025-03-23 19:34:40.948,-2.4626066276073906
2025-03-23 19:34:40.948,-4.019139263578811
2025-03-23 19:34:40.948,-1.1586780294667254
2025-03-23 19:34:40.948,4.2511426207698655
2025-03-23 19:34:40.949,5.893158967331587
2025-03-23 19:34:40.958,1.1046377521259136
2025-03-23 19:34:40.958,-4.897943752533761
2025-03-23 19:34:40.958,-5.027138611493686
2025-03-23 19:34:40.958,0.7098423337825772
2025-03-23 19:34:40.959,4.99737000299175
2025-03-23 19:34:40.968,2.5162700756357133
2025-03-23 19:34:40.968,-3.1410511499878084
2025-03-23 19:34:40.968,-4.329358315938954
2025-03-23 19:34:40.969,0.33076999587625266
2025-03-23 19:34:40.969,4.296413140062808
2025-03-23 19:34:40.978,2.302993795463254
2025-03-23 19:34:40.978,-2.578115348688219
2025-03-23 19:34:40.978,-3.5871096241959313
2025-03-23 19:34:40.979,0.44172110715102564
2025-03-23 19:34:40.979,3.938096011412085
2025-03-23 19:34:40.988,2.3042132612538357
2025-03-23 19:34:40.988,-2.371186495101257
2025-03-23 19:34:40.988,-4.434089172611962
2025-03-23 19:34:40.988,-1.6200902428613253
2025-03-23 19:34:40.998,2.7603861738043918
2025-03-23 19:34:40.998,4.011703588745824
2025-03-23 19:34:40.998,1.1369522220995916
2025-03-23 19:34:40.998,-2.4806210738620615
2025-03-23 19:34:40.998,-2.9415798839369596
2025-03-23 19:34:41.008,-0.005375566184318836
2025-03-23 19:34:41.008,2.7737668734436887
2025-03-23 19:34:41.008,2.1028153556486484
2025-03-23 19:34:41.008,-1.3106743569752268
2025-03-23 19:34:41.008,-3.6105594149020366
2025-03-23 19:34:41.018,-2.1564522280796825
2025-03-23 19:34:41.018,1.6526892054912976
2025-03-23 19:34:41.018,3.9859937639865906
2025-03-23 19:34:41.018,2.5301083864224228
2025-03-23 19:34:41.018,-1.2508630168769588
2025-03-23 19:34:41.028,-3.547336917320469
2025-03-23 19:34:41.028,-2.024022077675415
2025-03-23 19:34:41.028,1.5772537649396188
2025-03-23 19:34:41.028,3.0738909895964928
2025-03-23 19:34:41.029,0.5491813844955512
2025-03-23 19:34:41.038,-3.1249571605389677
2025-03-23 19:34:41.038,-3.4053021279813542
2025-03-23 19:34:41.038,0.5330443609013096
2025-03-23 19:34:41.038,4.663779200999658
2025-03-23 19:34:41.038,4.548171138038266
2025-03-23 19:34:41.047,-0.0007600538903125564
2025-03-23 19:34:41.048,-4.9133590724209615
2025-03-23 19:34:41.048,-5.769644060448754
2025-03-23 19:34:41.048,-1.6567323335182387
2025-03-23 19:34:41.048,3.9611586267685417
2025-03-23 19:34:41.057,6.052018548452155
2025-03-23 19:34:41.058,2.675669698156013
2025-03-23 19:34:41.058,-2.756662899021281
2025-03-23 19:34:41.058,-4.77308348310056
2025-03-23 19:34:41.058,-1.8643271398747596
2025-03-23 19:34:41.068,1.9046884720333646
2025-03-23 19:34:41.068,2.173995933432781
2025-03-23 19:34:41.068,-0.2553017546372173
2025-03-23 19:34:41.068,-1.1755995370997585
2025-03-23 19:34:41.068,0.7296249683562254
2025-03-23 19:34:41.078,2.1647516862270186
2025-03-23 19:34:41.078,0.31034580323457894
2025-03-23 19:34:41.078,-2.873472250095132
2025-03-23 19:34:41.078,-3.158956029212845
2025-03-23 19:34:41.078,0.3280572587271291
2025-03-23 19:34:41.086,3.8699343906361743
2025-03-23 19:34:41.086,3.562958686491212
2025-03-23 19:34:41.086,-0.29099865737166497
2025-03-23 19:34:41.086,-3.7463591923635593
2025-03-23 19:34:41.087,-3.5380772219985723
2025-03-23 19:34:41.096,-0.2074291733645383
2025-03-23 19:34:41.096,2.844387110685623
2025-03-23 19:34:41.096,2.821847740394695
2025-03-23 19:34:41.097,0.0919073766978099
2025-03-23 19:34:41.097,-2.242344544281742
2025-03-23 19:34:41.106,-1.4423526747445226
2025-03-23 19:34:41.106,1.6794810117348864
2025-03-23 19:34:41.106,3.107988204755715
2025-03-23 19:34:41.106,0.20539999418722354
2025-03-23 19:34:41.106,-4.409794878324309
2025-03-23 19:34:41.116,-5.21147602490531
2025-03-23 19:34:41.116,-0.3393159285736471
2025-03-23 19:34:41.116,5.710182243502572
2025-03-23 19:34:41.117,6.86315331667113
2025-03-23 19:34:41.117,1.9870054944502888
2025-03-23 19:34:41.126,-4.284565523152689
2025-03-23 19:34:41.126,-6.584658425864169
2025-03-23 19:34:41.126,-3.6139452027965504
2025-03-23 19:34:41.126,1.6582209983599012
2025-03-23 19:34:41.136,5.025678738463757
2025-03-23 19:34:41.136,3.9665813535536207
2025-03-23 19:34:41.136,-0.668586112214405
2025-03-23 19:34:41.136,-4.6204030601894654
2025-03-23 19:34:41.136,-3.415068838113456
2025-03-23 19:34:41.146,2.410661414856517
2025-03-23 19:34:41.146,6.391732779758985
2025-03-23 19:34:41.146,3.0383284225793625
2025-03-23 19:34:41.146,-4.764120925688386
2025-03-23 19:34:41.146,-8.236020182796533
2025-03-23 19:34:41.156,-3.184087548527342
2025-03-23 19:34:41.156,4.814506084797937
2025-03-23 19:34:41.156,7.309829346060389
2025-03-23 19:34:41.156,2.857878172212211
2025-03-23 19:34:41.156,-2.481283599087957
2025-03-23 19:34:41.166,-3.396830031574979
2025-03-23 19:34:41.166,-0.9907218295924611
2025-03-23 19:34:41.166,0.3819361218059277
2025-03-23 19:34:41.166,-0.7049686017770865
2025-03-23 19:34:41.166,-1.7531294809104905
2025-03-23 19:34:41.176,-0.42616452435191005
2025-03-23 19:34:41.176,2.3954585694497443
2025-03-23 19:34:41.176,3.733366586283416
2025-03-23 19:34:41.176,1.72122897162137
2025-03-23 19:34:41.176,-2.249852212920454
2025-03-23 19:34:41.185,-4.32942673475967
2025-03-23 19:34:41.186,-2.008766941395514
2025-03-23 19:34:41.186,2.484964943616316
2025-03-23 19:34:41.186,4.027648088917498
2025-03-23 19:34:41.186,0.7269101399390663
2025-03-23 19:34:41.196,-3.4055235095409357
2025-03-23 19:34:41.196,-3.412843296868917
2025-03-23 19:34:41.196,0.4104328390582209
2025-03-23 19:34:41.196,3.3750736031074693
2025-03-23 19:34:41.196,2.6050536211424262
2025-03-23 19:34:41.204,-0.08078607365133125
2025-03-23 19:34:41.204,-1.5909078565567456
2025-03-23 19:34:41.204,-1.4537894242324634
2025-03-23 19:34:41.205,-1.0723262375464464
2025-03-23 19:34:41.214,-0.769063028110029
2025-03-23 19:34:41.214,0.36440787511612177
2025-03-23 19:34:41.214,2.0237555778636582
2025-03-23 19:34:41.214,2.164924246869308
2025-03-23 19:34:41.215,-0.1784984623778273
2025-03-23 19:34:41.224,-2.8161209385422086
2025-03-23 19:34:41.224,-2.572565424891632
2025-03-23 19:34:41.224,0.7471612145403277
2025-03-23 19:34:41.224,3.750172332111515
2025-03-23 19:34:41.225,3.0980657917051717
2025-03-23 19:34:41.234,-0.8326900107225638
2025-03-23 19:34:41.234,-4.25771220087156
2025-03-23 19:34:41.234,-3.8641984041697404
2025-03-23 19:34:41.234,-0.22125041382359248
2025-03-23 19:34:41.234,3.0279247049376674
2025-03-23 19:34:41.244,3.386063362460007
2025-03-23 19:34:41.244,1.8828293860820549
2025-03-23 19:34:41.244,0.5832484994198812
2025-03-23 19:34:41.244,-0.6905790157001073
2025-03-23 19:34:41.244,-3.0934215027240852
2025-03-23 19:34:41.254,-5.108833766324265
2025-03-23 19:34:41.254,-3.1609745369865068
2025-03-23 19:34:41.254,3.127305566211514
2025-03-23 19:34:41.254,8.334743488238693
2025-03-23 19:34:41.254,6.163439881517276
2025-03-23 19:34:41.264,-2.8123181876511962
2025-03-23 19:34:41.264,-9.942671014760073
2025-03-23 19:34:41.264,-7.000073087184845
2025-03-23 19:34:41.264,3.878743456609668
2025-03-23 19:34:41.265,10.969103666572176
2025-03-23 19:34:41.272,5.772458866578678
2025-03-23 19:34:41.272,-6.275726261804321
2025-03-23 19:34:41.273,-11.301592126599827
2025-03-23 19:34:41.273,-3.506138677157278
2025-03-23 19:34:41.273,7.698053511000935
2025-03-23 19:34:41.282,9.450196148018321
2025-03-23 19:34:41.282,1.0793978664774102
2025-03-23 19:34:41.282,-6.384003427736961
2025-03-23 19:34:41.283,-4.994851276905498
2025-03-23 19:34:41.283,1.1623027942394237
2025-03-23 19:34:41.292,3.3303454444402174
2025-03-23 19:34:41.292,-0.05712706115671462
2025-03-23 19:34:41.292,-2.8489033273228492
2025-03-23 19:34:41.292,-0.7896545691565044
2025-03-23 19:34:41.302,2.9209391261778896
2025-03-23 19:34:41.302,2.960624168053558
2025-03-23 19:34:41.302,-0.47362902435051635
2025-03-23 19:34:41.302,-2.4799259982659145
2025-03-23 19:34:41.303,-0.791240734329882
2025-03-23 19:34:41.312,1.2931894071644419
2025-03-23 19:34:41.312,0.24519876909966742
2025-03-23 19:34:41.312,-2.3896079820212646
2025-03-23 19:34:41.312,-2.3942942703885213
2025-03-23 19:34:41.312,0.9958936219214408
2025-03-23 19:34:41.322,4.078814343769516
2025-03-23 19:34:41.322,3.5210002351950624
2025-03-23 19:34:41.322,0.031030257289581725
2025-03-23 19:34:41.322,-3.13857114026936
2025-03-23 19:34:41.323,-3.7283856484778157
2025-03-23 19:34:41.332,-1.8847332558372691
2025-03-23 19:34:41.332,0.7331860610393508
2025-03-23 19:34:41.332,2.3455842834963914
2025-03-23 19:34:41.333,2.1947208609067204
2025-03-23 19:34:41.333,1.0564228641971936
2025-03-23 19:34:41.342,0.26938371635611336
2025-03-23 19:34:41.342,-0.07322713338412742
2025-03-23 19:34:41.342,-1.1609850375616835
2025-03-23 19:34:41.342,-3.059426147949873
2025-03-23 19:34:41.342,-3.376325398950304
2025-03-23 19:34:41.352,-0.00883211268229691
2025-03-23 19:34:41.352,5.006997197933379
2025-03-23 19:34:41.352,6.43267059356744
2025-03-23 19:34:41.352,1.7087103284227263
2025-03-23 19:34:41.352,-5.303015301502194
2025-03-23 19:34:41.362,-7.916943028142294
2025-03-23 19:34:41.362,-3.6129296721326165
2025-03-23 19:34:41.362,3.5794169924504238
2025-03-23 19:34:41.362,7.386141226100915
2025-03-23 19:34:41.362,5.095570743599735
2025-03-23 19:34:41.372,-0.6744670477348851
2025-03-23 19:34:41.372,-4.979652522945474
2025-03-23 19:34:41.372,-4.945943591702184
2025-03-23 19:34:41.372,-1.6462663439438778
2025-03-23 19:34:41.372,1.6933379304706198
2025-03-23 19:34:41.382,2.825311947057962
2025-03-23 19:34:41.382,1.8908543728450102
2025-03-23 19:34:41.382,0.4542841314019192
2025-03-23 19:34:41.382,-0.2177386368880978
2025-03-23 19:34:41.382,-0.0395805292392489
2025-03-23 19:34:41.390,0.17054909283140335
2025-03-23 19:34:41.390,-0.4248105274441817
2025-03-23 19:34:41.390,-1.85951949168878
2025-03-23 19:34:41.391,-3.0370684251447684
2025-03-23 19:34:41.400,-2.2540174195332416
2025-03-23 19:34:41.400,1.2407424667765903
2025-03-23 19:34:41.400,5.591894419322479
2025-03-23 19:34:41.401,6.808469236581065
2025-03-23 19:34:41.401,2.2936094126576703
2025-03-23 19:34:41.401,-5.522398169909833
2025-03-23 19:34:41.410,-10.052121266489658
2025-03-23 19:34:41.410,-6.410745324303576
2025-03-23 19:34:41.410,3.160089876386334
2025-03-23 19:34:41.411,10.325114938953856
2025-03-23 19:34:41.420,8.190212163230452
2025-03-23 19:34:41.420,-1.4657266240433293
2025-03-23 19:34:41.420,-9.052443755976997
2025-03-23 19:34:41.420,-6.686938250645925
2025-03-23 19:34:41.420,2.932809987785476
2025-03-23 19:34:41.430,8.811848122934297
2025-03-23 19:34:41.430,3.866062237054325
2025-03-23 19:34:41.430,-6.578139671836766
2025-03-23 19:34:41.430,-10.437390939689436
2025-03-23 19:34:41.430,-2.6396139196646633
2025-03-23 19:34:41.438,8.884644905899505
2025-03-23 19:34:41.438,11.945636367537542
2025-03-23 19:34:41.439,3.529759411051284
2025-03-23 19:34:41.439,-7.352227394024352
2025-03-23 19:34:41.448,-10.245373086509872
2025-03-23 19:34:41.448,-4.403327608877191
2025-03-23 19:34:41.448,2.432644256684172
2025-03-23 19:34:41.448,4.553852898181124
2025-03-23 19:34:41.449,3.629955026274608
2025-03-23 19:34:41.449,3.122369886968863
2025-03-23 19:34:41.458,2.0658282353907795
2025-03-23 19:34:41.458,-1.9076184918741919
2025-03-23 19:34:41.458,-6.19454175601599
2025-03-23 19:34:41.459,-5.276863821673159
2025-03-23 19:34:41.468,0.8399822482737763
2025-03-23 19:34:41.468,5.300113859354831
2025-03-23 19:34:41.468,3.460855300077009
2025-03-23 19:34:41.469,-0.8472943597200571
2025-03-23 19:34:41.469,-1.3979486535195944
2025-03-23 19:34:41.478,1.2064089698563114
2025-03-23 19:34:41.478,1.0984898518468915
2025-03-23 19:34:41.478,-3.102956491024523
2025-03-23 19:34:41.478,-5.373965924909979
2025-03-23 19:34:41.479,-0.947587684234182
2025-03-23 19:34:41.488,5.996612378766898
2025-03-23 19:34:41.488,7.082539158756815
2025-03-23 19:34:41.488,0.6948115598414188
2025-03-23 19:34:41.488,-5.93500390691003
2025-03-23 19:34:41.488,-6.079384691391014
2025-03-23 19:34:41.498,-1.1606105299426808
2025-03-23 19:34:41.498,2.8705948548147924
2025-03-23 19:34:41.498,3.4615821426315865
2025-03-23 19:34:41.498,2.3979281356362576
2025-03-23 19:34:41.499,1.0535348200375592
2025-03-23 19:34:41.508,-0.9613937174271585
2025-03-23 19:34:41.508,-2.894556545185805
2025-03-23 19:34:41.508,-2.6481136172656567
2025-03-23 19:34:41.508,-0.25850846478564943
2025-03-23 19:34:41.508,1.449507132402355
2025-03-23 19:34:41.518,0.7968398484988518
2025-03-23 19:34:41.518,-0.3718240392221874
2025-03-23 19:34:41.518,0.5117835483575324
2025-03-23 19:34:41.518,2.8771329829434475
2025-03-23 19:34:41.519,3.2236310343525583
2025-03-23 19:34:41.528,-0.7147712611869141
2025-03-23 19:34:41.528,-6.271370742803088
2025-03-23 19:34:41.528,-7.265632609954297
2025-03-23 19:34:41.528,-0.6849101752278142
2025-03-23 19:34:41.528,8.203825350644818
2025-03-23 19:34:41.538,9.954104913946379
2025-03-23 19:34:41.538,1.6377649188507934
2025-03-23 19:34:41.538,-8.529126941180683
2025-03-23 19:34:41.538,-9.757425062205277
2025-03-23 19:34:41.538,-1.0503648840284059
2025-03-23 19:34:41.546,7.755030257744872
2025-03-23 19:34:41.546,7.5481042789391175
2025-03-23 19:34:41.546,-0.15288503355340377
2025-03-23 19:34:41.547,-6.280217096864283
2025-03-23 19:34:41.547,-5.0842528952801676
2025-03-23 19:34:41.556,0.6156410658260578
2025-03-23 19:34:41.556,4.322810345615664
2025-03-23 19:34:41.556,3.20530711920376
2025-03-23 19:34:41.557,-0.3298810398012974
2025-03-23 19:34:41.557,-2.4939915972858255
2025-03-23 19:34:41.566,-1.848041212299211
2025-03-23 19:34:41.566,0.27283160340033175
2025-03-23 19:34:41.566,1.634279873623304
2025-03-23 19:34:41.567,1.071532592835588
2025-03-23 19:34:41.567,-0.7344912445481251
2025-03-23 19:34:41.576,-1.9669892417964079
2025-03-23 19:34:41.576,-1.2976385863951223
2025-03-23 19:34:41.576,0.8756861135620793
2025-03-23 19:34:41.577,2.6835202750364493
2025-03-23 19:34:41.577,2.3812825680210477
2025-03-23 19:34:41.586,-0.03743092654432324
2025-03-23 19:34:41.586,-2.6269555499964095
2025-03-23 19:34:41.586,-3.098840752196533
2025-03-23 19:34:41.587,-1.0489378707178183
2025-03-23 19:34:41.596,1.5040943377703757
2025-03-23 19:34:41.596,2.246517280408611
2025-03-23 19:34:41.596,1.0797757715813578
2025-03-23 19:34:41.596,-0.14512706416926946
2025-03-23 19:34:41.597,-0.22476451536556055
2025-03-23 19:34:41.606,0.0945109943858453
2025-03-23 19:34:41.606,-0.3647472355496043
2025-03-23 19:34:41.606,-1.367160849495073
2025-03-23 19:34:41.606,-1.5523837390595283
2025-03-23 19:34:41.606,-0.1685575405667586
2025-03-23 19:34:41.616,1.8519949464744363
2025-03-23 19:34:41.616,2.5357741423857214
2025-03-23 19:34:41.616,0.8189883431768721
2025-03-23 19:34:41.616,-1.942877565177341
2025-03-23 19:34:41.616,-2.938093818972924
2025-03-23 19:34:41.626,-0.9180955472724097
2025-03-23 19:34:41.626,2.148547837824058
2025-03-23 19:34:41.626,3.0824643983040887
2025-03-23 19:34:41.626,0.9455000337915679
2025-03-23 19:34:41.626,-2.041947764043615
2025-03-23 19:34:41.636,-2.94751831563299
2025-03-23 19:34:41.636,-1.1340897912179912
2025-03-23 19:34:41.636,1.2352281590850724
2025-03-23 19:34:41.636,1.6913367570598516
2025-03-23 19:34:41.636,0.3547227243181918
2025-03-23 19:34:41.646,-0.27842742769316653
2025-03-23 19:34:41.646,1.1249542075745662
2025-03-23 19:34:41.646,2.336192744916905
2025-03-23 19:34:41.646,0.21788649031108426
2025-03-23 19:34:41.646,-4.312778780709981
2025-03-23 19:34:41.656,-5.9691320361977676
2025-03-23 19:34:41.656,-1.2314288900473107
2025-03-23 19:34:41.656,6.201863363647038
2025-03-23 19:34:41.656,8.386867898644208
2025-03-23 19:34:41.657,2.206770295924843
2025-03-23 19:34:41.666,-6.299532033562269
2025-03-23 19:34:41.666,-8.331439402308956
2025-03-23 19:34:41.666,-2.1956160928880393
2025-03-23 19:34:41.666,5.200599087823743
2025-03-23 19:34:41.666,6.5738311636635745
2025-03-23 19:34:41.674,1.7529859363481268
2025-03-23 19:34:41.674,-3.714548434475175
2025-03-23 19:34:41.674,-5.148266060924919
2025-03-23 19:34:41.675,-2.2033642915843514
2025-03-23 19:34:41.675,2.4675190900653816
2025-03-23 19:34:41.684,5.380638693821274
2025-03-23 19:34:41.684,3.7767133941834894
2025-03-23 19:34:41.684,-1.9157774027837169
2025-03-23 19:34:41.685,-6.6611410549743235
2025-03-23 19:34:41.694,-4.868311589996915
2025-03-23 19:34:41.694,2.4613750470417717
2025-03-23 19:34:41.694,7.229778571134274
2025-03-23 19:34:41.695,3.606740927690724
2025-03-23 19:34:41.695,-3.991600930307447
2025-03-23 19:34:41.704,-6.019563998727585
2025-03-23 19:34:41.704,-0.24541611527519536
2025-03-23 19:34:41.704,5.3410699128764945
2025-03-23 19:34:41.704,3.374166403431295
2025-03-23 19:34:41.705,-3.1233788383949896
2025-03-23 19:34:41.714,-5.158574700925583
2025-03-23 19:34:41.714,0.052298356052874306
2025-03-23 19:34:41.714,5.443656288437458
2025-03-23 19:34:41.714,3.4139547248367896
2025-03-23 19:34:41.714,-4.083313139291518
2025-03-23 19:34:41.724,-7.477960369759013
2025-03-23 19:34:41.724,-1.4356457826166364
2025-03-23 19:34:41.724,7.841806246945809
2025-03-23 19:34:41.724,9.358621720622898
2025-03-23 19:34:41.725,0.5370716168750008
2025-03-23 19:34:41.734,-9.237301870735322
2025-03-23 19:34:41.734,-9.443206008562026
2025-03-23 19:34:41.734,-0.547071291548275
2025-03-23 19:34:41.734,7.21867342286982
2025-03-23 19:34:41.734,6.326625141357869
2025-03-23 19:34:41.744,-0.03771536278948184
2025-03-23 19:34:41.744,-3.5243289447212147
2025-03-23 19:34:41.744,-1.2772717672361806
2025-03-23 19:34:41.744,2.004549735488559
2025-03-23 19:34:41.744,1.4797120236456682
2025-03-23 19:34:41.754,-2.0429131527977664
2025-03-23 19:34:41.754,-4.381837700469292
2025-03-23 19:34:41.754,-3.1057280969095635
2025-03-23 19:34:41.754,1.0125517116926053
2025-03-23 19:34:41.754,5.404001117099856
2025-03-23 19:34:41.764,6.8858836994379065
2025-03-23 19:34:41.764,3.2730734095178784
2025-03-23 19:34:41.764,-3.915382267425543
2025-03-23 19:34:41.764,-9.083617888484852
2025-03-23 19:34:41.764,-7.175929702339076
2025-03-23 19:34:41.774,0.7076696333047587
2025-03-23 19:34:41.774,7.6060721708538646
2025-03-23 19:34:41.774,7.616891896760244
2025-03-23 19:34:41.774,1.894806033614732
2025-03-23 19:34:41.774,-3.3680742714278473
2025-03-23 19:34:41.782,-4.340568517330861
2025-03-23 19:34:41.782,-2.8051690025911045
2025-03-23 19:34:41.783,-1.663675657210017
2025-03-23 19:34:41.783,-0.22592030554649523
2025-03-23 19:34:41.783,3.2681991355314755
2025-03-23 19:34:41.792,6.284905649581088
2025-03-23 19:34:41.792,3.652824689099789
2025-03-23 19:34:41.792,-4.42918443272498
2025-03-23 19:34:41.793,-9.928371713083918
2025-03-23 19:34:41.802,-5.695076062493442
2025-03-23 19:34:41.802,5.106027651599653
2025-03-23 19:34:41.802,11.643889133818368
2025-03-23 19:34:41.803,7.352382201371371
2025-03-23 19:34:41.803,-3.3171416635795232
2025-03-23 19:34:41.812,-10.356419705015723
2025-03-23 19:34:41.812,-8.321834100329395
2025-03-23 19:34:41.812,-0.3482421538333338
2025-03-23 19:34:41.812,6.2280001290446485
2025-03-23 19:34:41.813,6.882652714667994
2025-03-23 19:34:41.821,2.9593672188727513
2025-03-23 19:34:41.822,-1.1408876917577668
2025-03-23 19:34:41.822,-2.8212378355282905
2025-03-23 19:34:41.822,-2.793556667574468
2025-03-23 19:34:41.822,-2.4429224192605163
2025-03-23 19:34:41.832,-1.5004519784160981
2025-03-23 19:34:41.832,0.7893490480730209
2025-03-23 19:34:41.832,3.360923324146333
2025-03-23 19:34:41.832,3.77105555962424
2025-03-23 19:34:41.832,1.1158103548058744
2025-03-23 19:34:41.842,-2.427078497907661
2025-03-23 19:34:41.842,-3.670537002797695
2025-03-23 19:34:41.842,-1.8182385766341371
2025-03-23 19:34:41.842,0.9260195169654348
2025-03-23 19:34:41.842,2.16967950188544
2025-03-23 19:34:41.850,1.7144950935939027
2025-03-23 19:34:41.850,0.6866762433282618
2025-03-23 19:34:41.850,-0.41093498388527666
2025-03-23 19:34:41.851,-1.597053507569098
2025-03-23 19:34:41.851,-2.221472522533721
2025-03-23 19:34:41.862,-1.276245618337914
2025-03-23 19:34:41.862,1.1751965323957583
2025-03-23 19:34:41.862,3.5010473391102592
2025-03-23 19:34:41.862,3.4461358076433886
2025-03-23 19:34:41.862,0.01664982486942164
2025-03-23 19:34:41.870,-4.637023807048029
2025-03-23 19:34:41.870,-5.879844821708139
2025-03-23 19:34:41.871,-1.2278035566812504
2025-03-23 19:34:41.871,5.4969999720827465
2025-03-23 19:34:41.871,7.114010428121291
2025-03-23 19:34:41.880,1.423617718221053
2025-03-23 19:34:41.880,-5.514307125158531
2025-03-23 19:34:41.881,-6.340464575319305
2025-03-23 19:34:41.881,-0.9547177258897077
2025-03-23 19:34:41.890,4.290803785202116
2025-03-23 19:34:41.890,4.67565262530323
2025-03-23 19:34:41.890,1.3309972328205868
2025-03-23 19:34:41.890,-2.1364117609479587
2025-03-23 19:34:41.891,-3.7298735219118955
2025-03-23 19:34:41.900,-2.981026511685872
2025-03-23 19:34:41.900,0.016648745392785436
2025-03-23 19:34:41.900,3.5177694208063923
2025-03-23 19:34:41.901,4.2249848836660355
2025-03-23 19:34:41.901,0.9292260478752002
2025-03-23 19:34:41.910,-3.0209048954944855
2025-03-23 19:34:41.910,-3.2602732799800305
2025-03-23 19:34:41.910,-0.033888310382977294
2025-03-23 19:34:41.910,2.077189358175478
2025-03-23 19:34:41.911,0.40310492880034676
2025-03-23 19:34:41.920,-2.181234874621361
2025-03-23 19:34:41.920,-1.3720003272793244
2025-03-23 19:34:41.920,2.3635041112946302
2025-03-23 19:34:41.920,4.10755891668996
2025-03-23 19:34:41.921,1.0491645819364879
2025-03-23 19:34:41.930,-3.504798843116445
2025-03-23 19:34:41.930,-4.1738522431068
2025-03-23 19:34:41.930,-0.41361683000488625
2025-03-23 19:34:41.930,2.8975704162972478
2025-03-23 19:34:41.930,2.0516097600998857
2025-03-23 19:34:41.940,-0.7579847838314124
2025-03-23 19:34:41.940,-1.1683552616047614
2025-03-23 19:34:41.940,0.7776753436150163
2025-03-23 19:34:41.940,1.1789619630494321
2025-03-23 19:34:41.940,-1.0182354320962437
2025-03-23 19:34:41.950,-2.0063017586046703
2025-03-23 19:34:41.950,0.5991360632860159
2025-03-23 19:34:41.950,3.120109497962458
2025-03-23 19:34:41.950,0.8753849261901264
2025-03-23 19:34:41.950,-4.09039616200077
2025-03-23 19:34:41.960,-4.696741785392822
2025-03-23 19:34:41.960,1.2938773122713734
2025-03-23 19:34:41.960,7.0424166077282395
2025-03-23 19:34:41.960,4.993085465432148
2025-03-23 19:34:41.960,-2.8975635701698725
2025-03-23 19:34:41.970,-7.279252010977079
2025-03-23 19:34:41.970,-3.4074731792435524
2025-03-23 19:34:41.970,3.196225196481007
2025-03-23 19:34:41.970,4.677477031007025
2025-03-23 19:34:41.970,0.8163334698123241
2025-03-23 19:34:41.980,-2.2768015962162287
2025-03-23 19:34:41.980,-1.3111151549023623
2025-03-23 19:34:41.980,0.7446167745192647
2025-03-23 19:34:41.980,0.4684741720058424
2025-03-23 19:34:41.980,-0.8975903241011354
2025-03-23 19:34:41.988,-0.24855838253679755
2025-03-23 19:34:41.988,1.9883800167050036
2025-03-23 19:34:41.988,2.1970680354871597
2025-03-23 19:34:41.989,-1.1175351981239277
