timestamp,bandpass_and_notch
2025-03-22 12:01:11.032,-0.2454738488975945
2025-03-22 12:01:11.032,3.3209133619854554
2025-03-22 12:01:11.032,3.959939219437227
2025-03-22 12:01:11.032,-4.824435893891487
2025-03-22 12:01:11.041,-19.582391203807102
2025-03-22 12:01:11.041,-19.847128450661053
2025-03-22 12:01:11.041,7.802200664355365
2025-03-22 12:01:11.042,41.85241834169092
2025-03-22 12:01:11.042,41.30010465035813
2025-03-22 12:01:11.049,-4.373808082559787
2025-03-22 12:01:11.050,-54.17327155362477
2025-03-22 12:01:11.050,-56.62441751901064
2025-03-22 12:01:11.050,-7.073594062133445
2025-03-22 12:01:11.057,46.71301690889775
2025-03-22 12:01:11.058,55.95245215534544
2025-03-22 12:01:11.058,18.906142029761526
2025-03-22 12:01:11.058,-24.77282825231842
2025-03-22 12:01:11.058,-38.87466155327261
2025-03-22 12:01:11.067,-21.838939427552226
2025-03-22 12:01:11.068,2.7907965873071996
2025-03-22 12:01:11.068,15.553332202492124
2025-03-22 12:01:11.068,15.226763428568507
2025-03-22 12:01:11.077,9.941550832688222
2025-03-22 12:01:11.077,4.02101159948458
2025-03-22 12:01:11.077,-3.282964673748794
2025-03-22 12:01:11.078,-10.97254277853863
2025-03-22 12:01:11.078,-13.865728550880911
2025-03-22 12:01:11.085,-7.767277366229356
2025-03-22 12:01:11.086,4.753384281641814
2025-03-22 12:01:11.086,14.60760132697321
2025-03-22 12:01:11.086,13.036514951512505
2025-03-22 12:01:11.086,0.24321827417939756
2025-03-22 12:01:11.095,-12.507120976664904
2025-03-22 12:01:11.095,-12.481356810138546
2025-03-22 12:01:11.096,0.599203960898244
2025-03-22 12:01:11.096,12.45061608999058
2025-03-22 12:01:11.103,9.295908193344562
2025-03-22 12:01:11.104,-5.761645771048889
2025-03-22 12:01:11.104,-15.157021229373926
2025-03-22 12:01:11.104,-6.942680325831082
2025-03-22 12:01:11.104,10.566011848137148
2025-03-22 12:01:11.113,17.63304033417034
2025-03-22 12:01:11.113,5.8702261998322784
2025-03-22 12:01:11.114,-11.88807839072186
2025-03-22 12:01:11.114,-16.45012631172167
2025-03-22 12:01:11.123,-4.083923135443029
2025-03-22 12:01:11.123,10.347212026319387
2025-03-22 12:01:11.123,11.454345173135
2025-03-22 12:01:11.124,0.38554170861670467
2025-03-22 12:01:11.124,-8.33468944621072
2025-03-22 12:01:11.131,-4.785911683786029
2025-03-22 12:01:11.132,5.1344524459565095
2025-03-22 12:01:11.132,7.6879868970163106
2025-03-22 12:01:11.132,-1.4591090430447413
2025-03-22 12:01:11.141,-11.279389783256526
2025-03-22 12:01:11.141,-8.419251755094711
2025-03-22 12:01:11.142,5.826999428875919
2025-03-22 12:01:11.142,15.697244206386953
2025-03-22 12:01:11.142,9.248804316800838
2025-03-22 12:01:11.151,-7.220876361839536
2025-03-22 12:01:11.151,-16.364368824272
2025-03-22 12:01:11.151,-9.38859268083796
2025-03-22 12:01:11.152,5.495512376078394
2025-03-22 12:01:11.152,13.619780909526078
2025-03-22 12:01:11.161,8.852892739172553
2025-03-22 12:01:11.161,-2.575845367896653
2025-03-22 12:01:11.161,-9.778643490926694
2025-03-22 12:01:11.162,-7.156827764172389
2025-03-22 12:01:11.162,1.2559576869576825
2025-03-22 12:01:11.171,6.198512611517699
2025-03-22 12:01:11.171,3.0978247398935475
2025-03-22 12:01:11.172,-2.7073606348149752
2025-03-22 12:01:11.172,-2.78885408202407
2025-03-22 12:01:11.172,3.0214531427488502
2025-03-22 12:01:11.180,6.012784333333433
2025-03-22 12:01:11.180,0.4105153383418091
2025-03-22 12:01:11.180,-8.167317858490899
2025-03-22 12:01:11.180,-9.265317500519442
2025-03-22 12:01:11.180,-0.5911700288730641
2025-03-22 12:01:11.189,9.130661689388152
2025-03-22 12:01:11.190,10.34154438083915
2025-03-22 12:01:11.190,2.9004703975358828
2025-03-22 12:01:11.190,-5.226766782231275
2025-03-22 12:01:11.199,-7.667426241110296
2025-03-22 12:01:11.200,-5.193060730112727
2025-03-22 12:01:11.200,-1.6574958917688623
2025-03-22 12:01:11.200,1.8339914785883102
2025-03-22 12:01:11.200,5.818247929714709
2025-03-22 12:01:11.209,7.930404077240301
2025-03-22 12:01:11.209,4.233298437361241
2025-03-22 12:01:11.209,-4.273483899100761
2025-03-22 12:01:11.210,-10.28421637943519
2025-03-22 12:01:11.210,-7.6851441900578275
2025-03-22 12:01:11.219,1.282116778271653
2025-03-22 12:01:11.219,8.32032675797738
2025-03-22 12:01:11.220,7.723256028346866
2025-03-22 12:01:11.220,1.3081637822928944
2025-03-22 12:01:11.220,-4.5766256706384265
2025-03-22 12:01:11.229,-5.396598668253244
2025-03-22 12:01:11.229,-1.8392196584186642
2025-03-22 12:01:11.230,1.8525909932293796
2025-03-22 12:01:11.230,2.364897851745432
2025-03-22 12:01:11.230,0.3295943614733037
2025-03-22 12:01:11.239,-1.0462827478605838
2025-03-22 12:01:11.239,-0.08260881567894987
2025-03-22 12:01:11.239,1.5261300895663068
2025-03-22 12:01:11.240,1.3095013186548918
2025-03-22 12:01:11.240,-0.6336158559442268
2025-03-22 12:01:11.249,-2.0096733460838516
2025-03-22 12:01:11.249,-1.4660256900209465
2025-03-22 12:01:11.250,0.007196537534833444
2025-03-22 12:01:11.250,0.8355984561269827
2025-03-22 12:01:11.250,0.8421005562232602
2025-03-22 12:01:11.259,0.9325843285469546
2025-03-22 12:01:11.259,1.3769839196138491
2025-03-22 12:01:11.259,1.0601345395030117
2025-03-22 12:01:11.260,-1.1935612232255564
2025-03-22 12:01:11.260,-4.314327510149508
2025-03-22 12:01:11.269,-4.6235955569995895
2025-03-22 12:01:11.269,0.45794632044763584
2025-03-22 12:01:11.270,7.619479638243836
2025-03-22 12:01:11.270,8.91687311866786
2025-03-22 12:01:11.270,0.6684773976045676
2025-03-22 12:01:11.278,-9.987367512374668
2025-03-22 12:01:11.278,-11.38400440391788
2025-03-22 12:01:11.278,-1.1068481685864962
2025-03-22 12:01:11.278,10.0503841546018
2025-03-22 12:01:11.287,10.272553403867036
2025-03-22 12:01:11.288,0.37520953417787206
2025-03-22 12:01:11.288,-7.987137217897981
2025-03-22 12:01:11.288,-6.583359831504229
2025-03-22 12:01:11.288,0.8449088948053458
2025-03-22 12:01:11.297,5.0907202240719265
2025-03-22 12:01:11.298,2.863316462202202
2025-03-22 12:01:11.298,-1.3103034505158653
2025-03-22 12:01:11.298,-2.56045279340447
2025-03-22 12:01:11.298,-1.0047325648744883
2025-03-22 12:01:11.307,0.6342414982550334
2025-03-22 12:01:11.307,1.2046344476017135
2025-03-22 12:01:11.308,1.1274273307796616
2025-03-22 12:01:11.308,0.39803557523028077
2025-03-22 12:01:11.308,-1.1179345743350553
2025-03-22 12:01:11.317,-2.177129269831691
2025-03-22 12:01:11.317,-1.059362752777441
2025-03-22 12:01:11.318,1.679246351278114
2025-03-22 12:01:11.318,2.9888238519164956
2025-03-22 12:01:11.318,1.0987006283175973
2025-03-22 12:01:11.327,-1.656461429470028
2025-03-22 12:01:11.327,-1.9276530494169395
2025-03-22 12:01:11.327,-0.4945247011866153
2025-03-22 12:01:11.328,-0.8041007674580514
2025-03-22 12:01:11.328,-2.2309027845082214
2025-03-22 12:01:11.336,0.02557907872554862
2025-03-22 12:01:11.336,5.946902130473597
2025-03-22 12:01:11.336,7.4104354293835595
2025-03-22 12:01:11.336,-0.704505592847495
2025-03-22 12:01:11.336,-10.459706397635994
2025-03-22 12:01:11.345,-9.435746197787147
2025-03-22 12:01:11.346,2.1144795537100936
2025-03-22 12:01:11.346,10.586082288194921
2025-03-22 12:01:11.346,6.788816112130753
2025-03-22 12:01:11.355,-2.7843671483235566
2025-03-22 12:01:11.356,-6.16917308319909
2025-03-22 12:01:11.356,-1.7065159887705428
2025-03-22 12:01:11.356,2.2647794957494454
2025-03-22 12:01:11.356,0.5348287774163591
2025-03-22 12:01:11.365,-2.829350736544059
2025-03-22 12:01:11.365,-1.9176224890282116
2025-03-22 12:01:11.366,2.642575944268883
2025-03-22 12:01:11.366,5.319839265711897
2025-03-22 12:01:11.366,3.007264549812643
2025-03-22 12:01:11.375,-2.0200909075564026
2025-03-22 12:01:11.375,-5.479343037053944
2025-03-22 12:01:11.376,-5.106707231991123
2025-03-22 12:01:11.376,-1.3792075555811087
2025-03-22 12:01:11.376,3.6541197908521337
2025-03-22 12:01:11.385,7.059479274745849
2025-03-22 12:01:11.385,5.806381512873901
2025-03-22 12:01:11.386,-0.7572580277807066
2025-03-22 12:01:11.386,-8.374355419842491
2025-03-22 12:01:11.386,-9.753190783114475
2025-03-22 12:01:11.395,-1.7584892231747218
2025-03-22 12:01:11.395,9.141150365546055
2025-03-22 12:01:11.395,11.692748346206995
2025-03-22 12:01:11.396,2.3574889532602894
2025-03-22 12:01:11.396,-9.104084258826054
2025-03-22 12:01:11.403,-10.127667218312002
2025-03-22 12:01:11.404,-0.5819825988879522
2025-03-22 12:01:11.404,7.249004667677769
2025-03-22 12:01:11.404,4.866203846296178
2025-03-22 12:01:11.413,-1.9829923408383812
2025-03-22 12:01:11.414,-2.989578595887147
2025-03-22 12:01:11.414,1.608543718616696
2025-03-22 12:01:11.414,2.7988617822452166
2025-03-22 12:01:11.414,-2.2227689869184286
2025-03-22 12:01:11.423,-5.429268146721073
2025-03-22 12:01:11.423,-0.7319109557236008
2025-03-22 12:01:11.424,5.846503856756504
2025-03-22 12:01:11.424,4.628088594807138
2025-03-22 12:01:11.424,-3.067691411971567
2025-03-22 12:01:11.433,-6.262918810945283
2025-03-22 12:01:11.433,-0.2798436635805081
2025-03-22 12:01:11.434,6.036359805097848
2025-03-22 12:01:11.434,2.9936844743717668
2025-03-22 12:01:11.434,-5.34030330951571
2025-03-22 12:01:11.443,-6.235368709967894
2025-03-22 12:01:11.443,3.2544266945692284
2025-03-22 12:01:11.443,10.661967276552865
2025-03-22 12:01:11.443,4.310401717988149
2025-03-22 12:01:11.444,-10.011950386313575
2025-03-22 12:01:11.451,-14.745526328401956
2025-03-22 12:01:11.452,-2.3228071488073523
2025-03-22 12:01:11.452,14.2915924124656
2025-03-22 12:01:11.452,16.033926417079726
2025-03-22 12:01:11.461,0.3937151889772066
2025-03-22 12:01:11.461,-14.915979816188978
2025-03-22 12:01:11.461,-12.48688457065165
2025-03-22 12:01:11.462,3.849466720632398
2025-03-22 12:01:11.462,13.282633145195337
2025-03-22 12:01:11.469,3.710281199794657
2025-03-22 12:01:11.470,-12.168577784284238
2025-03-22 12:01:11.470,-11.953545150059409
2025-03-22 12:01:11.470,7.103668342368469
2025-03-22 12:01:11.477,22.090558922024368
2025-03-22 12:01:11.478,12.110372783664312
2025-03-22 12:01:11.478,-14.070162963310466
2025-03-22 12:01:11.478,-26.870416977432477
2025-03-22 12:01:11.487,-11.742627975250361
2025-03-22 12:01:11.487,13.323794566073888
2025-03-22 12:01:11.488,20.845515644604497
2025-03-22 12:01:11.488,7.006461775824592
2025-03-22 12:01:11.488,-7.285660531747467
2025-03-22 12:01:11.497,-5.77381821303945
2025-03-22 12:01:11.497,3.742098459976328
2025-03-22 12:01:11.497,3.3387565331157014
2025-03-22 12:01:11.498,-9.417136794308815
2025-03-22 12:01:11.498,-17.836264477882082
2025-03-22 12:01:11.506,-7.198568151518051
2025-03-22 12:01:11.506,16.152635070034187
2025-03-22 12:01:11.506,29.526413553870974
2025-03-22 12:01:11.506,17.062477436881753
2025-03-22 12:01:11.515,-12.728303872086606
2025-03-22 12:01:11.515,-33.36856619789763
2025-03-22 12:01:11.516,-25.455883347993613
2025-03-22 12:01:11.516,4.148009534802181
2025-03-22 12:01:11.516,28.568703652722032
2025-03-22 12:01:11.523,26.781053481001024
2025-03-22 12:01:11.523,3.0831135503328664
2025-03-22 12:01:11.524,-19.164941030302145
2025-03-22 12:01:11.524,-21.630791882515727
2025-03-22 12:01:11.533,-6.700357565092463
2025-03-22 12:01:11.533,9.631803452391976
2025-03-22 12:01:11.534,15.099090655542144
2025-03-22 12:01:11.534,8.757574033954402
2025-03-22 12:01:11.534,-3.100925782912281
2025-03-22 12:01:11.541,-11.920321749770347
2025-03-22 12:01:11.542,-10.388181584683231
2025-03-22 12:01:11.542,1.273458692242093
2025-03-22 12:01:11.542,12.18317733107134
2025-03-22 12:01:11.551,10.480451936494644
2025-03-22 12:01:11.552,-2.4201166910437384
2025-03-22 12:01:11.552,-12.449540385394542
2025-03-22 12:01:11.552,-9.198322336093383
2025-03-22 12:01:11.552,2.949896142044736
2025-03-22 12:01:11.559,11.34453579702545
2025-03-22 12:01:11.560,8.482280176692743
2025-03-22 12:01:11.560,-2.4632100662390526
2025-03-22 12:01:11.560,-11.43841921767951
2025-03-22 12:01:11.560,-9.37993985110665
2025-03-22 12:01:11.569,3.4328134371486305
2025-03-22 12:01:11.570,14.792784762991179
2025-03-22 12:01:11.570,10.908392469521425
2025-03-22 12:01:11.570,-6.852350197313658
2025-03-22 12:01:11.579,-19.467793979819056
2025-03-22 12:01:11.579,-10.630535775022487
2025-03-22 12:01:11.580,11.756277375290798
2025-03-22 12:01:11.580,21.92711981802242
2025-03-22 12:01:11.580,6.727138988679007
2025-03-22 12:01:11.587,-16.842286221981688
2025-03-22 12:01:11.588,-21.02811712144946
2025-03-22 12:01:11.588,-0.8987944971754884
2025-03-22 12:01:11.588,19.977274856084055
2025-03-22 12:01:11.595,18.307116448821727
2025-03-22 12:01:11.596,-2.4274117384890617
2025-03-22 12:01:11.596,-18.77493528917866
2025-03-22 12:01:11.596,-15.228453586724063
2025-03-22 12:01:11.605,1.242064956616441
2025-03-22 12:01:11.605,12.926663674067667
2025-03-22 12:01:11.606,11.165864981921107
2025-03-22 12:01:11.606,2.0274461124827554
2025-03-22 12:01:11.606,-4.223404181379805
2025-03-22 12:01:11.615,-4.744948552824192
2025-03-22 12:01:11.615,-3.985023066208429
2025-03-22 12:01:11.616,-4.702972167184735
2025-03-22 12:01:11.616,-3.4561885942319255
2025-03-22 12:01:11.616,3.167477293102523
2025-03-22 12:01:11.623,10.796776692150589
2025-03-22 12:01:11.624,10.350492940053059
2025-03-22 12:01:11.624,-0.42279565624476484
2025-03-22 12:01:11.624,-12.059877740100287
2025-03-22 12:01:11.633,-12.716125409837037
2025-03-22 12:01:11.633,-1.318471227572188
2025-03-22 12:01:11.633,10.580559550067603
2025-03-22 12:01:11.634,10.530129670439848
2025-03-22 12:01:11.634,-1.405062537084489
2025-03-22 12:01:11.641,-11.625251397171109
2025-03-22 12:01:11.642,-7.229935988809794
2025-03-22 12:01:11.642,8.338737435661123
2025-03-22 12:01:11.642,17.086012662655314
2025-03-22 12:01:11.651,6.568322611179529
2025-03-22 12:01:11.651,-14.164442204921826
2025-03-22 12:01:11.651,-22.94626327682762
2025-03-22 12:01:11.652,-8.971887162291338
2025-03-22 12:01:11.652,14.526933252379479
2025-03-22 12:01:11.659,24.089389675573962
2025-03-22 12:01:11.659,11.000109035912047
2025-03-22 12:01:11.660,-10.214035524857326
2025-03-22 12:01:11.660,-18.64016144761312
2025-03-22 12:01:11.669,-9.34568466927567
2025-03-22 12:01:11.670,4.196062794425824
2025-03-22 12:01:11.670,8.341663181980898
2025-03-22 12:01:11.670,4.08600155203296
2025-03-22 12:01:11.670,1.14415051859144
2025-03-22 12:01:11.679,2.5633474883206326
2025-03-22 12:01:11.679,2.0866232275676593
2025-03-22 12:01:11.680,-3.9127800809023743
2025-03-22 12:01:11.680,-9.125468945050022
2025-03-22 12:01:11.680,-5.7763823689529366
2025-03-22 12:01:11.689,3.6697017581308127
2025-03-22 12:01:11.690,8.782604751296573
2025-03-22 12:01:11.690,4.5768685074393005
2025-03-22 12:01:11.690,-2.3958896437328137
2025-03-22 12:01:11.690,-3.3661668324965546
2025-03-22 12:01:11.699,0.9861554597158133
2025-03-22 12:01:11.699,2.3458552970621978
2025-03-22 12:01:11.700,-2.8018020039129716
2025-03-22 12:01:11.700,-7.4022276808842316
2025-03-22 12:01:11.700,-3.1377353504243874
2025-03-22 12:01:11.707,7.121927372549896
2025-03-22 12:01:11.708,10.971061784319478
2025-03-22 12:01:11.708,1.98184932088208
2025-03-22 12:01:11.708,-10.269143251398003
2025-03-22 12:01:11.717,-10.38782857243025
2025-03-22 12:01:11.717,3.0741654077109564
2025-03-22 12:01:11.718,13.660998245023853
2025-03-22 12:01:11.718,6.653095720276324
2025-03-22 12:01:11.718,-10.838731177867274
2025-03-22 12:01:11.725,-16.54648930186579
2025-03-22 12:01:11.726,-1.1255021042493167
2025-03-22 12:01:11.726,17.73699955791561
2025-03-22 12:01:11.726,16.041518566485397
2025-03-22 12:01:11.726,-5.35423009449603
2025-03-22 12:01:11.735,-20.315756335414953
2025-03-22 12:01:11.735,-10.463621028617393
2025-03-22 12:01:11.736,11.131390217898407
2025-03-22 12:01:11.736,17.502304038479302
2025-03-22 12:01:11.743,2.8238511427700175
2025-03-22 12:01:11.744,-12.467092043781914
2025-03-22 12:01:11.744,-11.045367067686541
2025-03-22 12:01:11.744,0.49804313189888016
2025-03-22 12:01:11.744,6.0903642320325435
2025-03-22 12:01:11.755,3.750527387780397
2025-03-22 12:01:11.755,3.258756915196541
2025-03-22 12:01:11.755,6.3487295160018995
2025-03-22 12:01:11.756,3.2018266977339653
2025-03-22 12:01:11.756,-9.603439376451684
2025-03-22 12:01:11.763,-18.83337091328322
2025-03-22 12:01:11.764,-9.82617104938443
2025-03-22 12:01:11.764,12.442888070338007
2025-03-22 12:01:11.764,25.592819084814852
2025-03-22 12:01:11.771,14.544025865794731
2025-03-22 12:01:11.772,-10.674964391236635
2025-03-22 12:01:11.772,-24.97763333928154
2025-03-22 12:01:11.772,-14.617796793647997
2025-03-22 12:01:11.781,8.689579003177064
2025-03-22 12:01:11.781,20.264461616490706
2025-03-22 12:01:11.782,8.717295411428893
2025-03-22 12:01:11.782,-11.289466464728658
2025-03-22 12:01:11.782,-15.337276083466195
2025-03-22 12:01:11.790,1.3713504688755354
2025-03-22 12:01:11.790,17.06119805238385
2025-03-22 12:01:11.790,10.626005823295777
2025-03-22 12:01:11.790,-10.469978126417548
2025-03-22 12:01:11.799,-19.489795722687052
2025-03-22 12:01:11.799,-5.347751604653257
2025-03-22 12:01:11.800,13.861671772102405
2025-03-22 12:01:11.800,15.5623329038642
2025-03-22 12:01:11.800,0.5026725602931608
2025-03-22 12:01:11.809,-11.775914524859852
2025-03-22 12:01:11.809,-8.953389152015674
2025-03-22 12:01:11.810,2.1053436515225297
2025-03-22 12:01:11.810,7.968257322397327
2025-03-22 12:01:11.810,4.585147581334227
2025-03-22 12:01:11.818,-1.9510967445599317
2025-03-22 12:01:11.818,-5.010620474167419
2025-03-22 12:01:11.818,-3.4916407547842256
2025-03-22 12:01:11.818,-0.20434616154661547
2025-03-22 12:01:11.818,2.3161071407604537
2025-03-22 12:01:11.828,3.6553888584823646
2025-03-22 12:01:11.828,4.028563227527419
2025-03-22 12:01:11.828,2.1069436838809743
2025-03-22 12:01:11.828,-3.5492375147614363
2025-03-22 12:01:11.828,-9.846711681012408
2025-03-22 12:01:11.837,-9.003840924997993
2025-03-22 12:01:11.838,2.6894549474150615
2025-03-22 12:01:11.838,16.58377581221677
2025-03-22 12:01:11.838,17.321505468012532
2025-03-22 12:01:11.846,-0.12732516893867152
2025-03-22 12:01:11.846,-21.389918526329627
2025-03-22 12:01:11.846,-24.877329958248747
2025-03-22 12:01:11.846,-4.528146877850846
2025-03-22 12:01:11.846,21.677785088818162
2025-03-22 12:01:11.855,28.616749721211487
2025-03-22 12:01:11.856,9.609447816571578
2025-03-22 12:01:11.856,-16.81011129197166
2025-03-22 12:01:11.856,-26.26890689735692
2025-03-22 12:01:11.863,-12.622205950883963
2025-03-22 12:01:11.864,8.624708454901988
2025-03-22 12:01:11.864,18.442061265357605
2025-03-22 12:01:11.864,12.17927750239951
2025-03-22 12:01:11.864,-0.34817747894194906
2025-03-22 12:01:11.873,-8.120002597678221
2025-03-22 12:01:11.873,-8.603610201098672
2025-03-22 12:01:11.874,-5.509621533709576
2025-03-22 12:01:11.874,-1.5476613805277464
2025-03-22 12:01:11.883,3.421625366575229
2025-03-22 12:01:11.884,8.257448282413357
2025-03-22 12:01:11.884,8.581560510001484
2025-03-22 12:01:11.884,1.543937220870585
2025-03-22 12:01:11.884,-8.545978345884254
2025-03-22 12:01:11.893,-12.352782814872574
2025-03-22 12:01:11.893,-4.980961834278284
2025-03-22 12:01:11.894,7.47755157948429
2025-03-22 12:01:11.894,12.960045386985437
2025-03-22 12:01:11.894,6.130438867561815
2025-03-22 12:01:11.903,-5.384548121173422
2025-03-22 12:01:11.903,-9.711567403137398
2025-03-22 12:01:11.904,-4.630956167783027
2025-03-22 12:01:11.904,1.2267715368341598
2025-03-22 12:01:11.904,1.4851147433221241
2025-03-22 12:01:11.913,0.5559957094102037
2025-03-22 12:01:11.913,4.8646021566478845
2025-03-22 12:01:11.914,10.141689612850827
2025-03-22 12:01:11.914,5.482948014825192
2025-03-22 12:01:11.914,-9.534275914775725
2025-03-22 12:01:11.921,-19.616573948362444
2025-03-22 12:01:11.922,-11.038197646946404
2025-03-22 12:01:11.922,9.580433046030535
2025-03-22 12:01:11.922,20.837169920683298
2025-03-22 12:01:11.931,11.516871316512214
2025-03-22 12:01:11.931,-6.221483422077107
2025-03-22 12:01:11.931,-12.466600821167223
2025-03-22 12:01:11.932,-3.945610533470256
2025-03-22 12:01:11.932,4.003582061071365
2025-03-22 12:01:11.940,-0.4899533766198789
2025-03-22 12:01:11.940,-9.347751080749717
2025-03-22 12:01:11.940,-5.7586191066865915
2025-03-22 12:01:11.940,11.20074880561323
2025-03-22 12:01:11.949,21.68545505355817
2025-03-22 12:01:11.949,9.165937049031864
2025-03-22 12:01:11.950,-16.00401439350313
2025-03-22 12:01:11.950,-26.036064363201053
2025-03-22 12:01:11.950,-9.232511126412023
2025-03-22 12:01:11.957,14.987769034072638
2025-03-22 12:01:11.958,19.943773943793257
2025-03-22 12:01:11.958,3.804819842854301
2025-03-22 12:01:11.958,-10.960974362500485
2025-03-22 12:01:11.967,-7.704614796943526
2025-03-22 12:01:11.967,5.041815437717727
2025-03-22 12:01:11.968,7.793041923666447
2025-03-22 12:01:11.968,-3.525216528691633
2025-03-22 12:01:11.968,-13.22269590048487
2025-03-22 12:01:11.977,-7.074356209097917
2025-03-22 12:01:11.977,9.108272691298268
2025-03-22 12:01:11.978,16.59685556251247
2025-03-22 12:01:11.978,6.786571741974027
2025-03-22 12:01:11.978,-8.755448369155216
2025-03-22 12:01:11.987,-13.055150754796966
2025-03-22 12:01:11.987,-3.993106657562758
2025-03-22 12:01:11.987,5.23007553619308
2025-03-22 12:01:11.988,4.385244124016191
2025-03-22 12:01:11.988,-1.6635413729965176
2025-03-22 12:01:11.997,-1.97409173461869
2025-03-22 12:01:11.997,4.462621727491328
2025-03-22 12:01:11.997,7.790806617019804
2025-03-22 12:01:11.998,1.3138825382034365
2025-03-22 12:01:11.998,-9.16392481970905
2025-03-22 12:01:12.005,-12.077366606924992
2025-03-22 12:01:12.006,-3.4091459268327644
2025-03-22 12:01:12.006,8.982179652469034
2025-03-22 12:01:12.006,13.56461408705221
2025-03-22 12:01:12.015,6.390613584876214
2025-03-22 12:01:12.015,-5.654493297621129
2025-03-22 12:01:12.016,-11.977006867202414
2025-03-22 12:01:12.016,-8.140347576821561
2025-03-22 12:01:12.016,1.1660277619943837
2025-03-22 12:01:12.025,7.885529156116918
2025-03-22 12:01:12.025,7.961389721364569
2025-03-22 12:01:12.026,3.070422845284444
2025-03-22 12:01:12.026,-2.8489720078331824
2025-03-22 12:01:12.026,-6.727990164524197
2025-03-22 12:01:12.035,-6.63241241855522
2025-03-22 12:01:12.035,-1.8077079404838006
2025-03-22 12:01:12.035,5.54387830712
2025-03-22 12:01:12.036,9.705529540265351
2025-03-22 12:01:12.036,5.687349392319339
2025-03-22 12:01:12.045,-4.4733846276008915
2025-03-22 12:01:12.045,-11.45823020292295
2025-03-22 12:01:12.046,-7.723040352106219
2025-03-22 12:01:12.046,3.1450391663617174
2025-03-22 12:01:12.046,9.49516938474977
2025-03-22 12:01:12.055,5.487866185659433
2025-03-22 12:01:12.055,-1.8671703276151654
2025-03-22 12:01:12.056,-2.86559101074476
2025-03-22 12:01:12.056,1.377955125009172
2025-03-22 12:01:12.056,1.6029894143243484
2025-03-22 12:01:12.064,-4.79155254628713
2025-03-22 12:01:12.064,-8.995573976918397
2025-03-22 12:01:12.064,-3.153152787369511
2025-03-22 12:01:12.064,8.145761217011412
2025-03-22 12:01:12.073,13.006874834328993
2025-03-22 12:01:12.073,6.148777723245485
2025-03-22 12:01:12.074,-6.010544626656216
2025-03-22 12:01:12.074,-12.814862608564216
2025-03-22 12:01:12.074,-8.970154670124124
2025-03-22 12:01:12.082,2.1404460772689147
2025-03-22 12:01:12.082,11.348734068690115
2025-03-22 12:01:12.082,10.260799066383939
2025-03-22 12:01:12.082,-1.0999220506530967
2025-03-22 12:01:12.082,-12.011492790480979
2025-03-22 12:01:12.091,-10.23380565556608
2025-03-22 12:01:12.092,3.827591049758176
2025-03-22 12:01:12.092,15.156326875914466
2025-03-22 12:01:12.092,10.193414346121271
2025-03-22 12:01:12.100,-6.759186371188908
2025-03-22 12:01:12.100,-17.553832262980187
2025-03-22 12:01:12.100,-10.652822820141491
2025-03-22 12:01:12.100,6.3706332080774395
2025-03-22 12:01:12.100,16.166340758188873
2025-03-22 12:01:12.110,10.379873319242712
2025-03-22 12:01:12.110,-3.343913636134637
2025-03-22 12:01:12.110,-11.403992998355456
2025-03-22 12:01:12.110,-8.155019969904355
2025-03-22 12:01:12.119,0.6513548780783175
2025-03-22 12:01:12.119,5.9639847913148385
2025-03-22 12:01:12.120,4.65137730171563
2025-03-22 12:01:12.120,0.5128311476648348
2025-03-22 12:01:12.120,-1.836025790618708
2025-03-22 12:01:12.129,-1.7440215228779716
2025-03-22 12:01:12.130,-1.1274696946455292
2025-03-22 12:01:12.130,-0.7391737881567704
2025-03-22 12:01:12.130,0.24034610535393036
2025-03-22 12:01:12.130,1.8482582862120074
2025-03-22 12:01:12.139,2.6016537441128316
2025-03-22 12:01:12.139,1.2485425303838564
2025-03-22 12:01:12.140,-1.7742112666316328
2025-03-22 12:01:12.140,-4.472597314362708
2025-03-22 12:01:12.140,-4.3210875714932895
2025-03-22 12:01:12.149,-0.18542949434589662
2025-03-22 12:01:12.149,5.566904101024948
2025-03-22 12:01:12.150,7.874922170325572
2025-03-22 12:01:12.150,3.7049608192670984
2025-03-22 12:01:12.150,-4.117302460488247
2025-03-22 12:01:12.159,-9.019506683954612
2025-03-22 12:01:12.159,-6.872730508688526
2025-03-22 12:01:12.160,0.2927598443348023
2025-03-22 12:01:12.160,6.484270957934456
2025-03-22 12:01:12.160,7.230609368668697
2025-03-22 12:01:12.168,3.0934379330778814
2025-03-22 12:01:12.168,-1.7557496522960114
2025-03-22 12:01:12.168,-3.944370408155289
2025-03-22 12:01:12.168,-3.4770145324925323
2025-03-22 12:01:12.168,-2.2259485423037457
2025-03-22 12:01:12.179,-1.045191923279495
2025-03-22 12:01:12.179,0.7270081518707978
2025-03-22 12:01:12.179,3.2689107833920197
2025-03-22 12:01:12.180,4.869598007181428
2025-03-22 12:01:12.180,3.3225464503811493
2025-03-22 12:01:12.188,-1.268276743818633
2025-03-22 12:01:12.188,-5.78285164096351
2025-03-22 12:01:12.188,-6.67455626483393
2025-03-22 12:01:12.188,-2.9315106814083833
2025-03-22 12:01:12.197,3.435876902969029
2025-03-22 12:01:12.198,8.54631946809213
2025-03-22 12:01:12.198,8.190877556988234
2025-03-22 12:01:12.198,0.9061886131325685
2025-03-22 12:01:12.198,-8.683103350818318
2025-03-22 12:01:12.207,-11.987656265119567
2025-03-22 12:01:12.207,-4.977017670921527
2025-03-22 12:01:12.208,6.417645731387494
2025-03-22 12:01:12.208,11.980888405836483
2025-03-22 12:01:12.208,7.6034789147980595
2025-03-22 12:01:12.217,-1.9236004410691558
2025-03-22 12:01:12.218,-8.999817942105885
2025-03-22 12:01:12.218,-9.285180794866516
2025-03-22 12:01:12.218,-2.952295662936197
2025-03-22 12:01:12.218,5.999394354469816
2025-03-22 12:01:12.225,10.857814721968476
2025-03-22 12:01:12.226,6.385454162062119
2025-03-22 12:01:12.226,-4.9971269144270085
2025-03-22 12:01:12.226,-12.735081267861238
2025-03-22 12:01:12.235,-7.745894653379091
2025-03-22 12:01:12.236,6.3331923176368345
2025-03-22 12:01:12.236,14.596343434646231
2025-03-22 12:01:12.236,6.8407976092661205
2025-03-22 12:01:12.236,-9.166853178558162
2025-03-22 12:01:12.245,-14.966936275117831
2025-03-22 12:01:12.245,-3.35181404377426
2025-03-22 12:01:12.246,11.704109999930314
2025-03-22 12:01:12.246,11.763624950890694
2025-03-22 12:01:12.246,-2.4627387333785116
2025-03-22 12:01:12.253,-11.917917581715631
2025-03-22 12:01:12.254,-4.5438701097147804
2025-03-22 12:01:12.254,8.69669685209194
2025-03-22 12:01:12.254,9.181638171127364
2025-03-22 12:01:12.263,-3.810468608523851
2025-03-22 12:01:12.263,-12.467817604892739
2025-03-22 12:01:12.264,-4.858995446526611
2025-03-22 12:01:12.264,9.38600849642852
2025-03-22 12:01:12.264,12.297404612548945
2025-03-22 12:01:12.273,0.6292817347475327
2025-03-22 12:01:12.273,-11.082722765262057
2025-03-22 12:01:12.274,-9.273273540375653
2025-03-22 12:01:12.274,2.8598605740813605
2025-03-22 12:01:12.274,10.605320876247514
2025-03-22 12:01:12.281,5.571322285490008
2025-03-22 12:01:12.282,-5.383861298611519
2025-03-22 12:01:12.282,-9.205475990223253
2025-03-22 12:01:12.282,-2.0765857825644334
2025-03-22 12:01:12.282,6.618598248384407
2025-03-22 12:01:12.291,6.090896510993497
2025-03-22 12:01:12.292,-2.335872942149797
2025-03-22 12:01:12.292,-6.735445494493649
2025-03-22 12:01:12.292,-0.2239506486097585
2025-03-22 12:01:12.301,8.818770621431563
2025-03-22 12:01:12.302,6.6300282899326985
2025-03-22 12:01:12.302,-7.063750698147929
2025-03-22 12:01:12.302,-16.194748487885498
2025-03-22 12:01:12.302,-7.350400215369492
2025-03-22 12:01:12.310,12.395929201561291
2025-03-22 12:01:12.310,21.72430037127604
2025-03-22 12:01:12.310,8.98234559606202
2025-03-22 12:01:12.310,-13.842161278133458
2025-03-22 12:01:12.319,-23.301136105164172
2025-03-22 12:01:12.320,-9.753847697836992
2025-03-22 12:01:12.320,12.178007236317917
2025-03-22 12:01:12.320,20.00764640193279
2025-03-22 12:01:12.320,8.024661745889922
2025-03-22 12:01:12.329,-8.478943870814827
2025-03-22 12:01:12.329,-12.912720765602986
2025-03-22 12:01:12.330,-5.100062053769922
2025-03-22 12:01:12.330,3.4157890637706525
2025-03-22 12:01:12.330,5.574120846783659
2025-03-22 12:01:12.339,3.7174048158045743
2025-03-22 12:01:12.339,1.3950599000504822
2025-03-22 12:01:12.340,-1.5607927761709404
2025-03-22 12:01:12.340,-4.612522080692439
2025-03-22 12:01:12.340,-3.9616776818815573
2025-03-22 12:01:12.349,1.589883891347332
2025-03-22 12:01:12.349,6.268164724774222
2025-03-22 12:01:12.350,3.7396442132911747
2025-03-22 12:01:12.350,-3.6378377599329568
2025-03-22 12:01:12.350,-6.792889354796183
2025-03-22 12:01:12.358,-1.6698728412603607
2025-03-22 12:01:12.358,5.226852451191001
2025-03-22 12:01:12.358,5.303541094852105
2025-03-22 12:01:12.358,-1.068983587808853
2025-03-22 12:01:12.358,-5.523077806846873
2025-03-22 12:01:12.368,-2.6514621106958622
2025-03-22 12:01:12.368,3.654326141403158
2025-03-22 12:01:12.368,5.596652518687151
2025-03-22 12:01:12.368,0.7529243939074131
2025-03-22 12:01:12.368,-5.59436668754372
2025-03-22 12:01:12.377,-6.565313553650351
2025-03-22 12:01:12.378,-0.9206960331006755
2025-03-22 12:01:12.378,6.014270191171004
2025-03-22 12:01:12.378,8.022882963694052
2025-03-22 12:01:12.378,3.618350552934964
2025-03-22 12:01:12.388,-3.777682968357345
2025-03-22 12:01:12.388,-9.092873373598303
2025-03-22 12:01:12.388,-8.095194713972452
2025-03-22 12:01:12.388,0.13073884687039877
2025-03-22 12:01:12.397,9.93053812563996
2025-03-22 12:01:12.397,11.199462592857543
2025-03-22 12:01:12.398,0.4475297335593479
2025-03-22 12:01:12.398,-11.332280921511597
2025-03-22 12:01:12.398,-9.24085164571622
2025-03-22 12:01:12.406,5.36144954426865
2025-03-22 12:01:12.406,13.385210495364237
2025-03-22 12:01:12.406,2.2726516975827042
2025-03-22 12:01:12.406,-15.086207732339354
2025-03-22 12:01:12.407,-15.160329811403066
2025-03-22 12:01:12.415,5.0153850167210585
2025-03-22 12:01:12.416,22.193859865061548
2025-03-22 12:01:12.416,15.448497806116242
2025-03-22 12:01:12.416,-8.000359638032881
2025-03-22 12:01:12.425,-22.137733644900578
2025-03-22 12:01:12.425,-13.15755724353743
2025-03-22 12:01:12.426,6.6533523906007765
2025-03-22 12:01:12.426,15.959033533739332
2025-03-22 12:01:12.426,8.290711487263009
2025-03-22 12:01:12.435,-4.530206016870304
2025-03-22 12:01:12.435,-8.61261214075257
2025-03-22 12:01:12.436,-2.5055745870646398
2025-03-22 12:01:12.436,4.223105122689244
2025-03-22 12:01:12.436,3.4395470268936936
2025-03-22 12:01:12.445,-2.5774352345059124
2025-03-22 12:01:12.445,-4.793527512260054
2025-03-22 12:01:12.446,0.7274002194947532
2025-03-22 12:01:12.446,6.950448077743955
2025-03-22 12:01:12.446,4.362670173427141
2025-03-22 12:01:12.454,-5.769296255080955
2025-03-22 12:01:12.454,-11.185930024266716
2025-03-22 12:01:12.454,-3.6448054293176946
2025-03-22 12:01:12.454,9.698697671068901
2025-03-22 12:01:12.463,14.119132098971992
2025-03-22 12:01:12.463,4.8134999820740445
2025-03-22 12:01:12.464,-8.240536136125606
2025-03-22 12:01:12.464,-13.027608352038179
2025-03-22 12:01:12.464,-7.97622406052284
2025-03-22 12:01:12.473,0.4678168002440633
2025-03-22 12:01:12.473,7.423609767428388
2025-03-22 12:01:12.474,11.203799787362504
2025-03-22 12:01:12.474,8.827711539413372
2025-03-22 12:01:12.474,-1.589339000316667
2025-03-22 12:01:12.482,-13.144372030783003
2025-03-22 12:01:12.482,-13.329508382363025
2025-03-22 12:01:12.482,0.30159554166935054
2025-03-22 12:01:12.482,13.606805897377335
2025-03-22 12:01:12.491,11.558290236463462
2025-03-22 12:01:12.491,-2.809723214276213
2025-03-22 12:01:12.492,-12.265189890255577
2025-03-22 12:01:12.492,-7.1770490253481185
2025-03-22 12:01:12.492,4.057157084969033
2025-03-22 12:01:12.501,8.186098679810742
2025-03-22 12:01:12.501,3.6667984281350687
2025-03-22 12:01:12.501,-1.0904124861775963
2025-03-22 12:01:12.502,-1.481258558382259
2025-03-22 12:01:12.502,-1.3002478098154915
2025-03-22 12:01:12.510,-3.8995054838626184
2025-03-22 12:01:12.510,-5.571217255703909
2025-03-22 12:01:12.510,-1.2048176933215307
2025-03-22 12:01:12.510,6.934807637718037
2025-03-22 12:01:12.519,10.373576235614951
2025-03-22 12:01:12.519,4.2369121955430025
2025-03-22 12:01:12.520,-6.6026477936109895
2025-03-22 12:01:12.520,-12.091705712150409
2025-03-22 12:01:12.520,-6.974575582628253
2025-03-22 12:01:12.529,4.1345455502661315
2025-03-22 12:01:12.529,11.211367628017834
2025-03-22 12:01:12.530,8.184001208933168
2025-03-22 12:01:12.530,-1.570852331349811
2025-03-22 12:01:12.530,-8.532712728292863
2025-03-22 12:01:12.539,-6.311827731099618
2025-03-22 12:01:12.539,1.6041035418007077
2025-03-22 12:01:12.540,5.261388110729904
2025-03-22 12:01:12.540,0.06552301956572099
2025-03-22 12:01:12.540,-6.259274882025921
2025-03-22 12:01:12.548,-2.6981991621721404
2025-03-22 12:01:12.548,8.999503356088669
2025-03-22 12:01:12.548,13.567897997876965
2025-03-22 12:01:12.548,1.5386119604260071
2025-03-22 12:01:12.548,-15.831331001835364
2025-03-22 12:01:12.557,-18.22715272475115
2025-03-22 12:01:12.558,-1.4919753881589422
2025-03-22 12:01:12.558,16.405872066413444
2025-03-22 12:01:12.558,16.703905626078434
2025-03-22 12:01:12.567,1.196954947267111
2025-03-22 12:01:12.568,-11.996342100215992
2025-03-22 12:01:12.568,-10.38120074596344
2025-03-22 12:01:12.568,0.7253318932352827
2025-03-22 12:01:12.568,7.4566049706788835
2025-03-22 12:01:12.575,3.774313050891145
2025-03-22 12:01:12.576,-3.918211460127598
2025-03-22 12:01:12.576,-6.028445973971328
2025-03-22 12:01:12.576,-0.3612201397814211
2025-03-22 12:01:12.576,6.593105394784105
2025-03-22 12:01:12.586,7.018017795599415
2025-03-22 12:01:12.586,-0.16250313716034664
2025-03-22 12:01:12.586,-7.832823883936244
2025-03-22 12:01:12.586,-7.62555256662818
2025-03-22 12:01:12.595,0.7204685477200556
2025-03-22 12:01:12.596,7.989595325996054
2025-03-22 12:01:12.596,5.666933071326397
2025-03-22 12:01:12.596,-3.255021105179978
2025-03-22 12:01:12.596,-7.250146740549269
2025-03-22 12:01:12.605,-0.9562539991475063
2025-03-22 12:01:12.605,7.207166248302231
2025-03-22 12:01:12.606,5.630937316825697
2025-03-22 12:01:12.606,-4.820854480097618
2025-03-22 12:01:12.606,-11.002583951864011
2025-03-22 12:01:12.615,-3.971007533293667
2025-03-22 12:01:12.615,9.241801180430334
2025-03-22 12:01:12.616,13.511849020411118
2025-03-22 12:01:12.616,3.375462921860647
2025-03-22 12:01:12.616,-10.632610996597975
2025-03-22 12:01:12.624,-13.902831575165472
2025-03-22 12:01:12.624,-3.6425955477436727
2025-03-22 12:01:12.624,8.949655020568088
2025-03-22 12:01:12.624,11.550339930882682
2025-03-22 12:01:12.633,3.435262012161651
2025-03-22 12:01:12.634,-5.587898025206488
2025-03-22 12:01:12.634,-7.0801350047044656
2025-03-22 12:01:12.634,-2.121956654878759
2025-03-22 12:01:12.634,2.4022808299825043
2025-03-22 12:01:12.643,2.6119971510787634
2025-03-22 12:01:12.644,0.48273382065339965
2025-03-22 12:01:12.644,-0.613865892541495
2025-03-22 12:01:12.644,-0.14064506181982442
2025-03-22 12:01:12.644,0.39177994782562325
2025-03-22 12:01:12.653,0.22841442601036552
2025-03-22 12:01:12.654,-0.10241506091132804
2025-03-22 12:01:12.654,-0.1110746855674193
2025-03-22 12:01:12.654,0.029323643902648338
2025-03-22 12:01:12.654,-0.1657084688684576
2025-03-22 12:01:12.663,-1.0432089670707387
2025-03-22 12:01:12.664,-2.0799017731779545
2025-03-22 12:01:12.664,-1.4239605819934424
2025-03-22 12:01:12.664,2.2630256631191
2025-03-22 12:01:12.664,6.551455411823309
2025-03-22 12:01:12.671,5.832692399914283
2025-03-22 12:01:12.672,-2.1923644496020045
2025-03-22 12:01:12.672,-11.301072448973898
2025-03-22 12:01:12.672,-11.419420598159395
2025-03-22 12:01:12.681,-0.06153920938094071
2025-03-22 12:01:12.681,13.000781906499807
2025-03-22 12:01:12.682,14.994115389503845
2025-03-22 12:01:12.682,3.6905038626343014
2025-03-22 12:01:12.682,-10.218726427374552
2025-03-22 12:01:12.691,-14.397307214821206
2025-03-22 12:01:12.692,-6.745984310701546
2025-03-22 12:01:12.692,4.431086647734106
2025-03-22 12:01:12.692,9.976585967787269
2025-03-22 12:01:12.692,7.635499474415488
2025-03-22 12:01:12.700,1.3707751016577285
2025-03-22 12:01:12.700,-4.007762815434095
2025-03-22 12:01:12.700,-6.081126735707282
2025-03-22 12:01:12.700,-4.49392354169496
2025-03-22 12:01:12.709,-0.33617574246341075
2025-03-22 12:01:12.710,3.515422672975729
2025-03-22 12:01:12.710,3.7632943108745875
2025-03-22 12:01:12.710,0.38286941663398927
2025-03-22 12:01:12.710,-2.254726289865745
2025-03-22 12:01:12.719,-0.3390681175525909
2025-03-22 12:01:12.720,3.7429455532859586
2025-03-22 12:01:12.720,3.5619228559776226
2025-03-22 12:01:12.720,-2.741686838016904
2025-03-22 12:01:12.720,-8.644238398997803
2025-03-22 12:01:12.729,-6.395171213298148
2025-03-22 12:01:12.729,3.1441389990607993
2025-03-22 12:01:12.730,10.553936087219858
2025-03-22 12:01:12.730,8.248287436983674
2025-03-22 12:01:12.730,-1.2087971373758641
2025-03-22 12:01:12.739,-8.439270467695321
2025-03-22 12:01:12.740,-7.519932140783097
2025-03-22 12:01:12.740,-1.0839879039180227
2025-03-22 12:01:12.740,4.1942642218249535
2025-03-22 12:01:12.740,4.790285818626196
2025-03-22 12:01:12.749,2.172222989023526
2025-03-22 12:01:12.749,-0.586078475789296
2025-03-22 12:01:12.750,-1.890489978565404
2025-03-22 12:01:12.750,-1.7033522725177666
2025-03-22 12:01:12.750,-0.6081133511195029
2025-03-22 12:01:12.759,0.36711913709166777
2025-03-22 12:01:12.760,0.21576135602990504
2025-03-22 12:01:12.760,-0.6981146092438689
2025-03-22 12:01:12.760,-0.5591889053898111
2025-03-22 12:01:12.760,1.4343971831111175
2025-03-22 12:01:12.768,3.135947976650022
2025-03-22 12:01:12.768,1.6419355930606125
2025-03-22 12:01:12.768,-2.497582125821129
2025-03-22 12:01:12.768,-4.993920961614976
2025-03-22 12:01:12.768,-2.6674024174877644
2025-03-22 12:01:12.778,2.547646496232427
2025-03-22 12:01:12.778,5.548849593786973
2025-03-22 12:01:12.778,3.4367060064052124
2025-03-22 12:01:12.778,-1.787479197293074
2025-03-22 12:01:12.778,-5.27907450803098
2025-03-22 12:01:12.788,-3.698736308628311
2025-03-22 12:01:12.788,1.4862137280459606
2025-03-22 12:01:12.788,4.750392933095962
2025-03-22 12:01:12.788,2.167222522127073
2025-03-22 12:01:12.788,-3.219011401973037
2025-03-22 12:01:12.798,-4.098145127701641
2025-03-22 12:01:12.798,1.641737253767881
2025-03-22 12:01:12.798,6.906782775267553
2025-03-22 12:01:12.798,3.832499731785891
2025-03-22 12:01:12.798,-5.439978087181623
2025-03-22 12:01:12.808,-10.3387237277403
2025-03-22 12:01:12.808,-4.538245396019564
2025-03-22 12:01:12.808,6.274010949520401
2025-03-22 12:01:12.808,11.033199986091617
2025-03-22 12:01:12.817,5.605051189914316
2025-03-22 12:01:12.818,-3.785897276639904
2025-03-22 12:01:12.818,-8.3961353553058
2025-03-22 12:01:12.818,-5.649456390554025
2025-03-22 12:01:12.818,0.2719485478094085
2025-03-22 12:01:12.827,4.113658468557789
2025-03-22 12:01:12.828,4.077124918741524
2025-03-22 12:01:12.828,1.7075343775611524
2025-03-22 12:01:12.828,-0.6137231302293523
2025-03-22 12:01:12.828,-1.5497811955695473
2025-03-22 12:01:12.837,-1.2818967999825028
2025-03-22 12:01:12.837,-0.8503701463611691
2025-03-22 12:01:12.838,-0.8124162959082023
2025-03-22 12:01:12.838,-0.528195543706865
2025-03-22 12:01:12.838,0.754264496593395
2025-03-22 12:01:12.846,2.2488933594309723
2025-03-22 12:01:12.846,2.05392600731676
2025-03-22 12:01:12.846,-0.31342515242592967
2025-03-22 12:01:12.846,-2.647885505186425
2025-03-22 12:01:12.846,-2.328379916282562
2025-03-22 12:01:12.856,0.37063153920463554
2025-03-22 12:01:12.856,2.3425591186976673
2025-03-22 12:01:12.856,1.393849106453237
2025-03-22 12:01:12.856,-1.0200035050524634
2025-03-22 12:01:12.856,-1.7239203278156054
2025-03-22 12:01:12.866,0.05167222460589885
2025-03-22 12:01:12.866,1.809060364567209
2025-03-22 12:01:12.866,1.1967977082134698
2025-03-22 12:01:12.866,-1.033184247810872
2025-03-22 12:01:12.866,-2.2565081332520074
2025-03-22 12:01:12.876,-1.2244944311850268
2025-03-22 12:01:12.876,0.9355503708488436
2025-03-22 12:01:12.876,2.3429280858190658
2025-03-22 12:01:12.876,1.918951346268947
2025-03-22 12:01:12.876,-0.17044785400530788
2025-03-22 12:01:12.886,-2.411983776742729
2025-03-22 12:01:12.886,-2.6400645734510366
2025-03-22 12:01:12.886,-0.22003477611625055
2025-03-22 12:01:12.886,2.531026396209734
2025-03-22 12:01:12.895,2.519800273808712
2025-03-22 12:01:12.896,-0.2849448287838009
2025-03-22 12:01:12.896,-2.5188679407287045
2025-03-22 12:01:12.896,-1.508758052922066
2025-03-22 12:01:12.896,1.41154547814561
2025-03-22 12:01:12.906,2.615791267571039
2025-03-22 12:01:12.906,0.5907753696936361
2025-03-22 12:01:12.906,-2.4608832573184602
2025-03-22 12:01:12.906,-3.32545110331647
2025-03-22 12:01:12.906,-1.0828937874144533
2025-03-22 12:01:12.915,2.4997133159363405
2025-03-22 12:01:12.916,4.770082415492449
2025-03-22 12:01:12.916,3.7191071687340367
2025-03-22 12:01:12.916,-0.9529090639282132
2025-03-22 12:01:12.916,-6.536028170688795
2025-03-22 12:01:12.925,-7.841481792133573
2025-03-22 12:01:12.925,-1.7995708112487436
2025-03-22 12:01:12.926,7.604004448961559
2025-03-22 12:01:12.926,11.380066185008756
2025-03-22 12:01:12.926,4.715012406506055
2025-03-22 12:01:12.934,-6.802932837117986
2025-03-22 12:01:12.934,-12.21682350944271
2025-03-22 12:01:12.934,-6.5592749882268455
2025-03-22 12:01:12.934,4.218293962504179
2025-03-22 12:01:12.934,9.911505377550084
2025-03-22 12:01:12.944,6.372456733890484
2025-03-22 12:01:12.944,-1.5106449751577222
2025-03-22 12:01:12.944,-6.024231771100679
2025-03-22 12:01:12.944,-4.307572337310648
2025-03-22 12:01:12.954,0.2148866580299862
2025-03-22 12:01:12.954,2.656336426051256
2025-03-22 12:01:12.954,1.6665984972707937
2025-03-22 12:01:12.954,-0.3122824357145553
2025-03-22 12:01:12.954,-0.7090556813343486
2025-03-22 12:01:12.963,0.2814164248291577
2025-03-22 12:01:12.964,0.6587225821843723
2025-03-22 12:01:12.964,-0.3200619170134419
2025-03-22 12:01:12.964,-1.1531623519082765
2025-03-22 12:01:12.964,-0.3936347550260079
2025-03-22 12:01:12.973,1.1094226900938586
2025-03-22 12:01:12.974,1.283822163074315
2025-03-22 12:01:12.974,-0.26039740624419583
2025-03-22 12:01:12.974,-1.6347435702688726
2025-03-22 12:01:12.974,-1.2095977869905588
2025-03-22 12:01:12.983,0.3727162051570362
2025-03-22 12:01:12.984,1.4125330203181594
2025-03-22 12:01:12.984,1.4064128042589055
2025-03-22 12:01:12.984,0.8989328410805895
2025-03-22 12:01:12.984,-0.17927022792505515
2025-03-22 12:01:12.993,-2.1493783498875674
2025-03-22 12:01:12.994,-3.545267875013041
2025-03-22 12:01:12.994,-1.7318942206072967
2025-03-22 12:01:12.994,3.1069622777162555
2025-03-22 12:01:12.994,6.321094726396442
2025-03-22 12:01:13.003,3.5012139403571387
2025-03-22 12:01:13.004,-3.459382070881898
2025-03-22 12:01:13.004,-7.397036345716133
2025-03-22 12:01:13.004,-4.012206265635309
2025-03-22 12:01:13.004,2.782053994660303
2025-03-22 12:01:13.013,5.581625624848905
2025-03-22 12:01:13.014,2.513474597412594
2025-03-22 12:01:13.014,-1.314960196571184
2025-03-22 12:01:13.014,-1.4974300033270662
2025-03-22 12:01:13.014,0.1075704301167329
2025-03-22 12:01:13.023,-0.42342899516425836
2025-03-22 12:01:13.024,-2.348005419041187
2025-03-22 12:01:13.024,-1.642405547807611
2025-03-22 12:01:13.024,1.983171629259779
2025-03-22 12:01:13.024,3.810518174598044
2025-03-22 12:01:13.033,0.8970094712019687
2025-03-22 12:01:13.033,-3.2606176817437476
2025-03-22 12:01:13.034,-3.2143250604249385
2025-03-22 12:01:13.034,1.1215988353539816
2025-03-22 12:01:13.034,4.345842616138421
2025-03-22 12:01:13.042,2.4202858977605377
2025-03-22 12:01:13.042,-2.5642532165619363
2025-03-22 12:01:13.042,-5.1180722129308815
2025-03-22 12:01:13.042,-2.5515612313982476
2025-03-22 12:01:13.042,2.485220079363856
2025-03-22 12:01:13.052,5.146727077761858
2025-03-22 12:01:13.052,3.229183403910936
2025-03-22 12:01:13.052,-1.1668508854449577
2025-03-22 12:01:13.052,-4.127118357972938
2025-03-22 12:01:13.062,-3.5200138679894843
2025-03-22 12:01:13.062,-0.36007987121218216
2025-03-22 12:01:13.062,2.56493111964844
2025-03-22 12:01:13.062,3.0297859304793713
2025-03-22 12:01:13.062,0.946638759992168
2025-03-22 12:01:13.072,-1.628857983463808
2025-03-22 12:01:13.072,-2.1962275242822495
2025-03-22 12:01:13.072,-0.218960474031608
2025-03-22 12:01:13.072,2.040143518114745
2025-03-22 12:01:13.072,1.7483164856681936
2025-03-22 12:01:13.081,-1.0891247425613007
2025-03-22 12:01:13.082,-3.166549415891909
2025-03-22 12:01:13.082,-1.6659001397576239
2025-03-22 12:01:13.082,1.9702365509995785
2025-03-22 12:01:13.082,3.440509823876891
2025-03-22 12:01:13.091,0.9817592377220818
2025-03-22 12:01:13.092,-2.1996856796218927
2025-03-22 12:01:13.092,-2.052831226465434
2025-03-22 12:01:13.092,0.9108726758110126
2025-03-22 12:01:13.092,2.3165793675506934
2025-03-22 12:01:13.102,-0.056814899125783275
2025-03-22 12:01:13.102,-3.136191339840782
2025-03-22 12:01:13.102,-2.6475180803860785
2025-03-22 12:01:13.102,1.164346356880344
2025-03-22 12:01:13.102,3.969388072792212
2025-03-22 12:01:13.111,2.9972955170464046
2025-03-22 12:01:13.111,-0.11231122160708226
2025-03-22 12:01:13.112,-2.4727064647729016
2025-03-22 12:01:13.112,-3.3779911690322386
2025-03-22 12:01:13.112,-3.086628373729103
2025-03-22 12:01:13.121,-0.6617095517566066
2025-03-22 12:01:13.122,3.9727072662084995
2025-03-22 12:01:13.122,7.040787156774168
2025-03-22 12:01:13.122,3.849418963683414
2025-03-22 12:01:13.122,-4.371571609108445
2025-03-22 12:01:13.131,-9.663181502420247
2025-03-22 12:01:13.132,-5.790344643607111
2025-03-22 12:01:13.132,3.8785493076109763
2025-03-22 12:01:13.132,9.526669333151665
2025-03-22 12:01:13.132,5.859971709034446
2025-03-22 12:01:13.140,-2.347165362477514
2025-03-22 12:01:13.140,-6.513313191354448
2025-03-22 12:01:13.140,-4.012533230116451
2025-03-22 12:01:13.140,0.39279318078269027
2025-03-22 12:01:13.141,1.8021767649953284
2025-03-22 12:01:13.151,0.7910226435720842
2025-03-22 12:01:13.151,0.8145730926072963
2025-03-22 12:01:13.152,2.4226420621053504
2025-03-22 12:01:13.152,2.60181204978167
2025-03-22 12:01:13.152,-0.4835195965606206
2025-03-22 12:01:13.160,-4.287546992869741
2025-03-22 12:01:13.160,-4.548785618491107
2025-03-22 12:01:13.160,-0.49004149885960896
2025-03-22 12:01:13.160,3.8285899597065125
2025-03-22 12:01:13.161,3.9107020916910193
2025-03-22 12:01:13.170,0.09793536916699952
2025-03-22 12:01:13.170,-2.727678194909239
2025-03-22 12:01:13.170,-1.165838493823409
2025-03-22 12:01:13.170,2.286381409757961
2025-03-22 12:01:13.171,2.4268450681692864
2025-03-22 12:01:13.180,-1.637916920815067
2025-03-22 12:01:13.180,-4.949002855314281
2025-03-22 12:01:13.180,-2.949013881189968
2025-03-22 12:01:13.180,2.5827085074561587
2025-03-22 12:01:13.189,5.669207902293213
2025-03-22 12:01:13.190,3.3897080927814134
2025-03-22 12:01:13.190,-1.2014860952417152
2025-03-22 12:01:13.190,-3.6308887914504755
2025-03-22 12:01:13.190,-3.1517358551250254
2025-03-22 12:01:13.200,-1.809541339698068
2025-03-22 12:01:13.200,-0.26833500924659504
2025-03-22 12:01:13.200,2.416189760627878
2025-03-22 12:01:13.200,5.109342396520608
2025-03-22 12:01:13.200,4.143884021578296
2025-03-22 12:01:13.209,-1.5490492271392484
2025-03-22 12:01:13.210,-7.064976805341112
2025-03-22 12:01:13.210,-6.236521040900122
2025-03-22 12:01:13.210,0.6789276134166197
2025-03-22 12:01:13.210,6.638020589148191
2025-03-22 12:01:13.219,5.816752320255584
2025-03-22 12:01:13.220,0.007336298701596411
2025-03-22 12:01:13.220,-4.220349892056717
2025-03-22 12:01:13.220,-3.3215573708953063
2025-03-22 12:01:13.220,0.08532450237277145
2025-03-22 12:01:13.229,1.4714529246658556
2025-03-22 12:01:13.229,-0.09182890415096356
2025-03-22 12:01:13.230,-1.5428515348635765
2025-03-22 12:01:13.230,-0.14852743929856677
2025-03-22 12:01:13.230,2.947700721106036
2025-03-22 12:01:13.238,3.932741409055772
2025-03-22 12:01:13.238,0.796243659361613
2025-03-22 12:01:13.238,-3.984469957915054
2025-03-22 12:01:13.238,-5.702361755986533
2025-03-22 12:01:13.239,-2.3640851964431007
2025-03-22 12:01:13.248,3.0502084671168275
2025-03-22 12:01:13.248,5.550423193947084
2025-03-22 12:01:13.248,3.1414070050436687
2025-03-22 12:01:13.248,-1.4213496522387596
2025-03-22 12:01:13.249,-3.7197608840886636
2025-03-22 12:01:13.258,-2.1421833077234074
2025-03-22 12:01:13.258,0.8308093382962601
2025-03-22 12:01:13.258,1.6452237210644198
2025-03-22 12:01:13.258,-0.2811947794500841
2025-03-22 12:01:13.268,-1.9642025518207733
2025-03-22 12:01:13.268,-0.5828430104290654
2025-03-22 12:01:13.268,2.7495769872745903
2025-03-22 12:01:13.268,3.9685748435814334
2025-03-22 12:01:13.268,0.9226853781858838
2025-03-22 12:01:13.278,-3.7795867698454995
2025-03-22 12:01:13.278,-5.455515402641705
2025-03-22 12:01:13.278,-2.3259505097112148
2025-03-22 12:01:13.278,2.839610817523348
2025-03-22 12:01:13.278,5.661838246012096
2025-03-22 12:01:13.287,4.034712787373177
2025-03-22 12:01:13.288,-0.5945560100172469
2025-03-22 12:01:13.288,-4.718449587698212
2025-03-22 12:01:13.288,-5.252212372760567
2025-03-22 12:01:13.288,-1.6481705936711593
2025-03-22 12:01:13.297,3.3474839558724856
2025-03-22 12:01:13.298,5.443722196924497
2025-03-22 12:01:13.298,2.6303036987734165
2025-03-22 12:01:13.298,-2.3896699191965283
2025-03-22 12:01:13.298,-4.567528503249122
2025-03-22 12:01:13.307,-1.9164165376435514
2025-03-22 12:01:13.308,2.224822592985079
2025-03-22 12:01:13.308,3.1342645087804515
2025-03-22 12:01:13.308,0.23271494490916378
2025-03-22 12:01:13.308,-2.5694570465537616
2025-03-22 12:01:13.317,-1.8818604129288703
2025-03-22 12:01:13.318,1.2364640965459115
2025-03-22 12:01:13.318,2.978362055128916
2025-03-22 12:01:13.318,1.4164288975663886
2025-03-22 12:01:13.318,-1.6483782414956705
2025-03-22 12:01:13.328,-3.1344356675394955
2025-03-22 12:01:13.328,-1.8977465906906754
2025-03-22 12:01:13.328,0.7012575126440441
2025-03-22 12:01:13.328,2.5728821031240368
2025-03-22 12:01:13.328,2.6085501472563077
2025-03-22 12:01:13.337,1.0736883962407933
2025-03-22 12:01:13.337,-0.9004072005921023
2025-03-22 12:01:13.338,-2.1329073581677624
2025-03-22 12:01:13.338,-2.1867424092775285
2025-03-22 12:01:13.338,-1.4845764120555145
2025-03-22 12:01:13.347,-0.4256952647276801
2025-03-22 12:01:13.347,1.2513018093239885
2025-03-22 12:01:13.348,3.4254098472080807
2025-03-22 12:01:13.348,4.237087997298547
2025-03-22 12:01:13.348,1.493264928573914
2025-03-22 12:01:13.357,-3.7933857379082103
2025-03-22 12:01:13.358,-6.915322696140408
2025-03-22 12:01:13.358,-4.281239187824217
2025-03-22 12:01:13.358,2.053420434704448
2025-03-22 12:01:13.358,6.400407907194273
2025-03-22 12:01:13.366,5.566253243301228
2025-03-22 12:01:13.366,1.311079091481178
2025-03-22 12:01:13.366,-2.8518293279496354
2025-03-22 12:01:13.366,-5.021802656577043
2025-03-22 12:01:13.366,-4.687069856807383
2025-03-22 12:01:13.376,-1.6083507219840156
2025-03-22 12:01:13.376,3.1646026273905523
2025-03-22 12:01:13.376,6.320694159150512
2025-03-22 12:01:13.376,4.697406481632902
2025-03-22 12:01:13.376,-0.857718862185108
2025-03-22 12:01:13.386,-5.500369775200633
2025-03-22 12:01:13.386,-5.233863929408542
2025-03-22 12:01:13.386,-1.0316053078951033
2025-03-22 12:01:13.386,2.73519320313205
2025-03-22 12:01:13.396,3.335483708604351
2025-03-22 12:01:13.396,1.8740231262043134
2025-03-22 12:01:13.396,0.650249975207754
2025-03-22 12:01:13.396,-0.011108029807450265
2025-03-22 12:01:13.396,-1.3041589394983353
2025-03-22 12:01:13.406,-3.1688693914061834
2025-03-22 12:01:13.406,-3.4642385774384694
2025-03-22 12:01:13.406,-0.5029417823246775
2025-03-22 12:01:13.406,4.0748167683127186
2025-03-22 12:01:13.406,5.932521021163293
2025-03-22 12:01:13.415,2.3947825418107525
2025-03-22 12:01:13.416,-3.8492407031335083
2025-03-22 12:01:13.416,-6.590790233455485
2025-03-22 12:01:13.416,-2.72693780929197
2025-03-22 12:01:13.416,3.647476038415636
2025-03-22 12:01:13.426,5.454809109091216
2025-03-22 12:01:13.426,0.9507835107318917
2025-03-22 12:01:13.426,-4.146294086782425
2025-03-22 12:01:13.426,-3.6952439272638786
2025-03-22 12:01:13.426,1.5382095932420383
2025-03-22 12:01:13.436,5.239512775246043
2025-03-22 12:01:13.436,3.092248148621054
2025-03-22 12:01:13.436,-2.8252599484115795
2025-03-22 12:01:13.436,-6.674107006470428
2025-03-22 12:01:13.436,-4.476305296204542
2025-03-22 12:01:13.445,2.394330197362556
2025-03-22 12:01:13.446,8.012373934833427
2025-03-22 12:01:13.446,6.746267655286506
2025-03-22 12:01:13.446,-1.0701448416834292
2025-03-22 12:01:13.446,-8.393914386059267
2025-03-22 12:01:13.455,-7.980397966586944
2025-03-22 12:01:13.456,-0.10301724000700613
2025-03-22 12:01:13.456,7.372267133050317
2025-03-22 12:01:13.456,7.258072840728537
2025-03-22 12:01:13.456,0.4951630542848236
2025-03-22 12:01:13.465,-5.4926465050185
2025-03-22 12:01:13.466,-5.1532245703925845
2025-03-22 12:01:13.466,-0.1566929989019466
2025-03-22 12:01:13.466,3.6098789802107807
2025-03-22 12:01:13.466,2.871299523226317
2025-03-22 12:01:13.475,-0.3517811825654332
2025-03-22 12:01:13.476,-2.175213570537154
2025-03-22 12:01:13.476,-1.299981279811743
2025-03-22 12:01:13.476,0.522093713879644
2025-03-22 12:01:13.476,1.3107756302553946
2025-03-22 12:01:13.484,0.8287774713833177
2025-03-22 12:01:13.484,-0.1034131072441804
2025-03-22 12:01:13.484,-0.9523487247116021
2025-03-22 12:01:13.484,-1.4477367806686974
2025-03-22 12:01:13.494,-1.0084790214923058
2025-03-22 12:01:13.494,0.6746608640341492
2025-03-22 12:01:13.494,2.5156668392030617
2025-03-22 12:01:13.494,2.5341210005907775
2025-03-22 12:01:13.494,0.08720349203516356
2025-03-22 12:01:13.495,-2.886313365912255
2025-03-22 12:01:13.504,-3.5787832109643474
2025-03-22 12:01:13.504,-1.2719917916346068
2025-03-22 12:01:13.504,1.9001541723981585
2025-03-22 12:01:13.504,3.23945307699106
2025-03-22 12:01:13.504,2.0819413407166807
2025-03-22 12:01:13.514,-0.11051923110588088
2025-03-22 12:01:13.514,-1.679811764866552
2025-03-22 12:01:13.514,-2.046323657417919
2025-03-22 12:01:13.514,-1.3047025897582587
2025-03-22 12:01:13.524,0.26819306522289693
2025-03-22 12:01:13.524,1.7651755941340697
2025-03-22 12:01:13.524,1.7176656345484917
2025-03-22 12:01:13.524,-0.22826620990845367
2025-03-22 12:01:13.524,-2.124657599858316
2025-03-22 12:01:13.533,-1.5396193159716791
2025-03-22 12:01:13.534,1.2613585828909195
2025-03-22 12:01:13.534,3.12479896256202
2025-03-22 12:01:13.534,1.6262819349509925
2025-03-22 12:01:13.534,-1.924256326126094
2025-03-22 12:01:13.544,-3.891093488832003
2025-03-22 12:01:13.544,-2.2863919334463487
2025-03-22 12:01:13.544,1.3654179623823677
2025-03-22 12:01:13.544,3.795407502404101
2025-03-22 12:01:13.544,2.9724512304757638
2025-03-22 12:01:13.554,-0.31782687865857073
2025-03-22 12:01:13.554,-3.1380222445034645
2025-03-22 12:01:13.554,-2.907960333016157
2025-03-22 12:01:13.554,0.030084580952855072
2025-03-22 12:01:13.554,2.544093667164156
2025-03-22 12:01:13.563,2.028928463764041
2025-03-22 12:01:13.564,-0.6640352542646111
2025-03-22 12:01:13.564,-2.2969081514590752
2025-03-22 12:01:13.564,-1.063408013899849
2025-03-22 12:01:13.564,1.4470313343064114
2025-03-22 12:01:13.573,2.2728096628361856
2025-03-22 12:01:13.574,0.5047603200287127
2025-03-22 12:01:13.574,-1.791480695172964
2025-03-22 12:01:13.574,-2.0527845150617203
2025-03-22 12:01:13.574,-0.17178606898375098
2025-03-22 12:01:13.583,1.5698779082043208
2025-03-22 12:01:13.584,1.4327802716847275
2025-03-22 12:01:13.584,0.12045774368457286
2025-03-22 12:01:13.584,-0.7513172179163664
2025-03-22 12:01:13.584,-0.9323707639686276
2025-03-22 12:01:13.593,-1.016761916844772
2025-03-22 12:01:13.594,-0.5845989423659536
2025-03-22 12:01:13.594,1.1233490090320064
2025-03-22 12:01:13.594,2.8667164004074976
2025-03-22 12:01:13.594,2.026973820547369
2025-03-22 12:01:13.602,-1.602253042549866
2025-03-22 12:01:13.602,-4.433133109032186
2025-03-22 12:01:13.602,-2.9983014920950435
2025-03-22 12:01:13.603,1.5755007760014774
2025-03-22 12:01:13.603,4.52736523165012
2025-03-22 12:01:13.612,2.9132493779448065
2025-03-22 12:01:13.612,-1.0867155104934447
2025-03-22 12:01:13.612,-2.976774496057138
2025-03-22 12:01:13.612,-1.3611042119819596
2025-03-22 12:01:13.622,0.7733664848556405
2025-03-22 12:01:13.622,0.4560130981381116
2025-03-22 12:01:13.622,-1.1663773857485882
2025-03-22 12:01:13.622,-0.7842606611507023
2025-03-22 12:01:13.622,1.8285864415092261
2025-03-22 12:01:13.632,3.072551113466015
2025-03-22 12:01:13.632,0.6684814174660474
2025-03-22 12:01:13.632,-2.774093082505571
2025-03-22 12:01:13.632,-3.112890831612695
2025-03-22 12:01:13.632,-0.187035700237704
2025-03-22 12:01:13.642,2.242893485220921
2025-03-22 12:01:13.642,1.6476596205377183
2025-03-22 12:01:13.642,-0.3701732424587099
2025-03-22 12:01:13.642,-0.8928217522086332
2025-03-22 12:01:13.642,0.2712199307653048
2025-03-22 12:01:13.652,0.7508818320693361
2025-03-22 12:01:13.652,-0.7213849058091365
2025-03-22 12:01:13.652,-2.275442682797284
2025-03-22 12:01:13.652,-1.2277088709402049
2025-03-22 12:01:13.652,2.153710285866898
2025-03-22 12:01:13.661,4.314318886450466
2025-03-22 12:01:13.662,2.3029292693560093
2025-03-22 12:01:13.662,-2.5684152365309085
2025-03-22 12:01:13.662,-5.701502098883116
2025-03-22 12:01:13.662,-3.8872590411215864
2025-03-22 12:01:13.671,1.399811576544312
2025-03-22 12:01:13.672,5.469526908168722
2025-03-22 12:01:13.672,4.933965891373269
2025-03-22 12:01:13.672,0.677853579879476
2025-03-22 12:01:13.672,-3.4275585184666064
2025-03-22 12:01:13.682,-4.358763016771912
2025-03-22 12:01:13.682,-2.272151480314683
2025-03-22 12:01:13.682,0.5676165530272435
2025-03-22 12:01:13.682,2.2827288160971846
2025-03-22 12:01:13.682,2.4534369752124174
2025-03-22 12:01:13.691,1.4906893580774023
2025-03-22 12:01:13.692,-0.02591203489114924
2025-03-22 12:01:13.692,-1.338839307715104
2025-03-22 12:01:13.692,-1.656705588807069
2025-03-22 12:01:13.692,-0.8623713088888851
2025-03-22 12:01:13.701,0.14082168433056536
2025-03-22 12:01:13.702,0.2825433888105523
2025-03-22 12:01:13.702,-0.3469717340882763
2025-03-22 12:01:13.702,-0.3887856593087556
2025-03-22 12:01:13.702,1.0968120410989104
2025-03-22 12:01:13.710,2.8996938089508495
2025-03-22 12:01:13.710,2.414960149678639
2025-03-22 12:01:13.710,-1.181221826186995
2025-03-22 12:01:13.710,-4.9866644015192305
2025-03-22 12:01:13.711,-4.840187381446324
2025-03-22 12:01:13.720,-0.08375047853394138
2025-03-22 12:01:13.720,5.129201093220298
2025-03-22 12:01:13.720,6.0146478806834445
2025-03-22 12:01:13.721,2.0223659728659937
2025-03-22 12:01:13.721,-3.137214986885059
2025-03-22 12:01:13.730,-5.536965879756621
2025-03-22 12:01:13.730,-4.041043898344881
2025-03-22 12:01:13.730,-0.03195117771287309
2025-03-22 12:01:13.730,4.015693669513524
2025-03-22 12:01:13.740,5.485869158430926
2025-03-22 12:01:13.740,2.978584073130309
2025-03-22 12:01:13.740,-2.0086541662885864
2025-03-22 12:01:13.740,-5.529156846931531
2025-03-22 12:01:13.740,-4.586521516026477
2025-03-22 12:01:13.750,-0.14341764523609926
2025-03-22 12:01:13.750,3.8581467119273283
2025-03-22 12:01:13.750,4.417623038908299
2025-03-22 12:01:13.750,1.913503377648013
2025-03-22 12:01:13.750,-1.150735443037765
2025-03-22 12:01:13.759,-2.8268013777477603
2025-03-22 12:01:13.760,-2.717798901716512
2025-03-22 12:01:13.760,-1.260009972112946
2025-03-22 12:01:13.760,0.784013846800768
2025-03-22 12:01:13.760,2.268286285330402
2025-03-22 12:01:13.769,2.2241300132366466
2025-03-22 12:01:13.770,0.8425499997106375
2025-03-22 12:01:13.770,-0.7105828984213103
2025-03-22 12:01:13.770,-1.6015650424912038
2025-03-22 12:01:13.770,-1.8219283855071393
2025-03-22 12:01:13.780,-1.35459226908464
2025-03-22 12:01:13.780,0.15139845676227393
2025-03-22 12:01:13.780,2.2983017577860725
2025-03-22 12:01:13.780,3.291853317701354
2025-03-22 12:01:13.780,1.4694708906177159
2025-03-22 12:01:13.789,-2.3536924878605
2025-03-22 12:01:13.790,-4.8084711218550735
2025-03-22 12:01:13.790,-3.058788516564796
2025-03-22 12:01:13.790,1.8814573592534616
2025-03-22 12:01:13.790,5.52612422843979
2025-03-22 12:01:13.799,4.243122436837012
2025-03-22 12:01:13.800,-0.8825899422658592
2025-03-22 12:01:13.800,-4.991189983752576
2025-03-22 12:01:13.800,-4.336267346352631
2025-03-22 12:01:13.800,0.0367116615827342
2025-03-22 12:01:13.808,3.5728687230625455
2025-03-22 12:01:13.808,3.0009223005552865
2025-03-22 12:01:13.808,-0.3669116081426841
2025-03-22 12:01:13.808,-2.344560971125976
2025-03-22 12:01:13.809,-0.783830829862082
2025-03-22 12:01:13.818,1.9404787453659598
2025-03-22 12:01:13.818,1.9610536121009916
2025-03-22 12:01:13.818,-1.1319860161283102
2025-03-22 12:01:13.818,-3.614903123711655
2025-03-22 12:01:13.828,-2.178711117643108
2025-03-22 12:01:13.828,1.920635542087658
2025-03-22 12:01:13.828,4.220816345032816
2025-03-22 12:01:13.828,2.2230879399367036
2025-03-22 12:01:13.828,-1.8115777368289099
2025-03-22 12:01:13.838,-3.559298886259069
2025-03-22 12:01:13.838,-1.4772532663626814
2025-03-22 12:01:13.838,1.7272024303719098
2025-03-22 12:01:13.838,2.3892280453510453
2025-03-22 12:01:13.838,0.016829958181372423
2025-03-22 12:01:13.848,-2.336099378567072
2025-03-22 12:01:13.848,-1.7016522272890358
2025-03-22 12:01:13.848,1.360484086034854
2025-03-22 12:01:13.848,3.384614457373644
2025-03-22 12:01:13.848,1.9123838794612191
2025-03-22 12:01:13.858,-1.7314515441120015
2025-03-22 12:01:13.858,-3.8518746242174267
2025-03-22 12:01:13.858,-2.3778915436969377
2025-03-22 12:01:13.858,0.9676661577311224
2025-03-22 12:01:13.858,2.7454149244695394
2025-03-22 12:01:13.868,1.7464900359070568
2025-03-22 12:01:13.868,0.05644180526992901
2025-03-22 12:01:13.868,-0.09974779522647986
2025-03-22 12:01:13.868,0.5403672315653703
2025-03-22 12:01:13.868,-0.3403231189455592
2025-03-22 12:01:13.878,-2.651699348791081
2025-03-22 12:01:13.878,-3.277865396864077
2025-03-22 12:01:13.878,-0.2568811310635837
2025-03-22 12:01:13.878,3.897546632173701
2025-03-22 12:01:13.878,4.686565009255481
2025-03-22 12:01:13.888,1.0281388036999104
2025-03-22 12:01:13.888,-3.378475483565383
2025-03-22 12:01:13.888,-4.328321303350276
2025-03-22 12:01:13.888,-1.4782418699050186
2025-03-22 12:01:13.888,2.0920256987639374
2025-03-22 12:01:13.897,3.4552417467445022
2025-03-22 12:01:13.898,1.9690429053968383
2025-03-22 12:01:13.898,-1.1142331166096762
2025-03-22 12:01:13.898,-3.551224220945561
2025-03-22 12:01:13.898,-3.0486810163545126
2025-03-22 12:01:13.907,0.754714168996781
2025-03-22 12:01:13.908,4.764519453940383
2025-03-22 12:01:13.908,4.585065581793353
2025-03-22 12:01:13.908,-0.5506941304260772
2025-03-22 12:01:13.908,-5.939764170444654
2025-03-22 12:01:13.917,-5.926118336765937
2025-03-22 12:01:13.918,-0.09735426101912065
2025-03-22 12:01:13.918,6.047239028698634
2025-03-22 12:01:13.918,6.682612922529079
2025-03-22 12:01:13.918,1.2967874854790502
2025-03-22 12:01:13.927,-5.119440445701889
2025-03-22 12:01:13.928,-6.861731145538299
2025-03-22 12:01:13.928,-2.5893693631364583
2025-03-22 12:01:13.928,3.667566937712746
2025-03-22 12:01:13.928,6.343638773983282
2025-03-22 12:01:13.936,3.4570183065071127
2025-03-22 12:01:13.936,-1.9191397426337096
2025-03-22 12:01:13.936,-5.021023250692243
2025-03-22 12:01:13.936,-3.744497960885885
2025-03-22 12:01:13.937,0.18951595886668005
2025-03-22 12:01:13.946,3.36785317285385
2025-03-22 12:01:13.946,3.4785727801370387
2025-03-22 12:01:13.946,0.8261301845602146
2025-03-22 12:01:13.946,-2.063101641191302
2025-03-22 12:01:13.947,-2.656488550062461
2025-03-22 12:01:13.956,-0.8332785020606941
2025-03-22 12:01:13.956,1.142203746066445
2025-03-22 12:01:13.956,1.3582049182643459
2025-03-22 12:01:13.956,0.34858169543792117
2025-03-22 12:01:13.957,-0.13946321453161073
2025-03-22 12:01:13.966,0.23589665467830345
2025-03-22 12:01:13.966,0.1810606983823289
2025-03-22 12:01:13.966,-0.9602260260948668
2025-03-22 12:01:13.966,-1.9058242669705252
2025-03-22 12:01:13.976,-1.0003782059928035
2025-03-22 12:01:13.976,1.4793547240403286
2025-03-22 12:01:13.976,3.2450534321998084
2025-03-22 12:01:13.976,2.2793394846770734
2025-03-22 12:01:13.976,-0.956762038444655
2025-03-22 12:01:13.986,-3.6653753195835073
2025-03-22 12:01:13.986,-3.2730924487485096
2025-03-22 12:01:13.986,-0.08234076906473103
2025-03-22 12:01:13.986,2.8546340628276257
2025-03-22 12:01:13.986,2.8915234930834766
2025-03-22 12:01:13.995,0.580221842437759
2025-03-22 12:01:13.996,-1.2668530819234374
2025-03-22 12:01:13.996,-1.0664684551894126
2025-03-22 12:01:13.996,-0.02581018723337547
2025-03-22 12:01:13.996,-0.006521877254065639
2025-03-22 12:01:14.006,-0.9231568297112461
2025-03-22 12:01:14.006,-1.136777861195026
2025-03-22 12:01:14.006,0.12277205874586432
2025-03-22 12:01:14.006,1.7315503672382528
2025-03-22 12:01:14.006,2.0585100500798275
2025-03-22 12:01:14.016,0.7023484502848301
2025-03-22 12:01:14.016,-1.2577639079705296
2025-03-22 12:01:14.016,-2.2639940530917
2025-03-22 12:01:14.016,-1.4730415443283524
2025-03-22 12:01:14.016,0.5176764695213696
2025-03-22 12:01:14.025,1.942423940277424
2025-03-22 12:01:14.026,1.4067837358847834
2025-03-22 12:01:14.026,-0.4659100495893417
2025-03-22 12:01:14.026,-1.4462448424830912
2025-03-22 12:01:14.026,-0.36685820472366176
2025-03-22 12:01:14.035,1.1340378665093473
2025-03-22 12:01:14.036,0.633477215696144
2025-03-22 12:01:14.036,-1.4675665615323052
2025-03-22 12:01:14.036,-1.9502357938969082
2025-03-22 12:01:14.036,0.8071327831167459
2025-03-22 12:01:14.045,3.81660013508385
2025-03-22 12:01:14.046,2.678867275873635
2025-03-22 12:01:14.046,-2.4813561162336595
2025-03-22 12:01:14.046,-6.172167826289427
2025-03-22 12:01:14.046,-3.6019037138125802
2025-03-22 12:01:14.055,3.3660768898426707
2025-03-22 12:01:14.056,7.702212379425819
2025-03-22 12:01:14.056,4.756707511610571
2025-03-22 12:01:14.056,-2.6846503017203833
2025-03-22 12:01:14.056,-7.467196395024434
2025-03-22 12:01:14.065,-5.5260003346187565
2025-03-22 12:01:14.066,0.5884603334667509
2025-03-22 12:01:14.066,5.208061387377878
2025-03-22 12:01:14.066,5.192684818754399
2025-03-22 12:01:14.066,1.7429650096692058
2025-03-22 12:01:14.074,-2.0030498229761964
2025-03-22 12:01:14.074,-3.772025385321777
2025-03-22 12:01:14.074,-2.975850565702965
2025-03-22 12:01:14.074,-0.37395870915607066
2025-03-22 12:01:14.075,2.2500523948042797
2025-03-22 12:01:14.084,2.8483960160322477
2025-03-22 12:01:14.084,0.8068979889917227
2025-03-22 12:01:14.084,-1.873028385448048
2025-03-22 12:01:14.084,-2.0903825962789853
2025-03-22 12:01:14.085,0.733187430297089
2025-03-22 12:01:14.094,3.1250842662653495
2025-03-22 12:01:14.094,1.2376427002013073
2025-03-22 12:01:14.094,-3.6726582682941733
2025-03-22 12:01:14.094,-5.420427568938691
2025-03-22 12:01:14.104,-0.2913804315431193
2025-03-22 12:01:14.104,6.998369080407867
2025-03-22 12:01:14.104,7.630073532215447
2025-03-22 12:01:14.104,-0.5483473351777592
2025-03-22 12:01:14.104,-9.245127494740819
2025-03-22 12:01:14.114,-8.740831032014528
2025-03-22 12:01:14.114,0.7126028227252192
2025-03-22 12:01:14.114,9.094926186807472
2025-03-22 12:01:14.114,8.145435862681351
2025-03-22 12:01:14.115,0.1160927245700567
2025-03-22 12:01:14.124,-6.160888154428648
2025-03-22 12:01:14.124,-5.75264722943957
2025-03-22 12:01:14.124,-1.5684575239542886
2025-03-22 12:01:14.124,1.3653995400549959
2025-03-22 12:01:14.124,2.1093457293073223
2025-03-22 12:01:14.134,2.689521584812602
2025-03-22 12:01:14.134,3.2260629166964154
2025-03-22 12:01:14.134,1.5105471432118551
2025-03-22 12:01:14.134,-2.5980457713905505
2025-03-22 12:01:14.134,-5.369288664072448
2025-03-22 12:01:14.144,-3.503127761860667
2025-03-22 12:01:14.144,1.3279160279573434
2025-03-22 12:01:14.144,4.261974086209015
2025-03-22 12:01:14.144,3.034791949289676
2025-03-22 12:01:14.144,0.0793481346862076
2025-03-22 12:01:14.154,-1.2725244101756432
2025-03-22 12:01:14.154,-0.8135536757708831
2025-03-22 12:01:14.154,-0.6194353719617731
2025-03-22 12:01:14.154,-1.405932398452004
2025-03-22 12:01:14.154,-1.514601983590259
2025-03-22 12:01:14.164,0.3333511673575999
2025-03-22 12:01:14.164,2.678016063293752
2025-03-22 12:01:14.164,2.781933872100255
2025-03-22 12:01:14.164,0.08451916546751193
2025-03-22 12:01:14.164,-2.820624396211689
2025-03-22 12:01:14.174,-2.98111019733043
2025-03-22 12:01:14.174,-0.3141063663321241
2025-03-22 12:01:14.174,2.403148324359508
2025-03-22 12:01:14.174,2.5637869217881946
2025-03-22 12:01:14.174,0.37134294884389857
2025-03-22 12:01:14.183,-1.6200167778370913
2025-03-22 12:01:14.184,-1.4507809620202228
2025-03-22 12:01:14.184,0.06682557851890167
2025-03-22 12:01:14.184,0.5410567100076418
2025-03-22 12:01:14.184,-0.7012381482870167
2025-03-22 12:01:14.194,-1.4740092733346173
2025-03-22 12:01:14.194,0.3244232570312143
2025-03-22 12:01:14.194,3.3304848138296994
2025-03-22 12:01:14.194,3.7299890771669424
2025-03-22 12:01:14.194,-0.07305543065463652
2025-03-22 12:01:14.203,-4.914057247949129
2025-03-22 12:01:14.204,-5.867534233911348
2025-03-22 12:01:14.204,-1.5331188017320092
2025-03-22 12:01:14.204,4.313776599794193
2025-03-22 12:01:14.204,6.483821157142164
2025-03-22 12:01:14.212,3.425424538893057
2025-03-22 12:01:14.212,-1.732841745415375
2025-03-22 12:01:14.212,-4.781841044904261
2025-03-22 12:01:14.212,-4.231206661501472
2025-03-22 12:01:14.213,-1.4512079605449633
2025-03-22 12:01:14.223,1.6074646389386293
2025-03-22 12:01:14.224,3.5853356136179233
2025-03-22 12:01:14.224,3.4428667636138366
2025-03-22 12:01:14.224,0.977274667112724
2025-03-22 12:01:14.224,-2.105383814845142
2025-03-22 12:01:14.233,-3.2017368852771884
2025-03-22 12:01:14.234,-1.6348119068275255
2025-03-22 12:01:14.234,0.565908374139137
2025-03-22 12:01:14.234,1.3201541113631712
2025-03-22 12:01:14.234,0.8658021221179562
2025-03-22 12:01:14.243,0.6184608329903394
2025-03-22 12:01:14.243,0.6933138903196441
2025-03-22 12:01:14.244,0.01298557780002875
2025-03-22 12:01:14.244,-1.4367025571254541
2025-03-22 12:01:14.244,-1.9927399452980301
2025-03-22 12:01:14.254,-0.4702077175706194
2025-03-22 12:01:14.254,1.9749061925536884
2025-03-22 12:01:14.254,2.8664770100565233
2025-03-22 12:01:14.254,1.0420558409985516
2025-03-22 12:01:14.254,-2.0909747962339167
2025-03-22 12:01:14.264,-3.7768954983898375
2025-03-22 12:01:14.264,-2.297528068789622
2025-03-22 12:01:14.264,1.4603959279294993
2025-03-22 12:01:14.264,4.493136846398501
2025-03-22 12:01:14.264,4.032088385988543
2025-03-22 12:01:14.272,0.014185920402558005
2025-03-22 12:01:14.272,-4.508089239414199
2025-03-22 12:01:14.272,-5.650788327011313
2025-03-22 12:01:14.273,-1.9778078591449748
2025-03-22 12:01:14.273,3.900555390944481
2025-03-22 12:01:14.282,6.974050414104686
2025-03-22 12:01:14.282,3.949695317460807
2025-03-22 12:01:14.282,-3.239667334437634
2025-03-22 12:01:14.282,-8.183039252692216
2025-03-22 12:01:14.292,-5.629665360461933
2025-03-22 12:01:14.292,2.733089500083806
2025-03-22 12:01:14.292,8.976663054616937
2025-03-22 12:01:14.292,6.714240387890267
2025-03-22 12:01:14.292,-1.9568318027800065
2025-03-22 12:01:14.302,-8.446740412537068
2025-03-22 12:01:14.302,-6.728812995919389
2025-03-22 12:01:14.302,0.6925114696288697
2025-03-22 12:01:14.302,6.217898900931342
2025-03-22 12:01:14.302,5.360575827814534
2025-03-22 12:01:14.303,0.46751467256543133
2025-03-22 12:01:14.312,-3.115341012643901
2025-03-22 12:01:14.312,-2.9753568312702985
2025-03-22 12:01:14.312,-0.9938310476100846
2025-03-22 12:01:14.312,0.24117505020106678
2025-03-22 12:01:14.322,0.5997837262225436
2025-03-22 12:01:14.322,1.3000708073055416
2025-03-22 12:01:14.322,1.997727304289365
2025-03-22 12:01:14.322,0.9341238133898561
2025-03-22 12:01:14.322,-1.9081014840312387
2025-03-22 12:01:14.332,-3.6412546764354046
2025-03-22 12:01:14.332,-1.733124881852531
2025-03-22 12:01:14.332,2.399038797328043
2025-03-22 12:01:14.332,4.504560056610391
2025-03-22 12:01:14.332,2.276625759895841
2025-03-22 12:01:14.342,-2.0170482845987423
2025-03-22 12:01:14.342,-4.127277605743957
2025-03-22 12:01:14.342,-2.404326703312139
2025-03-22 12:01:14.342,0.862019530632687
2025-03-22 12:01:14.342,2.4147975213449295
2025-03-22 12:01:14.352,1.5291798527844283
2025-03-22 12:01:14.352,0.14633521207851644
2025-03-22 12:01:14.352,-0.035605615419091304
2025-03-22 12:01:14.352,0.33203719018115807
2025-03-22 12:01:14.352,-0.3980788510963491
2025-03-22 12:01:14.362,-1.9985822270432796
2025-03-22 12:01:14.362,-2.1943988270796444
2025-03-22 12:01:14.362,0.15884237058676426
2025-03-22 12:01:14.362,2.915666843650345
2025-03-22 12:01:14.362,2.9432151680733085
2025-03-22 12:01:14.372,0.08443500871755286
2025-03-22 12:01:14.372,-2.591357942933577
2025-03-22 12:01:14.372,-2.5113101007859626
2025-03-22 12:01:14.372,-0.27884571582996176
2025-03-22 12:01:14.372,1.662632730206793
2025-03-22 12:01:14.382,1.8361958026338638
2025-03-22 12:01:14.382,0.589667790627511
2025-03-22 12:01:14.382,-0.8814847677431038
2025-03-22 12:01:14.382,-1.5130402298509085
2025-03-22 12:01:14.382,-0.9039257879978986
2025-03-22 12:01:14.392,0.3554312039239193
2025-03-22 12:01:14.392,1.093220495256349
2025-03-22 12:01:14.392,0.7856377339813045
2025-03-22 12:01:14.392,0.15008676722622394
2025-03-22 12:01:14.392,0.073041032898845
2025-03-22 12:01:14.402,0.24010602108818546
2025-03-22 12:01:14.402,-0.42905846177594
2025-03-22 12:01:14.402,-1.8743301955475928
2025-03-22 12:01:14.402,-2.249198953005946
2025-03-22 12:01:14.402,-0.03043652973958963
2025-03-22 12:01:14.412,3.4078181910474097
2025-03-22 12:01:14.412,4.44037302598928
2025-03-22 12:01:14.412,1.1648409350481408
2025-03-22 12:01:14.412,-3.7875165919900495
2025-03-22 12:01:14.412,-5.494276200915009
2025-03-22 12:01:14.422,-2.0497088514822734
2025-03-22 12:01:14.422,3.1164518306812417
2025-03-22 12:01:14.422,4.829324404490476
2025-03-22 12:01:14.422,1.7481361192804146
2025-03-22 12:01:14.422,-2.3650925162555847
2025-03-22 12:01:14.431,-3.0622966229166626
2025-03-22 12:01:14.432,-0.1920229569579714
2025-03-22 12:01:14.432,2.253374174901492
2025-03-22 12:01:14.432,1.1312025594502733
2025-03-22 12:01:14.432,-1.991685912929957
2025-03-22 12:01:14.441,-2.7853571760194766
2025-03-22 12:01:14.442,0.36892474485180415
2025-03-22 12:01:14.442,4.065496768990357
2025-03-22 12:01:14.442,3.7239361552801493
2025-03-22 12:01:14.442,-0.9248720133780473
2025-03-22 12:01:14.451,-5.283055884705232
2025-03-22 12:01:14.452,-4.847339241976048
2025-03-22 12:01:14.452,0.09721734488424305
2025-03-22 12:01:14.452,4.998200199480769
2025-03-22 12:01:14.452,5.612421227273324
2025-03-22 12:01:14.462,1.7151486182094076
2025-03-22 12:01:14.462,-3.1811842814299394
2025-03-22 12:01:14.462,-5.164063784975618
2025-03-22 12:01:14.462,-3.1305489474971884
2025-03-22 12:01:14.462,0.7129357411915407
2025-03-22 12:01:14.471,3.1857436831631794
2025-03-22 12:01:14.472,2.942706178207084
2025-03-22 12:01:14.472,1.102814549782682
2025-03-22 12:01:14.472,-0.5162429417842764
2025-03-22 12:01:14.472,-1.2303230436590624
2025-03-22 12:01:14.480,-1.4463685926461127
2025-03-22 12:01:14.480,-1.4237551283156307
2025-03-22 12:01:14.480,-0.819585873416214
2025-03-22 12:01:14.481,0.5042532593103624
2025-03-22 12:01:14.481,1.813248209360569
2025-03-22 12:01:14.490,2.0319841125399543
2025-03-22 12:01:14.490,0.8120430437469912
2025-03-22 12:01:14.490,-1.071523144036069
2025-03-22 12:01:14.490,-2.229330286470491
2025-03-22 12:01:14.500,-1.6110254115133398
2025-03-22 12:01:14.500,0.5022653944722902
2025-03-22 12:01:14.500,2.226105488966959
2025-03-22 12:01:14.500,1.5429894851149852
2025-03-22 12:01:14.500,-1.2024235952252977
2025-03-22 12:01:14.510,-2.875428613119074
2025-03-22 12:01:14.510,-0.9004362535822228
2025-03-22 12:01:14.510,3.0166768338520638
2025-03-22 12:01:14.510,4.112623198288115
2025-03-22 12:01:14.510,0.34806896722165365
2025-03-22 12:01:14.520,-4.427467168343121
2025-03-22 12:01:14.520,-4.77035669556188
2025-03-22 12:01:14.520,-0.365467135723689
2025-03-22 12:01:14.520,3.723006343712621
2025-03-22 12:01:14.521,3.5834006210966862
2025-03-22 12:01:14.529,0.8008734404518871
2025-03-22 12:01:14.530,-0.8237765492099012
2025-03-22 12:01:14.530,-0.6524774668652746
2025-03-22 12:01:14.530,-0.9687292726840948
2025-03-22 12:01:14.530,-2.4059389024633235
2025-03-22 12:01:14.540,-2.492781118235852
2025-03-22 12:01:14.540,0.48108409891556847
2025-03-22 12:01:14.540,4.126567882781336
2025-03-22 12:01:14.540,4.260840063962197
2025-03-22 12:01:14.540,0.14275154187313682
2025-03-22 12:01:14.550,-4.113202190872954
2025-03-22 12:01:14.550,-4.017340572769692
2025-03-22 12:01:14.550,0.0755175200067128
2025-03-22 12:01:14.550,3.2823219454441253
2025-03-22 12:01:14.550,1.977765179716557
2025-03-22 12:01:14.560,-1.7189758509975486
2025-03-22 12:01:14.560,-2.511618256920036
2025-03-22 12:01:14.560,1.146532960385311
2025-03-22 12:01:14.560,4.491066289494287
2025-03-22 12:01:14.560,2.2070886323712915
2025-03-22 12:01:14.570,-4.2367844523659555
2025-03-22 12:01:14.570,-7.349956287231922
2025-03-22 12:01:14.570,-2.4426989555783356
2025-03-22 12:01:14.570,6.070069087449422
2025-03-22 12:01:14.570,9.051551278726802
2025-03-22 12:01:14.580,2.979811955307755
2025-03-22 12:01:14.580,-5.925625260406988
2025-03-22 12:01:14.580,-8.664120169660489
2025-03-22 12:01:14.580,-3.2437631486297214
2025-03-22 12:01:14.580,3.983080544812191
2025-03-22 12:01:14.590,6.158024893791727
2025-03-22 12:01:14.590,2.8951606039573097
2025-03-22 12:01:14.590,-1.2238265196670906
2025-03-22 12:01:14.590,-2.8682568310015695
2025-03-22 12:01:14.590,-2.4110427129995373
2025-03-22 12:01:14.600,-1.1998934526247391
2025-03-22 12:01:14.600,0.5954116620209472
2025-03-22 12:01:14.600,2.5578769915608204
2025-03-22 12:01:14.600,2.7695869041564674
2025-03-22 12:01:14.600,0.05959736822062654
2025-03-22 12:01:14.610,-3.3569083965316566
2025-03-22 12:01:14.610,-3.6255009419005235
2025-03-22 12:01:14.610,0.0496033050432369
2025-03-22 12:01:14.610,3.964374298719414
2025-03-22 12:01:14.610,3.9654250340017856
2025-03-22 12:01:14.620,0.08412265171147873
2025-03-22 12:01:14.620,-3.6902172875265387
2025-03-22 12:01:14.620,-3.7959972345885795
2025-03-22 12:01:14.620,-0.5056645625252177
2025-03-22 12:01:14.620,2.823642270856518
2025-03-22 12:01:14.628,3.1852434499018853
2025-03-22 12:01:14.628,0.5705039151286733
2025-03-22 12:01:14.628,-2.2671117569036165
2025-03-22 12:01:14.629,-2.517200321196306
2025-03-22 12:01:14.629,-0.06706495679096877
2025-03-22 12:01:14.638,2.4098314989490226
2025-03-22 12:01:14.638,2.303597795747244
2025-03-22 12:01:14.638,-0.20578939424490178
2025-03-22 12:01:14.639,-2.5791928540531863
2025-03-22 12:01:14.648,-2.698372688737972
2025-03-22 12:01:14.648,-0.6572337352535997
2025-03-22 12:01:14.648,1.8537874017474583
2025-03-22 12:01:14.648,3.097716097770622
2025-03-22 12:01:14.648,2.286319450443648
2025-03-22 12:01:14.658,-0.07903381166445939
2025-03-22 12:01:14.658,-2.4601936800869066
2025-03-22 12:01:14.658,-3.275434412756632
2025-03-22 12:01:14.658,-2.022983248131626
2025-03-22 12:01:14.658,0.47386625364061485
2025-03-22 12:01:14.668,2.7298560748586844
2025-03-22 12:01:14.668,3.394280093196851
2025-03-22 12:01:14.668,1.8818556785556155
2025-03-22 12:01:14.668,-1.0683779381849612
2025-03-22 12:01:14.668,-3.4467492535586755
2025-03-22 12:01:14.678,-3.313074144337455
2025-03-22 12:01:14.678,-0.6160748661125977
2025-03-22 12:01:14.678,2.4849974437538034
2025-03-22 12:01:14.678,3.4577059625324527
2025-03-22 12:01:14.678,1.6362373633488392
2025-03-22 12:01:14.688,-1.2944955920839374
2025-03-22 12:01:14.688,-2.8457176191519284
2025-03-22 12:01:14.688,-1.847658672829839
2025-03-22 12:01:14.688,0.550224134429585
2025-03-22 12:01:14.688,1.928506617045093
2025-03-22 12:01:14.698,1.0633455759079624
2025-03-22 12:01:14.698,-0.622631794251675
2025-03-22 12:01:14.698,-0.7149120072134886
2025-03-22 12:01:14.698,0.9249286096361804
2025-03-22 12:01:14.698,1.5883197674656573
2025-03-22 12:01:14.708,-0.6747966055336346
2025-03-22 12:01:14.708,-3.7069469608281698
2025-03-22 12:01:14.708,-3.2232014814839647
2025-03-22 12:01:14.708,1.5858393686597696
2025-03-22 12:01:14.708,6.039292853174804
2025-03-22 12:01:14.717,4.88598089549557
2025-03-22 12:01:14.718,-1.370689693521483
2025-03-22 12:01:14.718,-6.553493913587117
2025-03-22 12:01:14.718,-5.503759140278035
2025-03-22 12:01:14.718,0.37300372394598796
2025-03-22 12:01:14.728,4.967580356387575
2025-03-22 12:01:14.728,4.24714416537479
2025-03-22 12:01:14.728,0.1315339980859025
2025-03-22 12:01:14.728,-2.484724268226494
2025-03-22 12:01:14.728,-1.5156191011554372
2025-03-22 12:01:14.736,0.5868005320202779
2025-03-22 12:01:14.736,0.6625230353361926
2025-03-22 12:01:14.736,-1.0732406493286355
2025-03-22 12:01:14.737,-1.7954364317857745
2025-03-22 12:01:14.737,-0.1297102200265478
2025-03-22 12:01:14.746,2.0925700997642744
2025-03-22 12:01:14.746,2.339163629964747
2025-03-22 12:01:14.746,0.43794068003333037
2025-03-22 12:01:14.747,-1.5570979668206324
2025-03-22 12:01:14.747,-1.89441887242645
2025-03-22 12:01:14.758,-0.7413536842969061
2025-03-22 12:01:14.758,0.5082911271633216
2025-03-22 12:01:14.758,0.8683925407690963
2025-03-22 12:01:14.758,0.5215526171412302
2025-03-22 12:01:14.758,0.23160926679824495
2025-03-22 12:01:14.766,0.27232359863875627
2025-03-22 12:01:14.766,0.14060280643624418
2025-03-22 12:01:14.766,-0.5587085201806735
2025-03-22 12:01:14.767,-1.2272255517932646
2025-03-22 12:01:14.767,-0.8244132788737115
2025-03-22 12:01:14.776,0.6223217934629279
2025-03-22 12:01:14.776,1.6850660135963391
2025-03-22 12:01:14.776,1.1564006799254392
2025-03-22 12:01:14.777,-0.40133652690606253
2025-03-22 12:01:14.777,-1.318760644748792
2025-03-22 12:01:14.786,-0.8690893342062161
2025-03-22 12:01:14.786,0.0022368672624617086
2025-03-22 12:01:14.786,0.1460046945253446
2025-03-22 12:01:14.786,-0.2054758579521134
2025-03-22 12:01:14.796,0.09003720445005768
2025-03-22 12:01:14.796,1.2150461675349924
2025-03-22 12:01:14.796,1.7678839125097066
2025-03-22 12:01:14.796,0.47487602196491113
2025-03-22 12:01:14.797,-1.855612561154885
2025-03-22 12:01:14.806,-2.8498749845996194
2025-03-22 12:01:14.806,-1.2634471650743841
2025-03-22 12:01:14.806,1.3771764433558962
2025-03-22 12:01:14.806,2.412869206996615
2025-03-22 12:01:14.806,1.176016145893491
2025-03-22 12:01:14.816,-0.3266682840744731
2025-03-22 12:01:14.816,-0.248200107266751
2025-03-22 12:01:14.816,0.45137603869606835
2025-03-22 12:01:14.816,-0.49383893368337867
2025-03-22 12:01:14.816,-2.7221302241760257
2025-03-22 12:01:14.826,-2.829128644533784
2025-03-22 12:01:14.826,0.9062829414957115
2025-03-22 12:01:14.826,4.997342515908187
2025-03-22 12:01:14.826,4.318466957757681
2025-03-22 12:01:14.826,-1.129817414350545
2025-03-22 12:01:14.836,-5.512546149099324
2025-03-22 12:01:14.836,-4.065218895033629
2025-03-22 12:01:14.836,1.2145748264950942
2025-03-22 12:01:14.836,4.325208155398291
2025-03-22 12:01:14.836,2.528613504320805
2025-03-22 12:01:14.846,-1.1243823830202413
2025-03-22 12:01:14.846,-2.3402076490307633
2025-03-22 12:01:14.846,-0.6582874519000242
2025-03-22 12:01:14.846,0.9715289969375246
2025-03-22 12:01:14.846,0.48501151607364756
2025-03-22 12:01:14.856,-0.9686341833542502
2025-03-22 12:01:14.856,-1.0203398880304673
2025-03-22 12:01:14.856,0.7207683525839268
2025-03-22 12:01:14.856,2.212563573339115
2025-03-22 12:01:14.856,1.4981179255867372
2025-03-22 12:01:14.866,-0.9576788499576598
2025-03-22 12:01:14.866,-2.7687110260355703
2025-03-22 12:01:14.866,-2.2214156100625218
2025-03-22 12:01:14.866,0.06753353309141306
2025-03-22 12:01:14.866,2.0802911095523045
2025-03-22 12:01:14.875,2.4717236621815997
2025-03-22 12:01:14.876,1.419473431142022
2025-03-22 12:01:14.876,-0.1682127139658575
2025-03-22 12:01:14.876,-1.600123832214093
2025-03-22 12:01:14.876,-2.412361722411701
2025-03-22 12:01:14.885,-2.0224081194444565
2025-03-22 12:01:14.886,-0.1285618007837976
2025-03-22 12:01:14.886,2.3695024599078813
2025-03-22 12:01:14.886,3.447330974555275
2025-03-22 12:01:14.886,1.7170566665222164
2025-03-22 12:01:14.894,-1.7378414470330086
2025-03-22 12:01:14.894,-3.841538391913475
2025-03-22 12:01:14.894,-2.4419281961427575
2025-03-22 12:01:14.894,1.230073812279653
2025-03-22 12:01:14.895,3.526202980877044
2025-03-22 12:01:14.904,2.1841807598980623
2025-03-22 12:01:14.904,-1.1268589144962948
2025-03-22 12:01:14.904,-2.6799562089296796
2025-03-22 12:01:14.905,-1.0607309900987134
2025-03-22 12:01:14.914,1.2611953283934612
2025-03-22 12:01:14.914,1.2645478108061279
2025-03-22 12:01:14.914,-0.661060511023959
2025-03-22 12:01:14.914,-1.4202377172991494
2025-03-22 12:01:14.914,0.3868262350897115
2025-03-22 12:01:14.924,2.42169900426207
2025-03-22 12:01:14.924,1.6908193656407857
2025-03-22 12:01:14.924,-1.4444942884119552
2025-03-22 12:01:14.924,-3.5485842689722324
2025-03-22 12:01:14.924,-2.156152012053603
2025-03-22 12:01:14.934,1.4224159502374045
2025-03-22 12:01:14.934,3.610787180913433
2025-03-22 12:01:14.934,2.4081388982723295
2025-03-22 12:01:14.934,-0.7019832338174794
2025-03-22 12:01:14.935,-2.634415204422233
2025-03-22 12:01:14.944,-2.0216931318575275
2025-03-22 12:01:14.944,-0.17056767972323666
2025-03-22 12:01:14.944,1.055125807722203
2025-03-22 12:01:14.944,1.2901810245959278
2025-03-22 12:01:14.945,1.1287234665252284
2025-03-22 12:01:14.954,0.5543500497021842
2025-03-22 12:01:14.954,-0.8044761158039923
2025-03-22 12:01:14.954,-2.1661001335224968
2025-03-22 12:01:14.954,-1.8235412076554562
2025-03-22 12:01:14.955,0.5765846135295745
2025-03-22 12:01:14.964,2.9209589441849575
2025-03-22 12:01:14.964,2.6697218030653174
2025-03-22 12:01:14.964,-0.2107919136340563
2025-03-22 12:01:14.964,-2.981972035276352
2025-03-22 12:01:14.964,-2.9460350606764236
2025-03-22 12:01:14.974,-0.2628270083075088
2025-03-22 12:01:14.974,2.2758640552919576
2025-03-22 12:01:14.974,2.280892205352235
2025-03-22 12:01:14.974,0.2824462323975229
2025-03-22 12:01:14.974,-1.1387065225217186
2025-03-22 12:01:14.984,-0.5881221223147459
2025-03-22 12:01:14.984,0.5294197500439317
2025-03-22 12:01:14.984,0.11042683456534444
2025-03-22 12:01:14.984,-1.549139434097435
2025-03-22 12:01:14.984,-1.8763190244975878
2025-03-22 12:01:14.994,0.5040058428001879
2025-03-22 12:01:14.994,3.377419589139062
2025-03-22 12:01:14.994,3.0957423123879613
2025-03-22 12:01:14.994,-0.8793165302262438
2025-03-22 12:01:14.994,-4.621869877041188
2025-03-22 12:01:15.004,-3.8015735436250107
2025-03-22 12:01:15.004,1.205137447731336
2025-03-22 12:01:15.004,5.306635527992668
2025-03-22 12:01:15.004,4.160055472953287
2025-03-22 12:01:15.004,-1.1150109754899744
2025-03-22 12:01:15.014,-5.293629602098733
2025-03-22 12:01:15.014,-4.562952760411518
2025-03-22 12:01:15.014,0.06175097167984028
2025-03-22 12:01:15.014,4.380220249964392
2025-03-22 12:01:15.014,5.006269825336236
2025-03-22 12:01:15.022,1.777687421544846
2025-03-22 12:01:15.022,-2.6366724639389663
2025-03-22 12:01:15.022,-4.889583324457233
2025-03-22 12:01:15.023,-3.3795836669083776
2025-03-22 12:01:15.023,0.551611693582287
2025-03-22 12:01:15.032,3.70223947361577
2025-03-22 12:01:15.032,3.7145205435429745
2025-03-22 12:01:15.032,1.0238281033347134
2025-03-22 12:01:15.033,-1.8008396958277921
2025-03-22 12:01:15.033,-2.5883508625448637
2025-03-22 12:01:15.044,-1.3647566074825814
2025-03-22 12:01:15.044,0.22041083763413818
2025-03-22 12:01:15.044,0.8428907697346917
2025-03-22 12:01:15.044,0.5799465965508566
2025-03-22 12:01:15.044,0.25205124571374576
2025-03-22 12:01:15.054,0.24467462110261157
2025-03-22 12:01:15.054,0.29851693840951393
2025-03-22 12:01:15.054,0.18992700421779185
2025-03-22 12:01:15.054,0.0475761738822206
2025-03-22 12:01:15.054,-0.12936483312470506
2025-03-22 12:01:15.064,-0.6673612883953072
2025-03-22 12:01:15.064,-1.4182823808410534
2025-03-22 12:01:15.064,-1.2566751802380791
2025-03-22 12:01:15.064,0.6218679422397364
2025-03-22 12:01:15.064,2.88252926243923
2025-03-22 12:01:15.072,2.780028828604121
2025-03-22 12:01:15.072,-0.4118389498589149
2025-03-22 12:01:15.073,-3.569193198432709
2025-03-22 12:01:15.073,-2.9127579268197596
2025-03-22 12:01:15.073,0.9816133050194848
2025-03-22 12:01:15.082,3.263903029164373
2025-03-22 12:01:15.082,0.9657400654956849
2025-03-22 12:01:15.082,-2.6585929660455525
2025-03-22 12:01:15.083,-2.234447143860569
2025-03-22 12:01:15.083,2.1039692436756914
2025-03-22 12:01:15.092,4.358653893179519
2025-03-22 12:01:15.092,0.8133060043832325
2025-03-22 12:01:15.092,-4.435447231583168
2025-03-22 12:01:15.093,-4.60824637684865
2025-03-22 12:01:15.093,0.7398851887933325
2025-03-22 12:01:15.102,5.072830825431232
2025-03-22 12:01:15.102,3.2855671704824743
2025-03-22 12:01:15.102,-2.132994553851333
2025-03-22 12:01:15.103,-4.69728982426381
2025-03-22 12:01:15.112,-1.8132782281110396
2025-03-22 12:01:15.112,2.867475197177106
2025-03-22 12:01:15.112,4.3067730799031825
2025-03-22 12:01:15.113,1.469039431493517
2025-03-22 12:01:15.113,-2.4295599865253523
2025-03-22 12:01:15.122,-3.796078904520735
2025-03-22 12:01:15.122,-1.9471798853275906
2025-03-22 12:01:15.122,0.9965381670219038
2025-03-22 12:01:15.123,2.583981670848894
2025-03-22 12:01:15.123,2.0781145662893445
2025-03-22 12:01:15.123,0.44382916088826657
2025-03-22 12:01:15.132,-1.0006920117096911
2025-03-22 12:01:15.132,-1.545227087886504
2025-03-22 12:01:15.132,-1.0869957575641158
2025-03-22 12:01:15.132,0.042899057748819795
2025-03-22 12:01:15.142,1.0368187305847254
2025-03-22 12:01:15.142,1.0179166200316079
2025-03-22 12:01:15.142,-0.0014317557019232346
2025-03-22 12:01:15.142,-0.9068830580579393
2025-03-22 12:01:15.143,-0.7341018385992717
2025-03-22 12:01:15.153,0.13240108916375587
2025-03-22 12:01:15.154,0.5928636120993439
2025-03-22 12:01:15.154,0.4145351627947868
2025-03-22 12:01:15.154,0.32010893401344076
2025-03-22 12:01:15.154,0.47849629801233345
2025-03-22 12:01:15.154,0.018927237728468233
2025-03-22 12:01:15.162,-1.3240666974584068
2025-03-22 12:01:15.162,-2.0218739477272782
2025-03-22 12:01:15.162,-0.4619933242841892
2025-03-22 12:01:15.163,2.361473166151775
2025-03-22 12:01:15.163,3.2519571366204234
2025-03-22 12:01:15.172,0.5965244846486646
2025-03-22 12:01:15.172,-3.1024440427140774
2025-03-22 12:01:15.172,-3.6731159974015433
2025-03-22 12:01:15.173,-0.22401491520073452
2025-03-22 12:01:15.182,3.4868045255151494
2025-03-22 12:01:15.182,3.300500899681344
2025-03-22 12:01:15.182,-0.4385137604663132
2025-03-22 12:01:15.182,-3.344168296544162
2025-03-22 12:01:15.182,-2.301928514494612
2025-03-22 12:01:15.192,0.9345064219929862
2025-03-22 12:01:15.192,2.275848277301843
2025-03-22 12:01:15.192,0.591387376406363
2025-03-22 12:01:15.192,-1.1186993374404015
2025-03-22 12:01:15.193,-0.143740012043055
2025-03-22 12:01:15.202,1.9401854866312884
2025-03-22 12:01:15.202,1.337487907280089
2025-03-22 12:01:15.202,-2.3565888131082864
2025-03-22 12:01:15.202,-4.741956862975767
2025-03-22 12:01:15.203,-1.9409041151833555
2025-03-22 12:01:15.212,3.941178337050004
2025-03-22 12:01:15.212,6.581425432799492
2025-03-22 12:01:15.212,2.719645815275736
2025-03-22 12:01:15.212,-3.8754363965969
2025-03-22 12:01:15.212,-6.551698014060819
2025-03-22 12:01:15.222,-3.0097358501222833
2025-03-22 12:01:15.222,2.689283850246309
2025-03-22 12:01:15.222,5.004122959387953
2025-03-22 12:01:15.222,2.544096482915641
2025-03-22 12:01:15.222,-1.4804408917587977
2025-03-22 12:01:15.232,-3.2633760827050518
2025-03-22 12:01:15.232,-1.8551068577590815
2025-03-22 12:01:15.232,0.8255683070765301
2025-03-22 12:01:15.232,2.2537138130793655
2025-03-22 12:01:15.232,1.4563549948729178
2025-03-22 12:01:15.240,-0.4115698636146081
2025-03-22 12:01:15.240,-1.4617447995457107
2025-03-22 12:01:15.240,-1.1521355249634748
2025-03-22 12:01:15.241,-0.5445980169375696
2025-03-22 12:01:15.241,-0.31032283317369225
2025-03-22 12:01:15.251,0.41493935217983113
2025-03-22 12:01:15.252,2.1608394317733968
2025-03-22 12:01:15.252,3.1225816280940704
2025-03-22 12:01:15.252,0.9743510506715006
2025-03-22 12:01:15.252,-3.3088389811478804
2025-03-22 12:01:15.262,-5.426480039482692
2025-03-22 12:01:15.262,-2.594051583136447
2025-03-22 12:01:15.262,2.796089267236257
2025-03-22 12:01:15.262,5.632127717572997
2025-03-22 12:01:15.262,3.6133580318061895
2025-03-22 12:01:15.270,-0.8226367361910265
2025-03-22 12:01:15.270,-3.7194880428710935
2025-03-22 12:01:15.270,-3.442894650787471
2025-03-22 12:01:15.271,-1.1980414978974188
2025-03-22 12:01:15.280,1.0105455891600073
2025-03-22 12:01:15.280,2.079088538456246
2025-03-22 12:01:15.280,1.9749718774250666
2025-03-22 12:01:15.281,1.1358031943781486
2025-03-22 12:01:15.281,-0.01748016066474802
2025-03-22 12:01:15.290,-1.1975329489211772
2025-03-22 12:01:15.290,-2.0546655754441576
2025-03-22 12:01:15.290,-1.9894307785644154
2025-03-22 12:01:15.290,-0.5267205903668857
2025-03-22 12:01:15.290,1.7886096715569781
2025-03-22 12:01:15.300,3.17444540849148
2025-03-22 12:01:15.300,2.075455044220411
2025-03-22 12:01:15.300,-0.8812077332746511
2025-03-22 12:01:15.300,-3.0280076465189922
2025-03-22 12:01:15.300,-2.364229728954905
2025-03-22 12:01:15.310,0.1777568478722012
2025-03-22 12:01:15.310,1.8128986202090998
2025-03-22 12:01:15.310,1.1333572607521611
2025-03-22 12:01:15.310,-0.45676713373399197
2025-03-22 12:01:15.310,-0.7210951319247411
2025-03-22 12:01:15.320,0.634174059591364
2025-03-22 12:01:15.320,1.7232099891511465
2025-03-22 12:01:15.320,0.8314615792379716
2025-03-22 12:01:15.320,-1.5192302831419633
2025-03-22 12:01:15.320,-3.030098417226575
2025-03-22 12:01:15.330,-1.9625364270235843
2025-03-22 12:01:15.330,1.0620149911446042
2025-03-22 12:01:15.330,3.463275606835838
2025-03-22 12:01:15.330,2.9720572572413575
2025-03-22 12:01:15.330,-0.13677516590159336
2025-03-22 12:01:15.340,-3.013890525249372
2025-03-22 12:01:15.340,-2.8998883308611365
2025-03-22 12:01:15.340,-0.06975277149457618
2025-03-22 12:01:15.340,2.327302293726619
2025-03-22 12:01:15.340,1.7520152087427316
2025-03-22 12:01:15.350,-0.8190478615729594
2025-03-22 12:01:15.350,-2.088090831841239
2025-03-22 12:01:15.350,-0.3806967267272359
2025-03-22 12:01:15.350,2.320622589216203
2025-03-22 12:01:15.350,2.613879820636458
2025-03-22 12:01:15.358,-0.36815571490047094
2025-03-22 12:01:15.358,-3.702621422635089
2025-03-22 12:01:15.359,-3.6302159844366404
2025-03-22 12:01:15.359,0.2769818471369379
2025-03-22 12:01:15.359,4.300548141466632
2025-03-22 12:01:15.368,4.3446686802905585
2025-03-22 12:01:15.368,0.3373081700387689
2025-03-22 12:01:15.368,-3.7120460411255545
2025-03-22 12:01:15.369,-4.052266590711857
2025-03-22 12:01:15.378,-0.9279365094997437
2025-03-22 12:01:15.378,2.238964844613039
2025-03-22 12:01:15.378,2.730798710370664
2025-03-22 12:01:15.378,0.9723988103237385
2025-03-22 12:01:15.379,-0.6882818452989817
2025-03-22 12:01:15.388,-0.8858325879298694
2025-03-22 12:01:15.388,-0.37713136091130217
2025-03-22 12:01:15.388,-0.40876259017366634
2025-03-22 12:01:15.388,-0.7871610638168222
2025-03-22 12:01:15.388,-0.3624592127713408
2025-03-22 12:01:15.398,0.8968251752036472
2025-03-22 12:01:15.398,1.50598459218288
2025-03-22 12:01:15.398,0.5547392564005276
2025-03-22 12:01:15.398,-0.8019401366775576
2025-03-22 12:01:15.398,-0.8553611874534628
2025-03-22 12:01:15.408,0.21139812900246469
2025-03-22 12:01:15.408,0.5500718463353599
2025-03-22 12:01:15.408,-0.6503075801999644
2025-03-22 12:01:15.408,-1.7823306697688432
2025-03-22 12:01:15.409,-0.8082560131267159
2025-03-22 12:01:15.418,1.8807437608479673
2025-03-22 12:01:15.418,3.444458036478358
2025-03-22 12:01:15.418,1.6907083341537537
2025-03-22 12:01:15.418,-2.156257183687306
2025-03-22 12:01:15.418,-4.3237091230532005
2025-03-22 12:01:15.428,-2.435183240438903
2025-03-22 12:01:15.428,1.7078514783998224
2025-03-22 12:01:15.428,3.920800673631725
2025-03-22 12:01:15.428,2.2242655242189473
2025-03-22 12:01:15.428,-1.1324836434129586
2025-03-22 12:01:15.438,-2.5486847168194053
2025-03-22 12:01:15.438,-1.1362580194531744
2025-03-22 12:01:15.438,0.8654425881322617
2025-03-22 12:01:15.438,1.1960927959929692
2025-03-22 12:01:15.438,0.0003824387601994994
2025-03-22 12:01:15.448,-0.9442518255915499
2025-03-22 12:01:15.448,-0.5477534223588555
2025-03-22 12:01:15.448,0.5595424796930389
2025-03-22 12:01:15.448,0.9905546625791297
2025-03-22 12:01:15.448,0.21792401242932027
2025-03-22 12:01:15.458,-0.7896866237748501
2025-03-22 12:01:15.458,-0.6376778352026904
2025-03-22 12:01:15.458,0.6433828430964368
2025-03-22 12:01:15.458,1.273106307366082
2025-03-22 12:01:15.458,-0.043078449642091975
2025-03-22 12:01:15.468,-1.9469871961032057
2025-03-22 12:01:15.468,-1.8186231525441559
2025-03-22 12:01:15.468,0.553889112671699
2025-03-22 12:01:15.468,2.343941938714492
2025-03-22 12:01:15.468,1.5160200400838995
2025-03-22 12:01:15.476,-0.3819277396112467
2025-03-22 12:01:15.476,-0.7650827378390315
2025-03-22 12:01:15.476,0.03936403654509715
2025-03-22 12:01:15.477,-0.3315941385902171
2025-03-22 12:01:15.486,-2.0000422653099283
2025-03-22 12:01:15.486,-2.1204481029078326
2025-03-22 12:01:15.486,0.7923782128753755
2025-03-22 12:01:15.487,3.9421259486792612
2025-03-22 12:01:15.487,3.4349959810853385
2025-03-22 12:01:15.496,-0.5686369762358613
2025-03-22 12:01:15.496,-3.8211416098939153
2025-03-22 12:01:15.496,-3.1509192964971966
2025-03-22 12:01:15.496,0.02125215995313387
2025-03-22 12:01:15.497,2.0614411166480497
2025-03-22 12:01:15.506,1.635990490430928
2025-03-22 12:01:15.506,0.3973425285542214
2025-03-22 12:01:15.506,-0.09804295630492633
2025-03-22 12:01:15.506,-0.19145574006209537
2025-03-22 12:01:15.507,-0.5660213992107456
2025-03-22 12:01:15.516,-0.7302042265195859
2025-03-22 12:01:15.516,-0.15818560228251477
2025-03-22 12:01:15.516,0.3655326308533569
2025-03-22 12:01:15.516,-0.002558565111718654
2025-03-22 12:01:15.516,-0.4417479599428292
2025-03-22 12:01:15.526,0.327609055403302
2025-03-22 12:01:15.526,1.5659207226943304
2025-03-22 12:01:15.526,1.133323346643328
2025-03-22 12:01:15.526,-1.1893171609652184
2025-03-22 12:01:15.526,-2.7567771511254726
2025-03-22 12:01:15.536,-1.3685989981858357
2025-03-22 12:01:15.536,1.6404288189466256
2025-03-22 12:01:15.536,2.8942678987775925
2025-03-22 12:01:15.536,1.1226331765624278
2025-03-22 12:01:15.536,-1.4356149722675928
2025-03-22 12:01:15.546,-1.967102266209539
2025-03-22 12:01:15.546,-0.4233479531784874
2025-03-22 12:01:15.546,0.8214967832510807
2025-03-22 12:01:15.546,0.24554376746969164
2025-03-22 12:01:15.546,-0.8841458678135078
2025-03-22 12:01:15.556,-0.3450026303477062
2025-03-22 12:01:15.556,1.7725656787940263
2025-03-22 12:01:15.556,2.697146800770431
2025-03-22 12:01:15.556,0.41577194043162
2025-03-22 12:01:15.556,-3.2486717962130243
2025-03-22 12:01:15.566,-4.223826154619887
2025-03-22 12:01:15.566,-0.9732668098899282
2025-03-22 12:01:15.566,3.407376308071352
2025-03-22 12:01:15.566,4.538206908108416
2025-03-22 12:01:15.566,1.5331231300545927
2025-03-22 12:01:15.576,-2.342503627699966
2025-03-22 12:01:15.576,-3.459854935848931
2025-03-22 12:01:15.576,-1.4539571152856803
2025-03-22 12:01:15.576,1.038015672998312
2025-03-22 12:01:15.576,1.6152135632690925
2025-03-22 12:01:15.586,0.4911053673286946
2025-03-22 12:01:15.586,-0.37511778238414606
2025-03-22 12:01:15.586,0.05874871579645974
2025-03-22 12:01:15.586,0.8160099058896186
2025-03-22 12:01:15.586,0.5052693048249368
2025-03-22 12:01:15.596,-0.7330968142370619
2025-03-22 12:01:15.596,-1.512142051532123
2025-03-22 12:01:15.596,-1.0602078397664738
2025-03-22 12:01:15.596,0.025225621008850008
2025-03-22 12:01:15.596,0.9028664562718187
2025-03-22 12:01:15.606,1.4690950289255758
2025-03-22 12:01:15.606,1.7178860474225526
2025-03-22 12:01:15.606,0.9350246056389887
2025-03-22 12:01:15.606,-1.3002719928702395
2025-03-22 12:01:15.606,-3.4840276720599683
2025-03-22 12:01:15.616,-3.0200797446624623
2025-03-22 12:01:15.616,0.5537527296767762
2025-03-22 12:01:15.616,4.159823604228962
2025-03-22 12:01:15.616,4.183948603996891
2025-03-22 12:01:15.616,0.5423252177116417
2025-03-22 12:01:15.626,-3.270653438313739
2025-03-22 12:01:15.626,-4.04341207109304
2025-03-22 12:01:15.626,-1.7718593424518874
2025-03-22 12:01:15.626,1.2302547448451422
2025-03-22 12:01:15.626,2.937032228469714
2025-03-22 12:01:15.634,2.7651865108199947
2025-03-22 12:01:15.634,1.064846860175292
2025-03-22 12:01:15.635,-1.3449155208767403
2025-03-22 12:01:15.635,-3.0901756578996187
2025-03-22 12:01:15.635,-2.702554684921126
2025-03-22 12:01:15.644,-0.05491968929507825
2025-03-22 12:01:15.644,2.793828076759705
2025-03-22 12:01:15.644,3.116393447563534
2025-03-22 12:01:15.645,0.4515863129332285
2025-03-22 12:01:15.645,-2.4802205691145582
2025-03-22 12:01:15.654,-2.568398079222404
2025-03-22 12:01:15.654,0.16113108154745703
2025-03-22 12:01:15.654,2.600322255448295
2025-03-22 12:01:15.655,2.1391958006437264
2025-03-22 12:01:15.655,-0.6184773475366705
2025-03-22 12:01:15.664,-2.8794863457346964
2025-03-22 12:01:15.664,-2.597579466677709
2025-03-22 12:01:15.664,-0.07073917106772007
2025-03-22 12:01:15.665,2.629535236719754
2025-03-22 12:01:15.674,3.3138286252515226
2025-03-22 12:01:15.674,1.3583971907143106
2025-03-22 12:01:15.674,-1.613250581280612
2025-03-22 12:01:15.674,-3.0084342598296665
2025-03-22 12:01:15.675,-1.762010033846729
2025-03-22 12:01:15.684,0.5584626527009543
2025-03-22 12:01:15.684,1.5309108919328631
2025-03-22 12:01:15.684,0.6037817103901928
2025-03-22 12:01:15.684,-0.4917998004538277
2025-03-22 12:01:15.685,-0.10356147639179211
2025-03-22 12:01:15.694,1.2103651711142474
2025-03-22 12:01:15.694,1.4439698034383315
2025-03-22 12:01:15.694,-0.21844119487706543
2025-03-22 12:01:15.694,-2.203032849929874
2025-03-22 12:01:15.694,-2.2747736653241666
2025-03-22 12:01:15.704,-0.176053087495581
2025-03-22 12:01:15.704,1.931772493419827
2025-03-22 12:01:15.704,1.8867825768311781
2025-03-22 12:01:15.704,0.0746047178397263
2025-03-22 12:01:15.705,-1.101670617229935
2025-03-22 12:01:15.714,-0.3786201740291622
2025-03-22 12:01:15.714,0.7335801050978729
2025-03-22 12:01:15.714,0.26696090909751996
2025-03-22 12:01:15.714,-1.1485625515962146
2025-03-22 12:01:15.714,-1.1186894556097753
2025-03-22 12:01:15.724,0.7847422331595515
2025-03-22 12:01:15.724,1.9738345001685258
2025-03-22 12:01:15.724,0.37245947779738514
2025-03-22 12:01:15.724,-2.3463438170884006
2025-03-22 12:01:15.724,-2.536443268887775
2025-03-22 12:01:15.734,0.7328024530834778
2025-03-22 12:01:15.734,4.084717859991889
2025-03-22 12:01:15.734,3.4648894500287506
2025-03-22 12:01:15.734,-1.1255996117590712
2025-03-22 12:01:15.734,-5.18902166959394
2025-03-22 12:01:15.744,-4.351141894270029
2025-03-22 12:01:15.744,0.7720889698399584
2025-03-22 12:01:15.744,5.001691526396151
2025-03-22 12:01:15.744,4.227563948184924
2025-03-22 12:01:15.744,-0.15760983778536208
2025-03-22 12:01:15.754,-3.3498881217715204
2025-03-22 12:01:15.754,-2.915735562312708
2025-03-22 12:01:15.754,-0.7638036017975347
2025-03-22 12:01:15.754,0.5479473262151193
2025-03-22 12:01:15.754,1.1112601768247037
2025-03-22 12:01:15.764,2.02749281909684
2025-03-22 12:01:15.764,2.4314587269592693
2025-03-22 12:01:15.764,0.5659802238070456
2025-03-22 12:01:15.764,-2.7510138630425485
2025-03-22 12:01:15.764,-4.149775411694221
2025-03-22 12:01:15.774,-1.8146662742673327
2025-03-22 12:01:15.774,2.0339087275009717
2025-03-22 12:01:15.774,3.721906928770821
2025-03-22 12:01:15.774,2.222404933376844
2025-03-22 12:01:15.774,-0.3177918129449283
2025-03-22 12:01:15.782,-1.5599818032932011
2025-03-22 12:01:15.782,-1.3266739583365985
2025-03-22 12:01:15.782,-0.9234319487454313
2025-03-22 12:01:15.783,-1.023750090223689
2025-03-22 12:01:15.792,-0.85578804026189
2025-03-22 12:01:15.792,0.5769159503562518
2025-03-22 12:01:15.792,2.7685524697323878
2025-03-22 12:01:15.793,3.5642266534273626
2025-03-22 12:01:15.793,1.2456110536422873
2025-03-22 12:01:15.802,-3.045102583770077
2025-03-22 12:01:15.802,-5.566044093746246
2025-03-22 12:01:15.802,-3.459867130933203
2025-03-22 12:01:15.803,1.9557243492152427
2025-03-22 12:01:15.803,5.926780605715741
2025-03-22 12:01:15.812,4.7299037818298375
2025-03-22 12:01:15.812,-0.5118212916470427
2025-03-22 12:01:15.812,-4.724454160049043
2025-03-22 12:01:15.812,-4.019023476958102
2025-03-22 12:01:15.813,0.16336400859250305
2025-03-22 12:01:15.822,2.8273245936244957
2025-03-22 12:01:15.822,1.4279056828949952
2025-03-22 12:01:15.822,-1.2761186649873992
2025-03-22 12:01:15.822,-1.2430983079387432
2025-03-22 12:01:15.823,1.4140231883972232
2025-03-22 12:01:15.832,2.864439099437678
2025-03-22 12:01:15.832,0.8243065321564873
2025-03-22 12:01:15.832,-2.6867203026060356
2025-03-22 12:01:15.832,-4.0797286305338245
2025-03-22 12:01:15.832,-2.0104555161866395
2025-03-22 12:01:15.842,1.9735699783800424
2025-03-22 12:01:15.842,4.9975752253735815
2025-03-22 12:01:15.842,4.424461827932861
2025-03-22 12:01:15.842,-0.3040209757454019
2025-03-22 12:01:15.843,-5.905739503758506
2025-03-22 12:01:15.852,-6.833714453115858
2025-03-22 12:01:15.852,-0.9821414335220324
2025-03-22 12:01:15.852,6.549595533760614
2025-03-22 12:01:15.852,7.86041413380546
2025-03-22 12:01:15.852,1.1873150753490225
2025-03-22 12:01:15.862,-6.438446727803617
2025-03-22 12:01:15.862,-6.91253722323958
2025-03-22 12:01:15.862,-0.27398559194107575
2025-03-22 12:01:15.862,5.651948060377457
2025-03-22 12:01:15.862,4.554689679504809
2025-03-22 12:01:15.872,-1.4024129900674958
2025-03-22 12:01:15.872,-4.840021976789402
2025-03-22 12:01:15.872,-2.0712895117644834
2025-03-22 12:01:15.872,3.0315179716913936
2025-03-22 12:01:15.872,4.229494846877306
2025-03-22 12:01:15.882,0.43495278608750443
2025-03-22 12:01:15.882,-3.4658909753260767
2025-03-22 12:01:15.882,-3.0515666930785375
2025-03-22 12:01:15.882,0.32822905781571743
2025-03-22 12:01:15.882,2.042797305465684
2025-03-22 12:01:15.892,0.6406779992950749
2025-03-22 12:01:15.892,-0.7552633805840783
2025-03-22 12:01:15.892,0.38067891996436454
2025-03-22 12:01:15.892,2.172654182511365
2025-03-22 12:01:15.892,1.338671160170466
2025-03-22 12:01:15.902,-1.8181612190804808
2025-03-22 12:01:15.902,-3.691346867868967
2025-03-22 12:01:15.902,-2.098535399478789
2025-03-22 12:01:15.902,1.2337156384110717
2025-03-22 12:01:15.902,3.109245674174935
2025-03-22 12:01:15.910,2.367394165344389
2025-03-22 12:01:15.910,0.38119190431728744
2025-03-22 12:01:15.911,-1.0480137157030565
2025-03-22 12:01:15.911,-1.4325345262478406
2025-03-22 12:01:15.911,-1.3467154520936415
2025-03-22 12:01:15.920,-1.1155323554696033
2025-03-22 12:01:15.920,-0.37751348932772044
2025-03-22 12:01:15.921,0.9591116700577738
2025-03-22 12:01:15.921,1.9845227715326996
2025-03-22 12:01:15.921,1.698666357294045
2025-03-22 12:01:15.930,0.3652069948916037
2025-03-22 12:01:15.930,-0.8485298666438623
2025-03-22 12:01:15.930,-1.4353976593374538
2025-03-22 12:01:15.931,-1.7649995341505542
2025-03-22 12:01:15.940,-1.7113769287338632
2025-03-22 12:01:15.940,-0.3665053537981725
2025-03-22 12:01:15.940,2.227635548179915
2025-03-22 12:01:15.941,4.1004743758528726
2025-03-22 12:01:15.941,3.1177867867154765
2025-03-22 12:01:15.950,-0.6571627286525248
2025-03-22 12:01:15.950,-4.829656079638666
2025-03-22 12:01:15.950,-6.33767945865533
2025-03-22 12:01:15.950,-3.254676681697941
2025-03-22 12:01:15.950,3.433467553205341
2025-03-22 12:01:15.960,8.989638553782742
2025-03-22 12:01:15.960,7.815792300677275
2025-03-22 12:01:15.960,-0.5699452723031939
2025-03-22 12:01:15.960,-9.260893158400341
2025-03-22 12:01:15.960,-10.100663826923448
2025-03-22 12:01:15.970,-2.3716419960138286
2025-03-22 12:01:15.970,6.377858998989001
2025-03-22 12:01:15.970,8.548078468717746
2025-03-22 12:01:15.970,3.8930642935824427
2025-03-22 12:01:15.970,-1.9082225173135938
2025-03-22 12:01:15.978,-4.236766148433697
2025-03-22 12:01:15.978,-3.272975083187748
2025-03-22 12:01:15.978,-1.5649574090063432
2025-03-22 12:01:15.979,-0.2755795737148685
2025-03-22 12:01:15.988,1.096591510126965
2025-03-22 12:01:15.988,2.5385218538808756
2025-03-22 12:01:15.988,2.8248850087077813
2025-03-22 12:01:15.988,1.212911562372185
2025-03-22 12:01:15.989,-1.267630218528915
2025-03-22 12:01:15.998,-2.831950188823407
2025-03-22 12:01:15.998,-2.6308294201984794
2025-03-22 12:01:15.999,-0.9455369169587964
2025-03-22 12:01:15.999,1.4603143564407424
2025-03-22 12:01:15.999,3.2619307918017464
2025-03-22 12:01:16.008,2.701257332161538
2025-03-22 12:01:16.008,-0.5182060493134923
2025-03-22 12:01:16.008,-3.6259465951128274
2025-03-22 12:01:16.009,-3.0658892931732775
2025-03-22 12:01:16.009,0.8993405395538019
2025-03-22 12:01:16.018,3.6799313501457744
2025-03-22 12:01:16.018,1.8863673402223131
2025-03-22 12:01:16.018,-2.0885612484854224
2025-03-22 12:01:16.018,-3.1078301685771637
2025-03-22 12:01:16.018,-0.06581608626964089
2025-03-22 12:01:16.028,2.9735334888506895
2025-03-22 12:01:16.028,2.4472761349398513
2025-03-22 12:01:16.028,-0.5971206891549652
2025-03-22 12:01:16.028,-2.917801710895249
2025-03-22 12:01:16.028,-3.0562995324073308
2025-03-22 12:01:16.038,-1.321163798600395
2025-03-22 12:01:16.038,1.8968859242936411
2025-03-22 12:01:16.038,5.252240687739897
2025-03-22 12:01:16.038,5.354962632044768
2025-03-22 12:01:16.038,-0.03600248645137899
2025-03-22 12:01:16.048,-7.392605294121117
2025-03-22 12:01:16.048,-9.115093209365224
2025-03-22 12:01:16.048,-1.99757534353331
2025-03-22 12:01:16.048,7.605866409276532
2025-03-22 12:01:16.049,9.882919583940728
2025-03-22 12:01:16.056,2.7507304179835663
2025-03-22 12:01:16.056,-5.713747661295113
2025-03-22 12:01:16.057,-6.9361557146867225
2025-03-22 12:01:16.057,-1.4241497944613115
2025-03-22 12:01:16.057,3.324830712746371
2025-03-22 12:01:16.066,2.586513490829617
2025-03-22 12:01:16.066,-0.9952183435145607
2025-03-22 12:01:16.067,-2.234938748702038
2025-03-22 12:01:16.067,0.11310620260121854
2025-03-22 12:01:16.067,2.8237447221704666
2025-03-22 12:01:16.076,2.5490626843463056
2025-03-22 12:01:16.076,-0.6026861449179738
2025-03-22 12:01:16.077,-3.4051711767243287
2025-03-22 12:01:16.077,-2.8499697695477115
2025-03-22 12:01:16.086,0.6453508074642079
2025-03-22 12:01:16.086,3.340158634135123
2025-03-22 12:01:16.086,2.078156425735365
2025-03-22 12:01:16.086,-1.784134523768306
2025-03-22 12:01:16.087,-3.370145192322753
2025-03-22 12:01:16.096,-0.13872138141168774
2025-03-22 12:01:16.096,4.128478030151142
2025-03-22 12:01:16.096,3.3191910363780113
2025-03-22 12:01:16.097,-2.7119895479712466
2025-03-22 12:01:16.097,-6.594588804833024
2025-03-22 12:01:16.106,-2.4349707155693703
2025-03-22 12:01:16.106,5.6659726725025
2025-03-22 12:01:16.106,7.816071176692223
2025-03-22 12:01:16.106,0.8261723982946203
2025-03-22 12:01:16.107,-7.389132345251052
2025-03-22 12:01:16.116,-7.4569572306433765
2025-03-22 12:01:16.116,0.33128530242323256
2025-03-22 12:01:16.116,7.13486548592229
2025-03-22 12:01:16.116,6.259665798655854
2025-03-22 12:01:16.117,-0.18335508228823932
2025-03-22 12:01:16.126,-5.197938572238157
2025-03-22 12:01:16.126,-4.809688142302601
2025-03-22 12:01:16.126,-0.8375377624832703
2025-03-22 12:01:16.126,2.5381901764735013
2025-03-22 12:01:16.127,3.0279525207139315
2025-03-22 12:01:16.136,1.3335588980543969
2025-03-22 12:01:16.136,-0.4460653645498744
2025-03-22 12:01:16.136,-0.901095776122557
2025-03-22 12:01:16.136,-0.3360423973167007
2025-03-22 12:01:16.136,-0.11281444972837074
2025-03-22 12:01:16.144,-0.901354219964249
2025-03-22 12:01:16.144,-1.6649156001089715
2025-03-22 12:01:16.145,-0.7509276993057192
2025-03-22 12:01:16.145,1.8361636401680401
2025-03-22 12:01:16.145,3.6233082923256665
2025-03-22 12:01:16.154,1.9445053081370314
2025-03-22 12:01:16.154,-2.500954350706873
2025-03-22 12:01:16.154,-5.198693859286889
2025-03-22 12:01:16.155,-2.4287275134220474
2025-03-22 12:01:16.164,3.6639599242695695
2025-03-22 12:01:16.164,6.4496966274709475
2025-03-22 12:01:16.164,2.2976706063960655
2025-03-22 12:01:16.165,-4.717963441397755
2025-03-22 12:01:16.165,-7.160012849617076
2025-03-22 12:01:16.174,-2.550659529246162
2025-03-22 12:01:16.174,4.269771622845361
2025-03-22 12:01:16.174,6.870956356849498
2025-03-22 12:01:16.175,3.654479631523417
2025-03-22 12:01:16.175,-1.8075376764218585
2025-03-22 12:01:16.184,-5.19617109166687
2025-03-22 12:01:16.184,-4.851246012633441
2025-03-22 12:01:16.184,-1.6745344543080816
2025-03-22 12:01:16.184,2.2989820955703433
2025-03-22 12:01:16.185,4.743838726571159
2025-03-22 12:01:16.194,4.084199306418807
2025-03-22 12:01:16.194,0.9449036525050455
2025-03-22 12:01:16.194,-2.186132171176849
2025-03-22 12:01:16.194,-3.5773888390545037
2025-03-22 12:01:16.195,-3.5566880604982676
2025-03-22 12:01:16.204,-2.499554057752165
2025-03-22 12:01:16.204,0.49900213361254053
2025-03-22 12:01:16.204,4.936094910304757
2025-03-22 12:01:16.205,6.761599445005966
2025-03-22 12:01:16.205,2.479297748489155
2025-03-22 12:01:16.214,-4.877730612670608
2025-03-22 12:01:16.214,-7.644553679846614
2025-03-22 12:01:16.214,-2.793970641718937
2025-03-22 12:01:16.214,3.736954800950119
2025-03-22 12:01:16.215,4.5109245967441085
2025-03-22 12:01:16.224,0.19523985317743114
2025-03-22 12:01:16.224,-2.0391725681541253
2025-03-22 12:01:16.224,0.8668766914164202
2025-03-22 12:01:16.224,3.4447391290327376
2025-03-22 12:01:16.225,0.01442227625797797
2025-03-22 12:01:16.234,-6.1579680350522175
2025-03-22 12:01:16.234,-6.344198636060384
2025-03-22 12:01:16.234,1.7551366641240458
2025-03-22 12:01:16.235,9.810987217277072
2025-03-22 12:01:16.235,8.283724281227853
2025-03-22 12:01:16.244,-2.187347126466844
2025-03-22 12:01:16.244,-11.104357246895068
2025-03-22 12:01:16.244,-9.444432097772257
2025-03-22 12:01:16.245,0.9370841485665962
2025-03-22 12:01:16.245,9.725990024000525
2025-03-22 12:01:16.254,9.047761985952336
2025-03-22 12:01:16.254,0.9109430734812665
2025-03-22 12:01:16.254,-6.118691236688725
2025-03-22 12:01:16.254,-6.316292094122993
2025-03-22 12:01:16.254,-1.68553344623277
2025-03-22 12:01:16.264,2.0025204152338527
2025-03-22 12:01:16.264,2.0961955498684266
2025-03-22 12:01:16.264,0.7279602879016729
2025-03-22 12:01:16.264,0.5819186448952254
2025-03-22 12:01:16.265,1.268394783873572
2025-03-22 12:01:16.274,0.8225297644572153
2025-03-22 12:01:16.274,-0.8137234535302481
2025-03-22 12:01:16.274,-1.7822893955234274
2025-03-22 12:01:16.274,-1.3112064271301205
2025-03-22 12:01:16.274,-0.6261087291231764
2025-03-22 12:01:16.284,-0.47955586212839496
2025-03-22 12:01:16.284,0.2478491744469079
2025-03-22 12:01:16.284,2.259862124478332
2025-03-22 12:01:16.284,3.6170863468067975
2025-03-22 12:01:16.284,1.7108942355558516
2025-03-22 12:01:16.294,-2.8140568523271208
2025-03-22 12:01:16.294,-5.757747104740609
2025-03-22 12:01:16.294,-3.6402556174685436
2025-03-22 12:01:16.294,2.249585872290404
2025-03-22 12:01:16.294,6.532112833674716
2025-03-22 12:01:16.302,4.760229654725643
2025-03-22 12:01:16.303,-1.7733405455014422
2025-03-22 12:01:16.303,-6.565440690229236
2025-03-22 12:01:16.303,-4.478986939086044
2025-03-22 12:01:16.303,2.1657336216533496
2025-03-22 12:01:16.312,5.869743237718655
2025-03-22 12:01:16.312,2.8610964590400236
2025-03-22 12:01:16.313,-2.5794259035355913
2025-03-22 12:01:16.313,-4.099152997394888
2025-03-22 12:01:16.322,-1.126588767993264
2025-03-22 12:01:16.322,1.846138703444028
2025-03-22 12:01:16.323,2.0290394719644813
2025-03-22 12:01:16.323,0.8466547983932646
2025-03-22 12:01:16.323,0.0677836896951747
2025-03-22 12:01:16.323,-0.9076262205030365
2025-03-22 12:01:16.332,-2.5293191300329227
2025-03-22 12:01:16.332,-2.596997371947277
2025-03-22 12:01:16.333,0.9179676229279502
2025-03-22 12:01:16.333,5.370679933667254
2025-03-22 12:01:16.333,4.989293672964343
2025-03-22 12:01:16.342,-1.6462797305072683
2025-03-22 12:01:16.342,-7.937504956924498
2025-03-22 12:01:16.343,-6.060747284609649
2025-03-22 12:01:16.343,2.9584261566084673
2025-03-22 12:01:16.352,9.168204042056074
2025-03-22 12:01:16.352,5.154221015961897
2025-03-22 12:01:16.352,-4.69577059195799
2025-03-22 12:01:16.353,-9.041933067620208
2025-03-22 12:01:16.353,-3.00305299683221
2025-03-22 12:01:16.362,6.191372015473736
2025-03-22 12:01:16.362,7.988344797244751
2025-03-22 12:01:16.362,0.8381235653769208
2025-03-22 12:01:16.363,-6.580563722140562
2025-03-22 12:01:16.363,-6.0193258035242865
2025-03-22 12:01:16.372,0.9710176942387176
2025-03-22 12:01:16.372,5.719921102824774
2025-03-22 12:01:16.372,3.067190403980248
2025-03-22 12:01:16.373,-3.0169165093858186
2025-03-22 12:01:16.373,-4.757625909639229
2025-03-22 12:01:16.382,0.18532902597486106
2025-03-22 12:01:16.382,6.053641624857513
2025-03-22 12:01:16.382,5.356990818106633
2025-03-22 12:01:16.382,-2.5909338398110866
2025-03-22 12:01:16.383,-9.925807774491695
2025-03-22 12:01:16.392,-7.937477098807189
2025-03-22 12:01:16.392,3.049899676949324
2025-03-22 12:01:16.392,12.750561518123092
2025-03-22 12:01:16.392,11.190286200913235
2025-03-22 12:01:16.393,-0.7516633008169644
2025-03-22 12:01:16.400,-12.246624887619456
2025-03-22 12:01:16.400,-13.29089237117779
2025-03-22 12:01:16.401,-3.5186478232193465
2025-03-22 12:01:16.401,8.54006780908803
2025-03-22 12:01:16.410,13.1046567572677
2025-03-22 12:01:16.410,6.880003318737994
2025-03-22 12:01:16.410,-4.361851885843688
2025-03-22 12:01:16.410,-10.66795552607619
2025-03-22 12:01:16.411,-7.080426435208073
2025-03-22 12:01:16.420,1.7753952919642664
2025-03-22 12:01:16.420,7.119366449109436
2025-03-22 12:01:16.420,5.177311206294267
2025-03-22 12:01:16.420,-0.4363303153905172
2025-03-22 12:01:16.420,-4.104502445265045
2025-03-22 12:01:16.430,-3.5586099022637385
2025-03-22 12:01:16.430,-0.4075702700119947
2025-03-22 12:01:16.430,2.280094714180818
2025-03-22 12:01:16.430,2.5269850587659426
2025-03-22 12:01:16.431,0.8232607464518893
2025-03-22 12:01:16.438,-0.7689717960161765
2025-03-22 12:01:16.438,-1.1012473127383322
2025-03-22 12:01:16.439,-0.8767900435156051
2025-03-22 12:01:16.439,-0.9276573324994197
2025-03-22 12:01:16.448,-0.8127835497038466
2025-03-22 12:01:16.448,0.19268451670452588
2025-03-22 12:01:16.449,1.7349165172313519
2025-03-22 12:01:16.449,2.6796600107442017
2025-03-22 12:01:16.449,2.070692765275851
2025-03-22 12:01:16.449,-0.36155926267236954
2025-03-22 12:01:16.458,-3.6362717066475496
2025-03-22 12:01:16.458,-5.362482438239024
2025-03-22 12:01:16.459,-3.3875089190289103
2025-03-22 12:01:16.459,1.8609276945195237
2025-03-22 12:01:16.468,7.17787798155145
2025-03-22 12:01:16.468,8.64980705880664
2025-03-22 12:01:16.468,3.9089931395034316
2025-03-22 12:01:16.469,-5.751252471711509
2025-03-22 12:01:16.469,-13.777263936902216
2025-03-22 12:01:16.478,-11.454094450686961
2025-03-22 12:01:16.478,2.6454994538425627
2025-03-22 12:01:16.478,16.774543349164773
2025-03-22 12:01:16.478,15.709034855174616
2025-03-22 12:01:16.479,-1.0460060037068324
2025-03-22 12:01:16.486,-16.03841455509863
2025-03-22 12:01:16.486,-13.490357780413536
2025-03-22 12:01:16.487,1.7914987821774
2025-03-22 12:01:16.487,11.308649453048943
2025-03-22 12:01:16.496,6.42421172133778
2025-03-22 12:01:16.496,-2.9543394789816197
2025-03-22 12:01:16.496,-4.357306354215979
2025-03-22 12:01:16.496,0.8891032476363362
2025-03-22 12:01:16.497,2.7755836912294702
2025-03-22 12:01:16.506,-1.4949851307338857
2025-03-22 12:01:16.506,-4.733648186657059
2025-03-22 12:01:16.506,-1.6111299422229384
2025-03-22 12:01:16.506,3.9778985348321645
2025-03-22 12:01:16.507,5.086071885796128
2025-03-22 12:01:16.516,0.5408723540681281
2025-03-22 12:01:16.516,-4.535885875474195
2025-03-22 12:01:16.516,-4.519490116993264
2025-03-22 12:01:16.516,1.153589771941838
2025-03-22 12:01:16.517,6.432476894946943
2025-03-22 12:01:16.526,4.053216327599129
2025-03-22 12:01:16.526,-4.705245803235089
2025-03-22 12:01:16.526,-8.896375374880858
2025-03-22 12:01:16.526,-1.8973778443351124
2025-03-22 12:01:16.527,7.366910336866798
2025-03-22 12:01:16.536,6.042753830617573
2025-03-22 12:01:16.536,-2.6165385766865
2025-03-22 12:01:16.536,-3.4835333195373606
2025-03-22 12:01:16.536,5.324400692843147
2025-03-22 12:01:16.537,6.835718986483721
2025-03-22 12:01:16.544,-7.776713691528068
2025-03-22 12:01:16.544,-20.345763550566392
2025-03-22 12:01:16.545,-8.410975863360381
2025-03-22 12:01:16.545,19.93405200910279
2025-03-22 12:01:16.554,31.090510839869093
2025-03-22 12:01:16.554,8.20330666442288
2025-03-22 12:01:16.554,-25.39591860327049
2025-03-22 12:01:16.554,-33.178642167908144
2025-03-22 12:01:16.555,-8.083576189953334
2025-03-22 12:01:16.562,21.66638616677
2025-03-22 12:01:16.562,26.892290351541114
2025-03-22 12:01:16.563,7.9185822444003575
2025-03-22 12:01:16.563,-11.885212697409653
2025-03-22 12:01:16.572,-15.415299007834886
2025-03-22 12:01:16.572,-6.8467861709048865
2025-03-22 12:01:16.572,0.9050807979567057
2025-03-22 12:01:16.573,3.8586797126290797
2025-03-22 12:01:16.573,6.071662567133358
2025-03-22 12:01:16.582,7.313275439859729
2025-03-22 12:01:16.582,2.328940803583577
2025-03-22 12:01:16.582,-7.212709534276582
2025-03-22 12:01:16.582,-10.16898459603222
2025-03-22 12:01:16.583,-0.878947388531445
2025-03-22 12:01:16.590,9.914862213943502
2025-03-22 12:01:16.590,7.37713307956736
2025-03-22 12:01:16.591,-6.312982740478502
