timestamp,bandpass_and_notch
2025-03-24 19:08:18.128,0.20162025244677861
2025-03-24 19:08:18.128,-2.9791853528218812
2025-03-24 19:08:18.128,-6.1776607601830325
2025-03-24 19:08:18.129,-6.209373167683311
2025-03-24 19:08:19.130,-1.8703213154326288
2025-03-24 19:08:19.700,3.0117879823904783
2025-03-24 19:08:19.700,4.591613838998775
2025-03-24 19:08:19.700,1.243143633234349
2025-03-24 19:08:19.701,-8.028906901102168
2025-03-24 19:08:19.710,-18.091122770278133
2025-03-24 19:08:19.710,-14.030366814389827
2025-03-24 19:08:19.710,11.942370608499907
2025-03-24 19:08:19.710,39.895215120106876
2025-03-24 19:08:19.710,36.01246222792734
2025-03-24 19:08:19.718,-5.669742400563487
2025-03-24 19:08:19.718,-48.0674115813744
2025-03-24 19:08:19.718,-48.46880444913211
2025-03-24 19:08:19.719,-5.708918628524962
2025-03-24 19:08:19.726,39.095621992519774
2025-03-24 19:08:19.726,46.78756223980301
2025-03-24 19:08:19.726,17.18252976393763
2025-03-24 19:08:19.727,-18.101161593779832
2025-03-24 19:08:19.727,-31.036727881016166
2025-03-24 19:08:19.736,-19.859005603861252
2025-03-24 19:08:19.736,-1.3697363736125348
2025-03-24 19:08:19.736,9.979998066407065
2025-03-24 19:08:19.736,12.094538010809607
2025-03-24 19:08:19.736,9.6375983850122
2025-03-24 19:08:19.746,5.370442064929517
2025-03-24 19:08:19.746,-1.0309788710172039
2025-03-24 19:08:19.746,-8.507075138961891
2025-03-24 19:08:19.747,-12.510133354030257
2025-03-24 19:08:19.756,-8.705044799078145
2025-03-24 19:08:19.756,1.7334205065967219
2025-03-24 19:08:19.756,11.578942158340624
2025-03-24 19:08:19.756,13.196021135730218
2025-03-24 19:08:19.756,5.253113208982566
2025-03-24 19:08:19.764,-5.940800804347053
2025-03-24 19:08:19.764,-11.750645792552596
2025-03-24 19:08:19.764,-8.296695292461694
2025-03-24 19:08:19.765,0.7684048877259602
2025-03-24 19:08:19.765,7.755785687497761
2025-03-24 19:08:19.774,7.4833940347348635
2025-03-24 19:08:19.774,1.378291109357463
2025-03-24 19:08:19.774,-4.281030256847162
2025-03-24 19:08:19.774,-4.451657021080006
2025-03-24 19:08:19.784,-0.10217046589324391
2025-03-24 19:08:19.784,3.2194116199685308
2025-03-24 19:08:19.784,1.7729578116461093
2025-03-24 19:08:19.784,-2.183180424422792
2025-03-24 19:08:19.784,-3.518968399177452
2025-03-24 19:08:19.794,-0.7458875997051231
2025-03-24 19:08:19.794,2.5254477705815117
2025-03-24 19:08:19.794,2.687987111254203
2025-03-24 19:08:19.794,0.4705524367128626
2025-03-24 19:08:19.794,-0.9427659968928537
2025-03-24 19:08:19.804,-0.42573452459422567
2025-03-24 19:08:19.804,0.24857934416629085
2025-03-24 19:08:19.804,-0.531744396053171
2025-03-24 19:08:19.804,-1.9538620921487595
2025-03-24 19:08:19.804,-1.911999543623501
2025-03-24 19:08:19.814,0.3485633155059554
2025-03-24 19:08:19.814,3.107440554368976
2025-03-24 19:08:19.814,3.6319043601673857
2025-03-24 19:08:19.814,0.9454866273957581
2025-03-24 19:08:19.814,-2.759930292726727
2025-03-24 19:08:19.824,-4.001678495058133
2025-03-24 19:08:19.824,-1.6806432708799641
2025-03-24 19:08:19.824,1.686167735584052
2025-03-24 19:08:19.824,2.894016564260142
2025-03-24 19:08:19.824,1.4820279913415855
2025-03-24 19:08:19.834,-0.503998040106061
2025-03-24 19:08:19.834,-1.368741586019222
2025-03-24 19:08:19.834,-1.1601047588399591
2025-03-24 19:08:19.834,-0.5662234985165224
2025-03-24 19:08:19.834,0.20469045810513925
2025-03-24 19:08:19.842,1.0758188767820227
2025-03-24 19:08:19.842,1.4897073201951532
2025-03-24 19:08:19.842,0.8100933653630608
2025-03-24 19:08:19.842,-0.7915868225236526
2025-03-24 19:08:19.842,-2.155668798781702
2025-03-24 19:08:19.853,-1.9648692657455327
2025-03-24 19:08:19.854,0.01911523121691741
2025-03-24 19:08:19.854,2.3311000349537325
2025-03-24 19:08:19.854,2.757892144365943
2025-03-24 19:08:19.854,0.5732302515606371
2025-03-24 19:08:19.864,-2.2235142405223702
2025-03-24 19:08:19.864,-2.664023300440508
2025-03-24 19:08:19.864,-0.1315129559527117
2025-03-24 19:08:19.864,2.602930525254656
2025-03-24 19:08:19.864,2.2163076824342887
2025-03-24 19:08:19.874,-1.305700950876516
2025-03-24 19:08:19.874,-4.103134385933993
2025-03-24 19:08:19.874,-2.3770333913425996
2025-03-24 19:08:19.874,2.9237808702221786
2025-03-24 19:08:19.874,6.225486213538339
2025-03-24 19:08:19.882,3.2064042559900794
2025-03-24 19:08:19.882,-3.771226566174596
2025-03-24 19:08:19.882,-7.513539237509786
2025-03-24 19:08:19.883,-3.807456491112435
2025-03-24 19:08:19.883,3.633231778394629
2025-03-24 19:08:19.892,7.089012575788703
2025-03-24 19:08:19.892,3.32465341471656
2025-03-24 19:08:19.892,-3.1245182348999423
2025-03-24 19:08:19.893,-5.44733053908698
2025-03-24 19:08:19.902,-2.0246371585949707
2025-03-24 19:08:19.902,2.6610655321642973
2025-03-24 19:08:19.902,3.735471590529958
2025-03-24 19:08:19.902,0.9755993084149802
2025-03-24 19:08:19.903,-1.9950414005457757
2025-03-24 19:08:19.912,-2.286448406172987
2025-03-24 19:08:19.912,-0.5198665783347094
2025-03-24 19:08:19.912,0.767282150501832
2025-03-24 19:08:19.913,0.4609500050118342
2025-03-24 19:08:19.913,-0.17470890667622468
2025-03-24 19:08:19.922,0.4027499165106815
2025-03-24 19:08:19.922,1.829194076908778
2025-03-24 19:08:19.922,2.0937101501771744
2025-03-24 19:08:19.922,-0.1411264012987357
2025-03-24 19:08:19.923,-3.522259316449559
2025-03-24 19:08:19.932,-4.693136642991151
2025-03-24 19:08:19.932,-1.7351893696352956
2025-03-24 19:08:19.932,3.2184232953267133
2025-03-24 19:08:19.932,5.79242050838268
2025-03-24 19:08:19.933,3.8580318474305946
2025-03-24 19:08:19.942,-0.6554888916539057
2025-03-24 19:08:19.942,-4.228273956575316
2025-03-24 19:08:19.942,-4.783818676714088
2025-03-24 19:08:19.942,-2.3778227165943546
2025-03-24 19:08:19.942,1.4067622467787542
2025-03-24 19:08:19.952,4.068486835203988
2025-03-24 19:08:19.952,3.5872996614967065
2025-03-24 19:08:19.952,0.4297339473975291
2025-03-24 19:08:19.952,-2.434318257686636
2025-03-24 19:08:19.952,-2.5018497195353797
2025-03-24 19:08:19.960,-0.43543744627766795
2025-03-24 19:08:19.960,1.014462924406796
2025-03-24 19:08:19.960,0.5088256885424066
2025-03-24 19:08:19.961,-0.5482269372537444
2025-03-24 19:08:19.961,-0.34681310763136514
2025-03-24 19:08:19.970,0.8365867364954465
2025-03-24 19:08:19.970,1.3011925110786056
2025-03-24 19:08:19.970,0.34102353819980125
2025-03-24 19:08:19.971,-1.0145489685908122
2025-03-24 19:08:19.980,-1.4344321373370608
2025-03-24 19:08:19.980,-0.6588999314685652
2025-03-24 19:08:19.980,0.5209251301686441
2025-03-24 19:08:19.981,1.1123072666853744
2025-03-24 19:08:19.981,0.7488470849068402
2025-03-24 19:08:19.981,-4.821933461815475e-05
2025-03-24 19:08:19.990,-0.2502098654358409
2025-03-24 19:08:19.990,0.019624617977987154
2025-03-24 19:08:19.990,-0.2008102156445966
2025-03-24 19:08:19.991,-1.3469083202730607
2025-03-24 19:08:20.000,-1.950788517256032
2025-03-24 19:08:20.000,-0.17406548638714012
2025-03-24 19:08:20.000,3.160529011313934
2025-03-24 19:08:20.001,4.485615942048123
2025-03-24 19:08:20.001,1.4311467992919593
2025-03-24 19:08:20.001,-3.8622091099928264
2025-03-24 19:08:20.010,-6.4162170837667825
2025-03-24 19:08:20.010,-3.4278851210227845
2025-03-24 19:08:20.010,2.7494879663795606
2025-03-24 19:08:20.010,6.669774839989872
2025-03-24 19:08:20.011,4.915783617534738
2025-03-24 19:08:20.020,-0.6736995234074783
2025-03-24 19:08:20.020,-4.969832375989755
2025-03-24 19:08:20.020,-4.64058990510997
2025-03-24 19:08:20.021,-0.8858451056578689
2025-03-24 19:08:20.030,2.558690479401334
2025-03-24 19:08:20.030,3.1171116432464627
2025-03-24 19:08:20.030,1.0610021875994855
2025-03-24 19:08:20.030,-1.337051814858303
2025-03-24 19:08:20.031,-1.8926979627328846
2025-03-24 19:08:20.040,-0.3783381177908515
2025-03-24 19:08:20.040,1.4429803820398794
2025-03-24 19:08:20.040,1.7779472436014545
2025-03-24 19:08:20.040,0.4406469624293782
2025-03-24 19:08:20.041,-1.4719354218241432
2025-03-24 19:08:20.050,-2.589107147312551
2025-03-24 19:08:20.050,-1.7916019170531183
2025-03-24 19:08:20.050,0.9017514086007647
2025-03-24 19:08:20.050,3.417118487677586
2025-03-24 19:08:20.050,3.019806931818949
2025-03-24 19:08:20.060,-0.3824922130229098
2025-03-24 19:08:20.060,-3.4115167048308352
2025-03-24 19:08:20.060,-2.8668650886487193
2025-03-24 19:08:20.060,0.4592472884272638
2025-03-24 19:08:20.060,2.7911073210453905
2025-03-24 19:08:20.070,1.8607055402471024
2025-03-24 19:08:20.070,-0.8358943359327686
2025-03-24 19:08:20.070,-2.346791435247717
2025-03-24 19:08:20.070,-1.5470382014082507
2025-03-24 19:08:20.070,0.5316094083092493
2025-03-24 19:08:20.081,2.4245303815730246
2025-03-24 19:08:20.081,2.9152092725747463
2025-03-24 19:08:20.082,0.9457105873714554
2025-03-24 19:08:20.082,-2.952950481749108
2025-03-24 19:08:20.082,-5.3495834735010535
2025-03-24 19:08:20.090,-2.731838878302881
2025-03-24 19:08:20.090,3.458808538643777
2025-03-24 19:08:20.090,6.993901228751729
2025-03-24 19:08:20.090,3.752371221777835
2025-03-24 19:08:20.090,-3.102931671823413
2025-03-24 19:08:20.100,-6.645214636149842
2025-03-24 19:08:20.100,-3.9411786619119216
2025-03-24 19:08:20.100,1.5096845717756766
2025-03-24 19:08:20.100,4.599491312198169
2025-03-24 19:08:20.100,3.7741631937809736
2025-03-24 19:08:20.110,0.9049798692828434
2025-03-24 19:08:20.110,-1.9019177709162514
2025-03-24 19:08:20.110,-3.5237570425271194
2025-03-24 19:08:20.110,-3.0012640289749344
2025-03-24 19:08:20.110,-0.13820653225241075
2025-03-24 19:08:20.120,2.8992577728286317
2025-03-24 19:08:20.120,3.068615422818941
2025-03-24 19:08:20.120,0.46776377712543415
2025-03-24 19:08:20.120,-1.3405530471295
2025-03-24 19:08:20.120,-0.3163077781258325
2025-03-24 19:08:20.130,0.9815825731201833
2025-03-24 19:08:20.130,-0.6168200769778787
2025-03-24 19:08:20.130,-3.6114084762912064
2025-03-24 19:08:20.130,-3.4502304947649787
2025-03-24 19:08:20.130,1.053788896815473
2025-03-24 19:08:20.140,5.680792182717147
2025-03-24 19:08:20.140,5.742033741358651
2025-03-24 19:08:20.140,1.1223104780241102
2025-03-24 19:08:20.140,-4.267862020517866
2025-03-24 19:08:20.140,-6.457591506400496
2025-03-24 19:08:20.150,-4.172786475515287
2025-03-24 19:08:20.150,0.7475562032769499
2025-03-24 19:08:20.150,4.6490226344672685
2025-03-24 19:08:20.150,4.861875463608842
2025-03-24 19:08:20.150,2.0707145160334943
2025-03-24 19:08:20.158,-0.786324345778174
2025-03-24 19:08:20.158,-2.0863901649763856
2025-03-24 19:08:20.159,-2.6548380654448973
2025-03-24 19:08:20.159,-3.0978023232199448
2025-03-24 19:08:20.159,-2.031007188376493
2025-03-24 19:08:20.168,1.5064484608725257
2025-03-24 19:08:20.168,5.123064621480649
2025-03-24 19:08:20.169,4.8111583083152265
2025-03-24 19:08:20.169,-0.06993545981615057
2025-03-24 19:08:20.169,-5.149359080679999
2025-03-24 19:08:20.180,-5.468223523439621
2025-03-24 19:08:20.180,-0.8577079231139297
2025-03-24 19:08:20.180,4.090128460089394
2025-03-24 19:08:20.180,5.003410356463208
2025-03-24 19:08:20.180,1.6890479417100046
2025-03-24 19:08:20.188,-2.567545040039634
2025-03-24 19:08:20.188,-4.4031742575062
2025-03-24 19:08:20.189,-2.8375079622903154
2025-03-24 19:08:20.189,0.6217353936375153
2025-03-24 19:08:20.198,3.471287729990632
2025-03-24 19:08:20.198,3.8833623589103192
2025-03-24 19:08:20.198,1.5890800711049664
2025-03-24 19:08:20.198,-1.9956177813092222
2025-03-24 19:08:20.199,-4.255528505301153
2025-03-24 19:08:20.208,-3.0642977814634844
2025-03-24 19:08:20.208,0.847085477658204
2025-03-24 19:08:20.208,3.8063929756031287
2025-03-24 19:08:20.208,2.8672480266321534
2025-03-24 19:08:20.208,-0.6871048611227355
2025-03-24 19:08:20.218,-2.828253381322492
2025-03-24 19:08:20.218,-1.6181649066789716
2025-03-24 19:08:20.218,0.8956104248898773
2025-03-24 19:08:20.218,1.8019332471892409
2025-03-24 19:08:20.219,0.7839460852860327
2025-03-24 19:08:20.228,-0.4410055658691126
2025-03-24 19:08:20.228,-0.9150329801616454
2025-03-24 19:08:20.228,-1.0526622063085758
2025-03-24 19:08:20.228,-0.8987104472954857
2025-03-24 19:08:20.229,0.25079597332648873
2025-03-24 19:08:20.238,1.9793085920984126
2025-03-24 19:08:20.238,2.2888209885914015
2025-03-24 19:08:20.238,0.17003817921756165
2025-03-24 19:08:20.238,-2.581479604732652
2025-03-24 19:08:20.239,-3.2534414120095607
2025-03-24 19:08:20.248,-1.0686349294501678
2025-03-24 19:08:20.248,2.446405461347661
2025-03-24 19:08:20.248,4.710970430230266
2025-03-24 19:08:20.248,3.324590742867501
2025-03-24 19:08:20.248,-1.918905021235231
2025-03-24 19:08:20.258,-7.134401801079936
2025-03-24 19:08:20.258,-6.605223877579821
2025-03-24 19:08:20.258,0.8655115953528636
2025-03-24 19:08:20.258,8.944438738698148
2025-03-24 19:08:20.258,9.460407872337267
2025-03-24 19:08:20.266,1.2459572914129087
2025-03-24 19:08:20.266,-8.212029972303469
2025-03-24 19:08:20.266,-10.351225983121234
2025-03-24 19:08:20.267,-3.840892215846553
2025-03-24 19:08:20.276,4.927045610669371
2025-03-24 19:08:20.276,8.59996837774079
2025-03-24 19:08:20.276,5.303926338050371
2025-03-24 19:08:20.276,-0.9974394355377633
2025-03-24 19:08:20.277,-5.073305283907023
2025-03-24 19:08:20.286,-4.712075895753126
2025-03-24 19:08:20.286,-1.4026747367554566
2025-03-24 19:08:20.286,1.7993858691034619
2025-03-24 19:08:20.287,2.75698737908236
2025-03-24 19:08:20.287,1.5045618042784863
2025-03-24 19:08:20.296,-0.23912437384828664
2025-03-24 19:08:20.296,-0.8684034351737238
2025-03-24 19:08:20.296,-0.3463529533955566
2025-03-24 19:08:20.296,0.1783725361654045
2025-03-24 19:08:20.296,-0.0837814273948352
2025-03-24 19:08:20.306,-0.7695743321100971
2025-03-24 19:08:20.306,-0.8667261636955405
2025-03-24 19:08:20.306,0.26606482768186046
2025-03-24 19:08:20.306,1.9538264963793737
2025-03-24 19:08:20.306,2.181856102788453
2025-03-24 19:08:20.316,-0.3965102022330026
2025-03-24 19:08:20.316,-3.8733644778645733
2025-03-24 19:08:20.316,-4.0086839676667285
2025-03-24 19:08:20.316,0.7175155953851027
2025-03-24 19:08:20.317,5.980694289685778
2025-03-24 19:08:20.326,5.695688500924384
2025-03-24 19:08:20.326,-0.700081378916873
2025-03-24 19:08:20.326,-6.9002832161134835
2025-03-24 19:08:20.326,-6.507260531088495
2025-03-24 19:08:20.326,-0.035077116104469674
2025-03-24 19:08:20.336,5.9277636601340316
2025-03-24 19:08:20.336,5.977357074211449
2025-03-24 19:08:20.336,1.0649175235572335
2025-03-24 19:08:20.336,-3.5722712451165566
2025-03-24 19:08:20.336,-4.223098519461547
2025-03-24 19:08:20.346,-1.578877760165335
2025-03-24 19:08:20.346,1.2424602730358707
2025-03-24 19:08:20.346,2.1038769269130055
2025-03-24 19:08:20.346,1.1917978022754045
2025-03-24 19:08:20.346,-0.05539092869840233
2025-03-24 19:08:20.356,-0.638150023588975
2025-03-24 19:08:20.356,-0.5690921880431276
2025-03-24 19:08:20.356,-0.20365115071765338
2025-03-24 19:08:20.356,0.2852210656534907
2025-03-24 19:08:20.356,0.5946231762685725
2025-03-24 19:08:20.366,0.27000712307277747
2025-03-24 19:08:20.366,-0.48663822102430176
2025-03-24 19:08:20.366,-0.7520562699255839
2025-03-24 19:08:20.366,-0.23673654837543412
2025-03-24 19:08:20.366,0.13108746081815156
2025-03-24 19:08:20.376,-0.23505408129834315
2025-03-24 19:08:20.376,-0.30968964505853425
2025-03-24 19:08:20.376,1.003990845164744
2025-03-24 19:08:20.376,2.4956653753074223
2025-03-24 19:08:20.376,1.4959908862959974
2025-03-24 19:08:20.384,-2.227615417347361
2025-03-24 19:08:20.384,-4.835883024458155
2025-03-24 19:08:20.385,-2.4975457624682855
2025-03-24 19:08:20.385,3.181138776518641
2025-03-24 19:08:20.385,5.973792661283395
2025-03-24 19:08:20.394,2.282721929300964
2025-03-24 19:08:20.394,-4.015673191818255
2025-03-24 19:08:20.394,-5.747889948614582
2025-03-24 19:08:20.395,-0.9386252081059112
2025-03-24 19:08:20.404,4.759493711290877
2025-03-24 19:08:20.404,4.777133938371352
2025-03-24 19:08:20.404,-0.6011726935266986
2025-03-24 19:08:20.405,-4.826723541396988
2025-03-24 19:08:20.405,-3.209466511233066
2025-03-24 19:08:20.414,1.609802104240411
2025-03-24 19:08:20.414,3.5445127372391427
2025-03-24 19:08:20.414,0.9099522417479506
2025-03-24 19:08:20.414,-2.027334473869747
2025-03-24 19:08:20.415,-1.302164598885807
2025-03-24 19:08:20.424,1.5335943600972752
2025-03-24 19:08:20.424,2.0958108538867237
2025-03-24 19:08:20.424,-0.5139564053359204
2025-03-24 19:08:20.424,-2.751182516747701
2025-03-24 19:08:20.425,-1.9025131437928897
2025-03-24 19:08:20.434,0.5243829327903168
2025-03-24 19:08:20.434,1.8230755919420463
2025-03-24 19:08:20.434,1.830298299505079
2025-03-24 19:08:20.435,1.5392533342585024
2025-03-24 19:08:20.435,0.31757317577041144
2025-03-24 19:08:20.444,-2.4231357575039647
2025-03-24 19:08:20.444,-4.230435707884727
2025-03-24 19:08:20.444,-1.8800194285228058
2025-03-24 19:08:20.444,3.3579908070563147
2025-03-24 19:08:20.444,5.85479463383971
2025-03-24 19:08:20.454,2.276932948696605
2025-03-24 19:08:20.454,-3.835944006783485
2025-03-24 19:08:20.454,-5.91324303755789
2025-03-24 19:08:20.454,-1.988637775021036
2025-03-24 19:08:20.454,3.3237668383621752
2025-03-24 19:08:20.464,4.587799664052958
2025-03-24 19:08:20.464,1.529765203194665
2025-03-24 19:08:20.464,-1.7446720714954758
2025-03-24 19:08:20.464,-2.2293729275102017
2025-03-24 19:08:20.464,-0.8901118776738017
2025-03-24 19:08:20.474,-0.18906629113377882
2025-03-24 19:08:20.474,-0.533720619126785
2025-03-24 19:08:20.474,-0.29796289610251225
2025-03-24 19:08:20.474,1.303222305391041
2025-03-24 19:08:20.474,2.685954226511948
2025-03-24 19:08:20.482,1.7669022159426975
2025-03-24 19:08:20.482,-1.1425262366801734
2025-03-24 19:08:20.483,-3.205255274582753
2025-03-24 19:08:20.483,-2.2271703631215063
2025-03-24 19:08:20.483,0.6199136417498124
2025-03-24 19:08:20.492,2.0887117583171544
2025-03-24 19:08:20.492,0.7611718981437022
2025-03-24 19:08:20.493,-1.2500703027436952
2025-03-24 19:08:20.493,-0.927615150264833
2025-03-24 19:08:20.493,1.8100784129115262
2025-03-24 19:08:20.502,3.605563999206574
2025-03-24 19:08:20.502,1.3879172532927675
2025-03-24 19:08:20.502,-3.5886665550704984
2025-03-24 19:08:20.503,-6.2727977727546005
2025-03-24 19:08:20.512,-3.144149819840653
2025-03-24 19:08:20.512,3.360263811383905
2025-03-24 19:08:20.512,6.933321726145471
2025-03-24 19:08:20.513,4.222632314415743
2025-03-24 19:08:20.513,-1.5772321906403646
2025-03-24 19:08:20.522,-4.738552977358747
2025-03-24 19:08:20.522,-3.39777796566966
2025-03-24 19:08:20.522,-0.3935113167265286
2025-03-24 19:08:20.523,1.3378629825576185
2025-03-24 19:08:20.523,1.6963367486517271
2025-03-24 19:08:20.532,1.572000610103543
2025-03-24 19:08:20.532,0.7139259906576712
2025-03-24 19:08:20.532,-1.0422566722991402
2025-03-24 19:08:20.532,-2.0942017693953563
2025-03-24 19:08:20.533,-0.6930185595614126
2025-03-24 19:08:20.542,2.1107594833888776
2025-03-24 19:08:20.542,2.9049008200367537
2025-03-24 19:08:20.542,-0.008546389991776815
2025-03-24 19:08:20.542,-3.9004424783585736
2025-03-24 19:08:20.543,-4.193435014690585
2025-03-24 19:08:20.552,0.1293746862882811
2025-03-24 19:08:20.552,4.788955614163359
2025-03-24 19:08:20.552,4.8049623238990105
2025-03-24 19:08:20.552,0.2450177513466032
2025-03-24 19:08:20.553,-3.9452066346128127
2025-03-24 19:08:20.562,-3.8314065988191883
2025-03-24 19:08:20.562,-0.6169218694249116
2025-03-24 19:08:20.562,1.82609065875488
2025-03-24 19:08:20.562,1.9056962561867685
2025-03-24 19:08:20.563,1.0469262780471946
2025-03-24 19:08:20.572,0.4669139899761944
2025-03-24 19:08:20.572,-0.33792320783384466
2025-03-24 19:08:20.572,-1.6262209894024742
2025-03-24 19:08:20.572,-2.0779372469780992
2025-03-24 19:08:20.573,-0.5700261897798498
2025-03-24 19:08:20.582,1.857128420907115
2025-03-24 19:08:20.582,2.891234777202987
2025-03-24 19:08:20.582,1.425215178466146
2025-03-24 19:08:20.582,-1.33969252850412
2025-03-24 19:08:20.582,-3.002838524101096
2025-03-24 19:08:20.592,-2.109033974283585
2025-03-24 19:08:20.592,0.41226349111847327
2025-03-24 19:08:20.592,2.052827907713086
2025-03-24 19:08:20.592,1.486611215664602
2025-03-24 19:08:20.593,0.1661469390464645
2025-03-24 19:08:20.602,0.18765687972956874
2025-03-24 19:08:20.602,0.9852560893472466
2025-03-24 19:08:20.602,0.015929300479212094
2025-03-24 19:08:20.602,-2.87292816366118
2025-03-24 19:08:20.602,-4.018476738263685
2025-03-24 19:08:20.612,-0.6307038710752499
2025-03-24 19:08:20.612,4.5223250038673815
2025-03-24 19:08:20.612,5.595813401327505
2025-03-24 19:08:20.612,0.8696311404182524
2025-03-24 19:08:20.613,-4.6395295834926635
2025-03-24 19:08:20.622,-4.912602922474182
2025-03-24 19:08:20.622,-0.06687430547865902
2025-03-24 19:08:20.622,3.977198140602641
2025-03-24 19:08:20.622,2.800227053617199
2025-03-24 19:08:20.622,-1.4520485744880893
2025-03-24 19:08:20.630,-3.2924771754374116
2025-03-24 19:08:20.630,-0.7805427421748729
2025-03-24 19:08:20.631,2.6217125829572807
2025-03-24 19:08:20.631,2.7792454014324055
2025-03-24 19:08:20.631,-0.29926824367159593
2025-03-24 19:08:20.640,-3.01292220692037
2025-03-24 19:08:20.640,-2.4646096134507096
2025-03-24 19:08:20.641,0.6768146466873075
2025-03-24 19:08:20.641,3.191044466877556
2025-03-24 19:08:20.641,2.551404357252501
2025-03-24 19:08:20.650,-0.6973831225390257
2025-03-24 19:08:20.650,-3.470924745575572
2025-03-24 19:08:20.651,-3.1253772349318423
2025-03-24 19:08:20.651,0.006957357591887592
2025-03-24 19:08:20.660,3.11032076877415
2025-03-24 19:08:20.660,3.68977997065294
2025-03-24 19:08:20.660,1.6021815965157677
2025-03-24 19:08:20.661,-1.3799560946844287
2025-03-24 19:08:20.661,-3.297573643860184
2025-03-24 19:08:20.670,-3.150129464493013
2025-03-24 19:08:20.670,-1.088131248535202
2025-03-24 19:08:20.671,1.6885388319624581
2025-03-24 19:08:20.671,3.333081821395826
2025-03-24 19:08:20.671,2.5873281344107637
2025-03-24 19:08:20.680,0.10832032181058844
2025-03-24 19:08:20.680,-1.9691271698915431
2025-03-24 19:08:20.680,-2.2227233256389236
2025-03-24 19:08:20.680,-1.1551594768520177
2025-03-24 19:08:20.681,0.08440318144298486
2025-03-24 19:08:20.690,1.143320470364358
2025-03-24 19:08:20.690,1.8121248546217048
2025-03-24 19:08:20.690,1.1513669220965954
2025-03-24 19:08:20.690,-1.0890752615451844
2025-03-24 19:08:20.691,-2.8462668342749144
2025-03-24 19:08:20.700,-1.5677550975404273
2025-03-24 19:08:20.700,2.1101147540330594
2025-03-24 19:08:20.700,4.223035623537675
2025-03-24 19:08:20.700,1.933529323014599
2025-03-24 19:08:20.701,-2.8113419878365824
2025-03-24 19:08:20.710,-5.136026195843948
2025-03-24 19:08:20.710,-2.5581005767421363
2025-03-24 19:08:20.710,2.3426108611333496
2025-03-24 19:08:20.711,4.779424874371173
2025-03-24 19:08:20.711,2.758696723096257
2025-03-24 19:08:20.720,-1.216911345274955
2025-03-24 19:08:20.720,-3.205777088375741
2025-03-24 19:08:20.720,-1.9481278699102373
2025-03-24 19:08:20.720,0.40233523405547034
2025-03-24 19:08:20.721,1.2796351003652064
2025-03-24 19:08:20.730,0.5612940890370106
2025-03-24 19:08:20.730,-0.04582405641129687
2025-03-24 19:08:20.730,0.23545534567647697
2025-03-24 19:08:20.730,0.36410625753944614
2025-03-24 19:08:20.730,-0.4748302559788957
2025-03-24 19:08:20.740,-1.2217957897557365
2025-03-24 19:08:20.748,-0.4175034198821812
2025-03-24 19:08:20.748,1.3138322420301982
2025-03-24 19:08:20.748,1.7501839515558
2025-03-24 19:08:20.748,0.1730230626560808
2025-03-24 19:08:20.748,-1.5092107105383739
2025-03-24 19:08:20.748,-1.4478887839704357
2025-03-24 19:08:20.749,-0.2939773559046269
2025-03-24 19:08:20.749,0.23151633209083197
2025-03-24 19:08:20.758,0.07216015155048953
2025-03-24 19:08:20.758,0.5050609267468448
2025-03-24 19:08:20.758,1.6082989332889415
2025-03-24 19:08:20.759,1.7715656915198115
2025-03-24 19:08:20.759,0.00819051565943605
2025-03-24 19:08:20.768,-2.3562836054017042
2025-03-24 19:08:20.768,-2.942970082191848
2025-03-24 19:08:20.768,-0.9856036313563087
2025-03-24 19:08:20.769,1.683683736848471
2025-03-24 19:08:20.769,2.5378979472379757
2025-03-24 19:08:20.778,1.1342419080958066
2025-03-24 19:08:20.778,-0.5594934783002464
2025-03-24 19:08:20.778,-0.8065029003838557
2025-03-24 19:08:20.778,-0.1564101094150333
2025-03-24 19:08:20.778,-0.09150866054514983
2025-03-24 19:08:20.788,-0.6014721224713132
2025-03-24 19:08:20.788,-0.5627138817212719
2025-03-24 19:08:20.788,0.0524774099779702
2025-03-24 19:08:20.788,0.179655486631581
2025-03-24 19:08:20.788,-0.17833822583811962
2025-03-24 19:08:20.798,0.26452638862322936
2025-03-24 19:08:20.798,1.6021421205673148
2025-03-24 19:08:20.798,1.8527691395993118
2025-03-24 19:08:20.798,-0.27013327259998376
2025-03-24 19:08:20.798,-2.9296964759477477
2025-03-24 19:08:20.808,-3.0264584553680214
2025-03-24 19:08:20.808,-0.11023556700910725
2025-03-24 19:08:20.808,2.867360143380124
2025-03-24 19:08:20.808,2.9434871627987236
2025-03-24 19:08:20.808,0.41195663158823964
2025-03-24 19:08:20.818,-1.8769907128470629
2025-03-24 19:08:20.818,-1.9619897508951025
2025-03-24 19:08:20.818,-0.5597986725259393
2025-03-24 19:08:20.818,0.588383192481489
2025-03-24 19:08:20.818,0.9538686596134844
2025-03-24 19:08:20.826,1.026993487537092
2025-03-24 19:08:20.827,0.7886805379140498
2025-03-24 19:08:20.827,-0.27529517925380076
2025-03-24 19:08:20.827,-1.7420451337687017
2025-03-24 19:08:20.827,-2.0928279891831383
2025-03-24 19:08:20.838,-0.5355535823444725
2025-03-24 19:08:20.838,1.731733929876477
2025-03-24 19:08:20.838,2.735165431293935
2025-03-24 19:08:20.838,1.7990587169038772
2025-03-24 19:08:20.838,-0.18247520366344738
2025-03-24 19:08:20.846,-2.0507324504345856
2025-03-24 19:08:20.846,-3.001588594505521
2025-03-24 19:08:20.847,-2.2524714168007898
2025-03-24 19:08:20.847,0.3900654376551199
2025-03-24 19:08:20.847,3.252192242822081
2025-03-24 19:08:20.856,3.6175134529171586
2025-03-24 19:08:20.856,0.88797469850397
2025-03-24 19:08:20.857,-2.1847179486961594
2025-03-24 19:08:20.857,-2.659064749953024
2025-03-24 19:08:20.866,-0.9017703127023516
2025-03-24 19:08:20.866,0.46223609605679294
2025-03-24 19:08:20.866,0.32869660023214753
2025-03-24 19:08:20.867,0.05004187944431834
2025-03-24 19:08:20.867,0.7436343299624215
2025-03-24 19:08:20.876,1.464453087106366
2025-03-24 19:08:20.876,0.7428615726799884
2025-03-24 19:08:20.876,-1.1020283631099352
2025-03-24 19:08:20.876,-2.0968629364534697
2025-03-24 19:08:20.877,-0.9261636234193664
2025-03-24 19:08:20.886,1.3555481790398645
2025-03-24 19:08:20.886,2.260311039195298
2025-03-24 19:08:20.886,0.653996899596042
2025-03-24 19:08:20.887,-1.7768872309885348
2025-03-24 19:08:20.887,-2.395899487139757
2025-03-24 19:08:20.896,-0.6498677704953875
2025-03-24 19:08:20.896,1.5614863176644547
2025-03-24 19:08:20.896,2.3019582127851352
2025-03-24 19:08:20.896,1.3509842717447837
2025-03-24 19:08:20.897,-0.3676623226159228
2025-03-24 19:08:20.906,-1.8477236330239604
2025-03-24 19:08:20.906,-2.179130372787644
2025-03-24 19:08:20.906,-0.8662813888247223
2025-03-24 19:08:20.907,1.2743932212473739
2025-03-24 19:08:20.907,2.3114947369263676
2025-03-24 19:08:20.916,1.1664392544813582
2025-03-24 19:08:20.916,-0.9651095946960504
2025-03-24 19:08:20.916,-1.8618854082170373
2025-03-24 19:08:20.917,-0.7634595920245514
2025-03-24 19:08:20.917,0.9651289011666598
2025-03-24 19:08:20.926,1.545128621421607
2025-03-24 19:08:20.926,0.6082772513872591
2025-03-24 19:08:20.926,-0.7661621196361377
2025-03-24 19:08:20.926,-1.3670444198444351
2025-03-24 19:08:20.927,-0.8859109224746092
2025-03-24 19:08:20.936,0.09140805960633105
2025-03-24 19:08:20.936,0.6874454374004759
2025-03-24 19:08:20.936,0.477482924083482
2025-03-24 19:08:20.936,0.0719134843767262
2025-03-24 19:08:20.937,0.5792405012038002
2025-03-24 19:08:20.946,1.7664358046630073
2025-03-24 19:08:20.946,1.4595491637223432
2025-03-24 19:08:20.946,-1.66494412768518
2025-03-24 19:08:20.946,-5.024201923960412
2025-03-24 19:08:20.947,-4.099697981999937
2025-03-24 19:08:20.956,1.6935015837978673
2025-03-24 19:08:20.956,6.942468714112468
2025-03-24 19:08:20.956,5.8254262905653285
2025-03-24 19:08:20.956,-0.8880122410892552
2025-03-24 19:08:20.957,-6.278239842162109
2025-03-24 19:08:20.966,-5.088231481392903
2025-03-24 19:08:20.966,0.45729997492016194
2025-03-24 19:08:20.966,3.8628853419517135
2025-03-24 19:08:20.966,2.301525075563687
2025-03-24 19:08:20.967,-0.8302890193624122
2025-03-24 19:08:20.976,-1.3464414742911097
2025-03-24 19:08:20.976,0.34829829715882743
2025-03-24 19:08:20.976,1.0098678604768407
2025-03-24 19:08:20.976,-0.18086351822237334
2025-03-24 19:08:20.977,-0.9382148774065004
2025-03-24 19:08:20.986,-0.05081156418650312
2025-03-24 19:08:20.986,0.7047511692210061
2025-03-24 19:08:20.986,-0.25088772399788717
2025-03-24 19:08:20.986,-1.5401023110406193
2025-03-24 19:08:20.986,-0.9494390873428046
2025-03-24 19:08:20.996,1.1531054724625807
2025-03-24 19:08:20.996,2.366282599103496
2025-03-24 19:08:20.996,1.4828069022980512
2025-03-24 19:08:20.996,-0.4195390259866698
2025-03-24 19:08:20.996,-1.7531800689277999
2025-03-24 19:08:21.006,-1.9471424203067336
2025-03-24 19:08:21.006,-1.2187347174945917
2025-03-24 19:08:21.006,0.1320068375393922
2025-03-24 19:08:21.006,1.7061352093147644
2025-03-24 19:08:21.006,2.567842123102903
2025-03-24 19:08:21.014,1.5295555483778385
2025-03-24 19:08:21.014,-1.3058796577253053
2025-03-24 19:08:21.015,-3.4718963797894085
2025-03-24 19:08:21.015,-2.1727815408945435
2025-03-24 19:08:21.015,1.839882367088035
2025-03-24 19:08:21.024,4.054904635394283
2025-03-24 19:08:21.024,1.4876231860873594
2025-03-24 19:08:21.025,-3.020505630398628
2025-03-24 19:08:21.025,-3.9767632333891494
2025-03-24 19:08:21.025,-0.24709323361999558
2025-03-24 19:08:21.034,3.523790881339637
2025-03-24 19:08:21.034,2.9589141938671584
2025-03-24 19:08:21.035,-0.7677338094691903
2025-03-24 19:08:21.035,-3.0031735944364044
2025-03-24 19:08:21.044,-1.4885732774827147
2025-03-24 19:08:21.044,1.5628915797532776
2025-03-24 19:08:21.044,2.646775909938823
2025-03-24 19:08:21.044,0.6902132284475325
2025-03-24 19:08:21.045,-2.3251362920759835
2025-03-24 19:08:21.054,-3.3985569829528983
2025-03-24 19:08:21.054,-1.2109678688408396
2025-03-24 19:08:21.055,2.4638194025022067
2025-03-24 19:08:21.055,4.2286160800956045
2025-03-24 19:08:21.055,2.4798656217719177
2025-03-24 19:08:21.064,-1.0390361088950362
2025-03-24 19:08:21.064,-3.4205422725207195
2025-03-24 19:08:21.064,-3.4212289516397396
2025-03-24 19:08:21.065,-1.5755081093645145
2025-03-24 19:08:21.065,1.172276238956319
2025-03-24 19:08:21.074,3.5743797319374244
2025-03-24 19:08:21.074,3.707597013984695
2025-03-24 19:08:21.074,0.5554270432272671
2025-03-24 19:08:21.074,-3.6257053301398865
2025-03-24 19:08:21.075,-4.372473116221324
2025-03-24 19:08:21.084,-0.13965462511830956
2025-03-24 19:08:21.084,4.596939499276942
2025-03-24 19:08:21.084,3.843520470595057
2025-03-24 19:08:21.084,-2.1159363647120384
2025-03-24 19:08:21.085,-6.14920627446497
2025-03-24 19:08:21.094,-2.9160481885344507
2025-03-24 19:08:21.094,4.163982803451449
2025-03-24 19:08:21.094,6.919236059770663
2025-03-24 19:08:21.094,2.2649729161734027
2025-03-24 19:08:21.095,-4.500292158258873
2025-03-24 19:08:21.104,-6.2849248335061985
2025-03-24 19:08:21.104,-1.957648328923869
2025-03-24 19:08:21.104,3.4531933201875966
2025-03-24 19:08:21.104,4.876905781706128
2025-03-24 19:08:21.105,1.9086610303235465
2025-03-24 19:08:21.114,-2.09821353403683
2025-03-24 19:08:21.114,-3.815630030176886
2025-03-24 19:08:21.114,-2.2898999687022528
2025-03-24 19:08:21.114,1.0470834226768015
2025-03-24 19:08:21.115,3.515990767640784
2025-03-24 19:08:21.122,2.997513504227764
2025-03-24 19:08:21.122,-0.20270762613943027
2025-03-24 19:08:21.123,-3.311141332590199
2025-03-24 19:08:21.123,-3.5768260772336236
2025-03-24 19:08:21.132,-0.8466030122962673
2025-03-24 19:08:21.132,2.532711001900611
2025-03-24 19:08:21.133,3.9325806657909848
2025-03-24 19:08:21.133,2.2687224554873926
2025-03-24 19:08:21.133,-1.4561209290685482
2025-03-24 19:08:21.142,-4.4464263509559165
2025-03-24 19:08:21.142,-3.767926421740531
2025-03-24 19:08:21.142,0.6826250575534067
2025-03-24 19:08:21.143,5.046138060227117
2025-03-24 19:08:21.143,4.916861805483097
2025-03-24 19:08:21.152,0.15912996120645412
2025-03-24 19:08:21.152,-4.799698659748533
2025-03-24 19:08:21.152,-5.610798408862138
2025-03-24 19:08:21.153,-1.9666568366486288
2025-03-24 19:08:21.153,2.9479389706628703
2025-03-24 19:08:21.162,5.60386248336384
2025-03-24 19:08:21.162,4.385561367204837
2025-03-24 19:08:21.162,0.11880170337536698
2025-03-24 19:08:21.163,-4.3832286626689125
2025-03-24 19:08:21.163,-5.782791915566604
2025-03-24 19:08:21.172,-2.7436081249378086
2025-03-24 19:08:21.172,2.346534099549373
2025-03-24 19:08:21.172,5.025682764461009
2025-03-24 19:08:21.172,3.104170119804626
2025-03-24 19:08:21.172,-0.9445824955131049
2025-03-24 19:08:21.182,-2.780844616325884
2025-03-24 19:08:21.182,-1.1236944217826301
2025-03-24 19:08:21.182,1.1537461303682046
2025-03-24 19:08:21.182,0.9066987545130849
2025-03-24 19:08:21.182,-1.4067682841867462
2025-03-24 19:08:21.192,-2.472942982782334
2025-03-24 19:08:21.192,-0.36330079024812045
2025-03-24 19:08:21.192,2.866176682754903
2025-03-24 19:08:21.192,3.422383799999511
2025-03-24 19:08:21.192,0.37639605516307756
2025-03-24 19:08:21.202,-3.0007743984308677
2025-03-24 19:08:21.202,-3.051894675626563
2025-03-24 19:08:21.202,-0.03488559484014089
2025-03-24 19:08:21.202,2.4393519762878095
2025-03-24 19:08:21.202,1.8613902711922896
2025-03-24 19:08:21.210,-0.5278364125363586
2025-03-24 19:08:21.210,-1.7500881821063232
2025-03-24 19:08:21.211,-0.7432131549589518
2025-03-24 19:08:21.211,0.7761433273406891
2025-03-24 19:08:21.211,0.8212162735756414
2025-03-24 19:08:21.220,-0.34151943804876445
2025-03-24 19:08:21.221,-0.7206948836224152
2025-03-24 19:08:21.221,0.5893714694632564
2025-03-24 19:08:21.221,1.938043456575003
2025-03-24 19:08:21.221,1.0408615158614847
2025-03-24 19:08:21.230,-1.8917542693918088
2025-03-24 19:08:21.230,-3.7968111904976545
2025-03-24 19:08:21.231,-2.0750265983724323
2025-03-24 19:08:21.231,2.0987845379364285
2025-03-24 19:08:21.240,4.650251487964166
2025-03-24 19:08:21.240,3.0235900102816218
2025-03-24 19:08:21.240,-1.0449184978880994
2025-03-24 19:08:21.240,-3.688262270073451
2025-03-24 19:08:21.241,-3.0586839748565415
2025-03-24 19:08:21.250,-0.45822180099251664
2025-03-24 19:08:21.250,1.8776649816124853
2025-03-24 19:08:21.250,2.6673949281646303
2025-03-24 19:08:21.250,1.5897213964479642
2025-03-24 19:08:21.251,-0.8132681179304027
2025-03-24 19:08:21.260,-2.7980458764667544
2025-03-24 19:08:21.260,-2.4056061201398133
2025-03-24 19:08:21.260,0.38344658445206503
2025-03-24 19:08:21.261,3.2112121238199536
2025-03-24 19:08:21.261,3.5729893425453065
2025-03-24 19:08:21.270,1.049714292631519
2025-03-24 19:08:21.270,-2.6280787014307787
2025-03-24 19:08:21.270,-4.91997070951441
2025-03-24 19:08:21.270,-3.928273157647624
2025-03-24 19:08:21.270,0.249680172730564
2025-03-24 19:08:21.280,4.945010690742544
2025-03-24 19:08:21.280,6.435496371314857
2025-03-24 19:08:21.280,3.075465455315478
2025-03-24 19:08:21.280,-2.8165035815287998
2025-03-24 19:08:21.280,-6.552819827553822
2025-03-24 19:08:21.290,-5.103822652238104
2025-03-24 19:08:21.290,0.06751214207551656
2025-03-24 19:08:21.290,4.290135344608149
2025-03-24 19:08:21.290,4.195517406682311
2025-03-24 19:08:21.291,0.912454164260017
2025-03-24 19:08:21.300,-1.6125787415573047
2025-03-24 19:08:21.300,-1.2242643377811093
2025-03-24 19:08:21.300,0.38727392716219333
2025-03-24 19:08:21.300,0.412837837661975
2025-03-24 19:08:21.301,-1.310744413986614
2025-03-24 19:08:21.310,-2.2433049702139716
2025-03-24 19:08:21.310,-0.6268357641423435
2025-03-24 19:08:21.310,2.049877334672085
2025-03-24 19:08:21.310,2.759677101905662
2025-03-24 19:08:21.310,0.6884886036946496
2025-03-24 19:08:21.320,-1.7155157479615475
2025-03-24 19:08:21.320,-1.7645051115193127
2025-03-24 19:08:21.320,0.21150359993244186
2025-03-24 19:08:21.320,1.5040985981206265
2025-03-24 19:08:21.320,0.5856433707824966
2025-03-24 19:08:21.328,-1.1284006277944927
2025-03-24 19:08:21.329,-1.4169353046205322
2025-03-24 19:08:21.329,-0.1559591035084486
2025-03-24 19:08:21.329,0.8434655522343179
2025-03-24 19:08:21.329,0.48479362229309486
2025-03-24 19:08:21.338,-0.22505227429644856
2025-03-24 19:08:21.339,0.240196076710674
2025-03-24 19:08:21.339,1.6202748895346701
2025-03-24 19:08:21.339,1.8720978942282298
2025-03-24 19:08:21.339,-0.3680934269929468
2025-03-24 19:08:21.348,-3.662527359800867
2025-03-24 19:08:21.349,-4.64307928689567
2025-03-24 19:08:21.349,-1.4180875535031272
2025-03-24 19:08:21.349,3.911876265569356
2025-03-24 19:08:21.358,6.650230050602365
2025-03-24 19:08:21.358,3.9721336183128124
2025-03-24 19:08:21.358,-2.0150917164648816
2025-03-24 19:08:21.359,-6.166557809772031
2025-03-24 19:08:21.359,-5.302621019552056
2025-03-24 19:08:21.368,-0.8115772130310704
2025-03-24 19:08:21.368,3.5059634098227033
2025-03-24 19:08:21.368,4.959976011313777
2025-03-24 19:08:21.369,3.130977590018398
2025-03-24 19:08:21.369,-0.7426761810939224
2025-03-24 19:08:21.378,-4.1795375035166105
2025-03-24 19:08:21.378,-4.366724218137875
2025-03-24 19:08:21.378,-0.6311049803047335
2025-03-24 19:08:21.378,3.912444741346178
2025-03-24 19:08:21.379,4.785148027774303
2025-03-24 19:08:21.388,0.9848510170303175
2025-03-24 19:08:21.388,-3.6202005715664836
2025-03-24 19:08:21.388,-4.589815385688946
2025-03-24 19:08:21.389,-1.6406079016759074
2025-03-24 19:08:21.389,1.9985617763005004
2025-03-24 19:08:21.398,3.757614523674084
2025-03-24 19:08:21.398,3.347390735504715
2025-03-24 19:08:21.398,1.0979627088136983
2025-03-24 19:08:21.398,-2.506391133726309
2025-03-24 19:08:21.399,-5.280619528541827
2025-03-24 19:08:21.408,-4.102887986670524
2025-03-24 19:08:21.408,1.1118980218313215
2025-03-24 19:08:21.408,5.852365262345145
2025-03-24 19:08:21.409,5.406723190222469
2025-03-24 19:08:21.409,0.24891034468659468
2025-03-24 19:08:21.418,-4.519503996970796
2025-03-24 19:08:21.418,-4.831231200820112
2025-03-24 19:08:21.418,-1.359300231229112
2025-03-24 19:08:21.418,2.2626969832909314
2025-03-24 19:08:21.419,3.3286991321997736
2025-03-24 19:08:21.428,1.8062947872472828
2025-03-24 19:08:21.428,-0.47274659241764216
2025-03-24 19:08:21.428,-1.6049538793216764
2025-03-24 19:08:21.428,-1.163680814182238
2025-03-24 19:08:21.428,-0.30700767094418524
2025-03-24 19:08:21.436,-0.12899624978828686
2025-03-24 19:08:21.437,-0.27173282933053555
2025-03-24 19:08:21.437,0.2370676376581702
2025-03-24 19:08:21.437,1.2535222492065645
2025-03-24 19:08:21.437,1.5305955855247522
2025-03-24 19:08:21.446,0.3721061622212142
2025-03-24 19:08:21.446,-1.3357019965881958
2025-03-24 19:08:21.446,-1.8865270013387465
2025-03-24 19:08:21.447,-0.5647506831288993
2025-03-24 19:08:21.456,1.2450864646679793
2025-03-24 19:08:21.456,1.2863922828747243
2025-03-24 19:08:21.457,-0.7017930996761993
2025-03-24 19:08:21.457,-2.0945987648468933
2025-03-24 19:08:21.457,-0.4981638480943236
2025-03-24 19:08:21.466,2.737379109951094
2025-03-24 19:08:21.466,3.6771277911391405
2025-03-24 19:08:21.466,0.6452671562875814
2025-03-24 19:08:21.467,-3.4915510915968677
2025-03-24 19:08:21.467,-4.58214626034604
2025-03-24 19:08:21.476,-1.7906451803028163
2025-03-24 19:08:21.476,1.9529281162423646
2025-03-24 19:08:21.476,3.5162398062936946
2025-03-24 19:08:21.476,2.4820490132349757
2025-03-24 19:08:21.477,0.5865581304345707
2025-03-24 19:08:21.486,-0.6522719076797251
2025-03-24 19:08:21.486,-1.175943902715908
2025-03-24 19:08:21.486,-1.6985182651513917
2025-03-24 19:08:21.486,-2.2976174303415107
2025-03-24 19:08:21.486,-1.9186149226874012
2025-03-24 19:08:21.496,0.3578514767869203
2025-03-24 19:08:21.496,3.461488778861299
2025-03-24 19:08:21.496,4.567694881570413
2025-03-24 19:08:21.496,2.0254698125182995
2025-03-24 19:08:21.497,-2.336167455542194
2025-03-24 19:08:21.506,-4.731317626612105
2025-03-24 19:08:21.506,-3.2571897686394315
2025-03-24 19:08:21.506,0.34214509198957876
2025-03-24 19:08:21.507,2.7387807291133304
2025-03-24 19:08:21.507,2.3809166340596577
2025-03-24 19:08:21.516,0.603574182069916
2025-03-24 19:08:21.516,-0.42650599130585914
2025-03-24 19:08:21.516,-0.3497243288529682
2025-03-24 19:08:21.516,-0.47799522648213677
2025-03-24 19:08:21.517,-1.1667186739608038
2025-03-24 19:08:21.526,-0.8885488159624517
2025-03-24 19:08:21.526,1.0427207582346
2025-03-24 19:08:21.526,2.338225957466048
2025-03-24 19:08:21.526,0.48640652718992317
2025-03-24 19:08:21.527,-2.972566579388547
2025-03-24 19:08:21.536,-3.536786747656395
2025-03-24 19:08:21.536,0.32882925590919265
2025-03-24 19:08:21.536,4.601340348857489
2025-03-24 19:08:21.536,4.4218419488781215
2025-03-24 19:08:21.537,-0.050441960963658466
2025-03-24 19:08:21.546,-4.128525491696107
2025-03-24 19:08:21.546,-4.168158889900831
2025-03-24 19:08:21.546,-1.0283471634533883
2025-03-24 19:08:21.546,1.8832468978346695
2025-03-24 19:08:21.547,2.5157020618041663
2025-03-24 19:08:21.556,1.4793273875944881
2025-03-24 19:08:21.556,0.3167883656236376
2025-03-24 19:08:21.556,-0.3668310591641112
2025-03-24 19:08:21.556,-0.8484849132542359
2025-03-24 19:08:21.557,-1.1881200547381825
2025-03-24 19:08:21.566,-0.9818915404744168
2025-03-24 19:08:21.566,-0.10429955862416446
2025-03-24 19:08:21.566,0.8874369133913051
2025-03-24 19:08:21.566,1.2423279879112858
2025-03-24 19:08:21.567,0.6970046417761551
2025-03-24 19:08:21.574,-0.32898867566494194
2025-03-24 19:08:21.575,-1.071153027003118
2025-03-24 19:08:21.575,-0.9908936565424902
2025-03-24 19:08:21.575,-0.14612637812297868
2025-03-24 19:08:21.575,0.8886897564513544
2025-03-24 19:08:21.584,1.3679716972145544
2025-03-24 19:08:21.585,0.7912238830009385
2025-03-24 19:08:21.585,-0.5924545845054022
2025-03-24 19:08:21.585,-1.6314421961605272
2025-03-24 19:08:21.594,-1.2154141231224702
2025-03-24 19:08:21.594,0.28508774224065325
2025-03-24 19:08:21.595,1.1263397099706893
2025-03-24 19:08:21.595,0.35032995638504444
2025-03-24 19:08:21.595,-0.71341025114851
2025-03-24 19:08:21.604,-0.0887883832399948
2025-03-24 19:08:21.604,1.9081229688783494
2025-03-24 19:08:21.605,2.563691233774604
2025-03-24 19:08:21.605,0.040969289150710575
2025-03-24 19:08:21.605,-3.9570558229362125
2025-03-24 19:08:21.614,-5.414796939014278
2025-03-24 19:08:21.615,-1.971689781920681
2025-03-24 19:08:21.615,4.193314727778677
2025-03-24 19:08:21.615,7.57948503567403
2025-03-24 19:08:21.615,4.443152834323394
2025-03-24 19:08:21.624,-2.8027549750803677
2025-03-24 19:08:21.624,-7.321994834130699
2025-03-24 19:08:21.625,-4.949964881887182
2025-03-24 19:08:21.625,1.3084931188921693
2025-03-24 19:08:21.625,4.912068812001751
2025-03-24 19:08:21.634,3.061684211933844
2025-03-24 19:08:21.634,-1.0034775156564713
2025-03-24 19:08:21.635,-2.5529790239705896
2025-03-24 19:08:21.635,-0.649774473887481
2025-03-24 19:08:21.635,1.662395361676326
2025-03-24 19:08:21.644,1.5422725122519054
2025-03-24 19:08:21.644,-0.4774503280466593
2025-03-24 19:08:21.644,-1.7666689336617114
2025-03-24 19:08:21.645,-1.102326933278379
2025-03-24 19:08:21.645,0.20212708633335386
2025-03-24 19:08:21.654,0.5346061091588531
2025-03-24 19:08:21.654,0.13100953763596151
2025-03-24 19:08:21.655,0.29152836857319203
2025-03-24 19:08:21.655,1.1414372647332787
2025-03-24 19:08:21.655,1.2875951278784374
2025-03-24 19:08:21.664,-0.14589327643825037
2025-03-24 19:08:21.664,-2.0216954652647736
2025-03-24 19:08:21.664,-2.3514611891339996
2025-03-24 19:08:21.665,-0.5572414142639505
2025-03-24 19:08:21.665,1.9213796460215498
2025-03-24 19:08:21.674,2.963581985335331
2025-03-24 19:08:21.674,1.4598958719157005
2025-03-24 19:08:21.674,-1.6515265959306076
2025-03-24 19:08:21.675,-3.6390443081037827
2025-03-24 19:08:21.675,-2.2133527432104705
2025-03-24 19:08:21.684,1.6887465952837573
2025-03-24 19:08:21.684,4.182763130948747
2025-03-24 19:08:21.684,2.5359087500584967
2025-03-24 19:08:21.684,-1.5587457061064378
2025-03-24 19:08:21.685,-3.8474291046403777
2025-03-24 19:08:21.694,-2.3057999548322448
2025-03-24 19:08:21.694,0.9728893853139997
2025-03-24 19:08:21.694,2.5675692313621523
2025-03-24 19:08:21.694,1.400654600554564
2025-03-24 19:08:21.695,-0.6569851208544047
2025-03-24 19:08:21.704,-1.2022723952536585
2025-03-24 19:08:21.704,0.12601126806118254
2025-03-24 19:08:21.704,1.398260859323764
2025-03-24 19:08:21.704,0.6570399467310813
2025-03-24 19:08:21.705,-1.618698193252298
2025-03-24 19:08:21.714,-2.7565006400215704
2025-03-24 19:08:21.714,-0.9629182860402605
2025-03-24 19:08:21.714,2.277802666522793
2025-03-24 19:08:21.714,3.5552633687232076
2025-03-24 19:08:21.714,1.2564419844594175
2025-03-24 19:08:21.722,-2.47395009871577
2025-03-24 19:08:21.723,-3.6491001714217393
2025-03-24 19:08:21.723,-0.5575918026889899
2025-03-24 19:08:21.723,3.782703967176384
2025-03-24 19:08:21.723,4.077657048706713
2025-03-24 19:08:21.732,-1.1433212337920122
2025-03-24 19:08:21.732,-6.581787485579135
2025-03-24 19:08:21.733,-5.445440738236
2025-03-24 19:08:21.733,2.2044452043865523
2025-03-24 19:08:21.742,8.664730737437273
2025-03-24 19:08:21.742,7.1092916746519
2025-03-24 19:08:21.743,-0.8923498676882214
2025-03-24 19:08:21.743,-7.620039864817571
2025-03-24 19:08:21.743,-7.567021997203403
2025-03-24 19:08:21.752,-2.0413871847792926
2025-03-24 19:08:21.752,3.6490945150783602
2025-03-24 19:08:21.753,5.63445037126212
2025-03-24 19:08:21.753,3.86657283718301
2025-03-24 19:08:21.753,0.6352770225967352
2025-03-24 19:08:21.762,-1.9536738888848162
2025-03-24 19:08:21.762,-3.057368542158274
2025-03-24 19:08:21.762,-2.655493574564559
2025-03-24 19:08:21.763,-1.0781604906023015
2025-03-24 19:08:21.763,0.8055493724709617
2025-03-24 19:08:21.772,1.7941262441138672
2025-03-24 19:08:21.772,1.5327158392517277
2025-03-24 19:08:21.772,0.9381445882226842
2025-03-24 19:08:21.773,0.6590703439084654
2025-03-24 19:08:21.773,-0.05862062474317417
2025-03-24 19:08:21.782,-1.7153686141163769
2025-03-24 19:08:21.782,-2.696504345324875
2025-03-24 19:08:21.783,-1.079895510863726
2025-03-24 19:08:21.783,2.016682948347557
2025-03-24 19:08:21.783,3.129830352891629
2025-03-24 19:08:21.792,0.9234693057706038
2025-03-24 19:08:21.792,-1.9231522372870438
2025-03-24 19:08:21.793,-2.2043310285638276
2025-03-24 19:08:21.793,-0.18185434285805857
2025-03-24 19:08:21.793,1.184080966682649
2025-03-24 19:08:21.802,0.37440764466516774
2025-03-24 19:08:21.802,-0.7841476095403715
2025-03-24 19:08:21.802,0.10741121302568793
2025-03-24 19:08:21.803,2.274582340268265
2025-03-24 19:08:21.803,2.3149709068934725
2025-03-24 19:08:21.812,-1.1369224204050241
2025-03-24 19:08:21.812,-4.758356688556787
2025-03-24 19:08:21.812,-4.065458109059067
2025-03-24 19:08:21.813,0.929874017923518
2025-03-24 19:08:21.813,5.279654872389595
2025-03-24 19:08:21.822,4.660324956727763
2025-03-24 19:08:21.822,0.12845292688903587
2025-03-24 19:08:21.822,-3.440610769204309
2025-03-24 19:08:21.823,-2.952835620878652
2025-03-24 19:08:21.823,-0.13519996279592023
2025-03-24 19:08:21.832,1.090423944475374
2025-03-24 19:08:21.832,-0.4937861953287741
2025-03-24 19:08:21.832,-2.0199949620064923
2025-03-24 19:08:21.833,-0.36499827019774844
2025-03-24 19:08:21.833,3.4102625965185913
2025-03-24 19:08:21.840,4.801977284863598
2025-03-24 19:08:21.841,1.376154804145966
2025-03-24 19:08:21.841,-3.7894120408372247
2025-03-24 19:08:21.841,-5.4528219118323635
2025-03-24 19:08:21.841,-2.333266196859364
2025-03-24 19:08:21.852,1.7841870877669692
2025-03-24 19:08:21.852,3.079128912538473
2025-03-24 19:08:21.852,1.8725451422044301
2025-03-24 19:08:21.852,0.7689785319831245
2025-03-24 19:08:21.853,0.42490790786282406
2025-03-24 19:08:21.860,-0.5897732955543438
2025-03-24 19:08:21.861,-2.3296684202968065
2025-03-24 19:08:21.861,-2.5386477112334993
2025-03-24 19:08:21.861,-0.07738028328161725
2025-03-24 19:08:21.861,2.6576305331105785
2025-03-24 19:08:21.871,2.489931862691589
2025-03-24 19:08:21.871,-0.2531476192183631
2025-03-24 19:08:21.871,-2.136484910850314
2025-03-24 19:08:21.871,-1.2267298393381094
2025-03-24 19:08:21.871,0.6443439319585691
2025-03-24 19:08:21.880,0.941217025563438
2025-03-24 19:08:21.881,-0.05474928443752752
2025-03-24 19:08:21.881,-0.31917357868663976
2025-03-24 19:08:21.881,0.5284286808313975
2025-03-24 19:08:21.881,0.8867996727970645
2025-03-24 19:08:21.890,-0.11548942525992967
2025-03-24 19:08:21.890,-1.3352654898498129
2025-03-24 19:08:21.891,-1.3342396817542752
2025-03-24 19:08:21.891,-0.1991743645782112
2025-03-24 19:08:21.900,0.8548621654635056
2025-03-24 19:08:21.900,1.0558609127702638
2025-03-24 19:08:21.901,0.7301475385712427
2025-03-24 19:08:21.901,0.5345202653576772
2025-03-24 19:08:21.901,0.43089084195112093
2025-03-24 19:08:21.910,-0.2357729654540511
2025-03-24 19:08:21.910,-1.5719634506701154
2025-03-24 19:08:21.910,-2.4429100097598697
2025-03-24 19:08:21.911,-1.4701267324281737
2025-03-24 19:08:21.911,1.195495599494365
2025-03-24 19:08:21.920,3.4762111054669007
2025-03-24 19:08:21.920,3.1386696779741508
2025-03-24 19:08:21.921,0.11271215561782875
2025-03-24 19:08:21.921,-3.0715461868086544
2025-03-24 19:08:21.921,-3.4972481763106114
2025-03-24 19:08:21.930,-0.7937762946103482
2025-03-24 19:08:21.930,2.3084252192691745
2025-03-24 19:08:21.931,2.7532985008459923
2025-03-24 19:08:21.931,0.38388969345851176
2025-03-24 19:08:21.931,-2.105271673359016
2025-03-24 19:08:21.940,-2.2882948077704532
2025-03-24 19:08:21.940,-0.3048463887693552
2025-03-24 19:08:21.941,1.9400061673275686
2025-03-24 19:08:21.941,2.811814731430295
2025-03-24 19:08:21.941,1.7891597206576249
2025-03-24 19:08:21.950,-0.6821887287651858
2025-03-24 19:08:21.950,-3.239715191468725
2025-03-24 19:08:21.950,-3.984994308530543
2025-03-24 19:08:21.951,-1.8630210113753165
2025-03-24 19:08:21.951,2.0289876457444516
2025-03-24 19:08:21.960,4.894766726783703
2025-03-24 19:08:21.960,4.404585024911692
2025-03-24 19:08:21.960,0.6980605639617022
2025-03-24 19:08:21.960,-3.5540018318767412
2025-03-24 19:08:21.961,-5.187069720627183
2025-03-24 19:08:21.970,-3.090288799372537
2025-03-24 19:08:21.970,0.9227505404102979
2025-03-24 19:08:21.970,3.744105039341472
2025-03-24 19:08:21.971,3.5660268871681735
2025-03-24 19:08:21.971,1.08294670161841
2025-03-24 19:08:21.980,-1.4763121036778046
2025-03-24 19:08:21.980,-2.3249656909344587
2025-03-24 19:08:21.980,-1.4062622335841704
2025-03-24 19:08:21.980,-0.005693156976137363
2025-03-24 19:08:21.981,0.7789335246880135
2025-03-24 19:08:21.988,0.8861482042247932
2025-03-24 19:08:21.989,0.610260861267921
2025-03-24 19:08:21.989,-0.07727602969577295
2025-03-24 19:08:21.989,-0.9277628039397952
2025-03-24 19:08:21.989,-0.9961049415310441
2025-03-24 19:08:21.998,0.14678184579462333
2025-03-24 19:08:21.999,1.3466962444673332
2025-03-24 19:08:21.999,1.142784706543088
2025-03-24 19:08:21.999,-0.17839943679200926
2025-03-24 19:08:21.999,-0.9314627474773503
2025-03-24 19:08:22.008,-0.42457347038215865
2025-03-24 19:08:22.009,0.12195231796344877
2025-03-24 19:08:22.009,-0.48723964003894493
2025-03-24 19:08:22.009,-1.4277334956938548
2025-03-24 19:08:22.018,-0.754817373817018
2025-03-24 19:08:22.018,1.797571530102959
2025-03-24 19:08:22.018,3.7524593144653333
2025-03-24 19:08:22.019,2.2900384579502426
2025-03-24 19:08:22.019,-2.1991871281438358
2025-03-24 19:08:22.028,-5.53570166047663
2025-03-24 19:08:22.029,-3.719212715640581
2025-03-24 19:08:22.029,2.1935877367226784
2025-03-24 19:08:22.029,6.265537212466822
2025-03-24 19:08:22.029,3.916436345286089
2025-03-24 19:08:22.038,-2.552042076603583
2025-03-24 19:08:22.038,-6.155273148777866
2025-03-24 19:08:22.039,-3.0695570309159956
2025-03-24 19:08:22.039,3.1057369698210424
2025-03-24 19:08:22.039,5.651572999911894
2025-03-24 19:08:22.048,2.271690456204309
2025-03-24 19:08:22.048,-2.9525153216892743
2025-03-24 19:08:22.049,-4.765597219388519
2025-03-24 19:08:22.049,-2.2157316169775303
2025-03-24 19:08:22.049,1.5759147027862364
2025-03-24 19:08:22.058,3.453900148812834
2025-03-24 19:08:22.058,2.644165209163723
2025-03-24 19:08:22.058,0.2278709535728321
2025-03-24 19:08:22.059,-2.0234238513737757
2025-03-24 19:08:22.059,-2.569616613199346
2025-03-24 19:08:22.068,-1.232010902182701
2025-03-24 19:08:22.068,0.5649769100760134
2025-03-24 19:08:22.069,1.396024765441612
2025-03-24 19:08:22.069,1.3055873389307724
2025-03-24 19:08:22.069,1.0185004514166707
2025-03-24 19:08:22.078,0.41648057796164856
2025-03-24 19:08:22.078,-1.0205533517642935
2025-03-24 19:08:22.079,-2.5587202881315148
2025-03-24 19:08:22.079,-2.3155995449814872
2025-03-24 19:08:22.079,0.45883701166031954
2025-03-24 19:08:22.088,3.7793735600715506
2025-03-24 19:08:22.088,4.314632046145102
2025-03-24 19:08:22.088,0.7514668714624573
2025-03-24 19:08:22.089,-4.252566948890584
2025-03-24 19:08:22.089,-6.039060271554544
2025-03-24 19:08:22.098,-2.5326579959823676
2025-03-24 19:08:22.098,3.2755473129072805
2025-03-24 19:08:22.098,6.143015601765607
2025-03-24 19:08:22.099,3.898372369410004
2025-03-24 19:08:22.099,-0.7611711220804039
2025-03-24 19:08:22.108,-3.7242024528736675
2025-03-24 19:08:22.108,-3.571056299320464
2025-03-24 19:08:22.108,-1.798761101669779
2025-03-24 19:08:22.109,-0.1369561257414876
2025-03-24 19:08:22.109,1.1199985638644667
2025-03-24 19:08:22.118,2.321619621419381
2025-03-24 19:08:22.118,3.0666806559708406
2025-03-24 19:08:22.118,2.254700246084912
2025-03-24 19:08:22.118,-0.43017608891381415
2025-03-24 19:08:22.119,-3.424642252513673
2025-03-24 19:08:22.128,-4.2571272195399645
2025-03-24 19:08:22.128,-1.983879675020671
2025-03-24 19:08:22.128,1.589523393147925
2025-03-24 19:08:22.129,3.5542750727076826
2025-03-24 19:08:22.129,2.728714775932257
2025-03-24 19:08:22.138,0.5019274916577793
2025-03-24 19:08:22.138,-1.0869209969744589
2025-03-24 19:08:22.138,-1.4778325855536742
2025-03-24 19:08:22.139,-1.3866632376437493
2025-03-24 19:08:22.139,-1.1089402526154306
2025-03-24 19:08:22.148,-0.1677197653800888
2025-03-24 19:08:22.148,1.2771253871543422
2025-03-24 19:08:22.148,1.9129964261256258
2025-03-24 19:08:22.149,0.8932824004939043
2025-03-24 19:08:22.149,-0.856348999116774
2025-03-24 19:08:22.158,-1.7376459176044285
2025-03-24 19:08:22.158,-1.2411934997298952
2025-03-24 19:08:22.159,0.06317886635919917
2025-03-24 19:08:22.159,1.4719102592672464
2025-03-24 19:08:22.159,2.1871680225852113
2025-03-24 19:08:22.168,1.253822970312248
2025-03-24 19:08:22.168,-1.24262554895763
2025-03-24 19:08:22.168,-3.2869170349774017
2025-03-24 19:08:22.169,-2.570898876711754
2025-03-24 19:08:22.169,0.7171256649621925
2025-03-24 19:08:22.176,3.5386811439726524
2025-03-24 19:08:22.176,2.9960721156439956
2025-03-24 19:08:22.177,-0.40719570564506924
2025-03-24 19:08:22.177,-2.977159680310413
2025-03-24 19:08:22.177,-1.8618784369079941
2025-03-24 19:08:22.186,1.3525644569188084
2025-03-24 19:08:22.187,2.308601564849119
2025-03-24 19:08:22.187,-0.4689905540594286
2025-03-24 19:08:22.187,-3.2668881805896484
2025-03-24 19:08:22.196,-1.9595933809985435
2025-03-24 19:08:22.196,2.292984975890546
2025-03-24 19:08:22.197,4.399329539886781
2025-03-24 19:08:22.197,1.9296444953668541
2025-03-24 19:08:22.197,-2.089934766280014
2025-03-24 19:08:22.206,-3.4774801144627356
2025-03-24 19:08:22.206,-1.8414476868356298
2025-03-24 19:08:22.207,0.13186787485031917
2025-03-24 19:08:22.207,0.8678861490529424
2025-03-24 19:08:22.207,1.282829024792768
2025-03-24 19:08:22.216,2.1335580674932535
2025-03-24 19:08:22.216,2.0723364203161814
2025-03-24 19:08:22.216,-0.3429106902836863
2025-03-24 19:08:22.216,-3.633474467624231
2025-03-24 19:08:22.217,-4.199762883519538
2025-03-24 19:08:22.226,-0.593000192035612
2025-03-24 19:08:22.226,4.1139258036836175
2025-03-24 19:08:22.227,5.2000726378168824
2025-03-24 19:08:22.227,1.3678261933519738
2025-03-24 19:08:22.227,-3.7065498731307827
2025-03-24 19:08:22.236,-5.132906905145099
2025-03-24 19:08:22.236,-1.8559941890698963
2025-03-24 19:08:22.237,2.4903671346211267
2025-03-24 19:08:22.237,3.790271293207473
2025-03-24 19:08:22.237,1.7202763728270203
2025-03-24 19:08:22.246,-0.7844841119798003
2025-03-24 19:08:22.246,-1.4517191707950365
2025-03-24 19:08:22.247,-0.697779056392317
2025-03-24 19:08:22.247,-0.09119693798610534
2025-03-24 19:08:22.247,-0.34129035711139555
2025-03-24 19:08:22.256,-1.0350276512843328
2025-03-24 19:08:22.256,-1.2164409110006769
2025-03-24 19:08:22.257,0.005117330960385038
2025-03-24 19:08:22.257,2.413554915367254
2025-03-24 19:08:22.257,4.016187959415414
2025-03-24 19:08:22.266,2.4896288168866114
2025-03-24 19:08:22.266,-1.9888015010238127
2025-03-24 19:08:22.267,-5.911430615720047
2025-03-24 19:08:22.267,-5.38705709090856
2025-03-24 19:08:22.267,-0.24575066628993458
2025-03-24 19:08:22.276,5.226453061509821
2025-03-24 19:08:22.276,6.279505067659384
2025-03-24 19:08:22.276,2.4363490944967356
2025-03-24 19:08:22.276,-2.3505407561397056
2025-03-24 19:08:22.277,-4.226493875672654
2025-03-24 19:08:22.286,-3.002883825524407
2025-03-24 19:08:22.286,-0.8391042501930341
2025-03-24 19:08:22.287,0.9661988539543509
2025-03-24 19:08:22.287,2.2869788059351266
2025-03-24 19:08:22.287,2.4583942242362573
2025-03-24 19:08:22.296,0.7185946211684011
2025-03-24 19:08:22.296,-1.6443131240450064
2025-03-24 19:08:22.296,-1.9694426655698583
2025-03-24 19:08:22.297,0.1253425286051289
2025-03-24 19:08:22.297,1.7180129454216468
2025-03-24 19:08:22.306,0.4756010609695678
2025-03-24 19:08:22.306,-1.96885827611042
2025-03-24 19:08:22.307,-2.184487849771035
2025-03-24 19:08:22.307,0.4313174010954822
2025-03-24 19:08:22.307,2.950790677721465
2025-03-24 19:08:22.316,2.620277030726795
2025-03-24 19:08:22.316,-0.17063170250318105
2025-03-24 19:08:22.316,-2.7609087895497386
2025-03-24 19:08:22.317,-2.9603600874407414
2025-03-24 19:08:22.317,-0.6791001738598652
2025-03-24 19:08:22.326,2.2154393332833653
2025-03-24 19:08:22.326,3.2378948455797287
2025-03-24 19:08:22.326,1.3041736998530116
2025-03-24 19:08:22.326,-1.9122400151977281
2025-03-24 19:08:22.327,-3.1977358353099095
2025-03-24 19:08:22.336,-1.1837996769503716
2025-03-24 19:08:22.336,1.820928742332649
2025-03-24 19:08:22.336,2.3710559341652284
2025-03-24 19:08:22.337,0.14572006144251823
2025-03-24 19:08:22.337,-1.6740964745709686
2025-03-24 19:08:22.346,-0.7468393578697154
2025-03-24 19:08:22.346,1.269294429712625
2025-03-24 19:08:22.346,1.2835132917590912
2025-03-24 19:08:22.347,-0.695680745370828
2025-03-24 19:08:22.347,-1.7805289349540627
2025-03-24 19:08:22.356,-0.6275248797892479
2025-03-24 19:08:22.356,0.8263837672830568
2025-03-24 19:08:22.356,0.67412750340641
2025-03-24 19:08:22.356,-0.19892764494830917
2025-03-24 19:08:22.357,-0.04672050804420879
2025-03-24 19:08:22.364,0.855477583481472
2025-03-24 19:08:22.365,1.048898396203462
2025-03-24 19:08:22.365,0.29779646305335605
2025-03-24 19:08:22.365,-0.6654084590965418
2025-03-24 19:08:22.365,-1.6756606158339538
2025-03-24 19:08:22.375,-2.496345311424686
2025-03-24 19:08:22.375,-1.695965561011599
2025-03-24 19:08:22.375,1.5137795753287406
2025-03-24 19:08:22.375,4.7866082407408355
2025-03-24 19:08:22.375,4.39136205008699
2025-03-24 19:08:22.384,-0.13050192863583723
2025-03-24 19:08:22.385,-4.778405379032721
2025-03-24 19:08:22.385,-5.312590375304464
2025-03-24 19:08:22.385,-1.666469466641065
2025-03-24 19:08:22.394,2.489912398214106
2025-03-24 19:08:22.395,3.854731953294545
2025-03-24 19:08:22.395,2.3308388676499563
2025-03-24 19:08:22.395,0.07871904223169016
2025-03-24 19:08:22.395,-1.190337368452773
2025-03-24 19:08:22.404,-1.4273454274985147
2025-03-24 19:08:22.405,-1.2899351148735585
2025-03-24 19:08:22.405,-0.8910684355254603
2025-03-24 19:08:22.405,0.08730281722940147
2025-03-24 19:08:22.405,1.2990814454735593
2025-03-24 19:08:22.405,1.496327164740914
2025-03-24 19:08:22.414,0.08372469050679654
2025-03-24 19:08:22.415,-1.424718817264782
2025-03-24 19:08:22.415,-0.8272433968547753
2025-03-24 19:08:22.415,1.5117094707538876
2025-03-24 19:08:22.415,2.354797595552867
2025-03-24 19:08:22.424,-0.2670061833929733
2025-03-24 19:08:22.425,-3.7723163092815697
2025-03-24 19:08:22.425,-3.6829743954450964
2025-03-24 19:08:22.425,0.7113111466921362
2025-03-24 19:08:22.434,5.038974427936225
2025-03-24 19:08:22.434,4.712021688501437
2025-03-24 19:08:22.435,-0.004095289184572581
2025-03-24 19:08:22.435,-4.54502047386038
2025-03-24 19:08:22.435,-4.970967117662989
2025-03-24 19:08:22.444,-1.4562109257596147
2025-03-24 19:08:22.444,2.7011459969680467
2025-03-24 19:08:22.444,4.386788515081985
2025-03-24 19:08:22.445,2.8130921438433507
2025-03-24 19:08:22.445,-0.5375207935976024
2025-03-24 19:08:22.454,-3.196592403953518
2025-03-24 19:08:22.454,-3.3165993653646213
2025-03-24 19:08:22.455,-1.0025996921357032
2025-03-24 19:08:22.455,1.668604601701687
2025-03-24 19:08:22.455,2.5089308924528897
2025-03-24 19:08:22.464,1.3740445881336936
2025-03-24 19:08:22.464,0.01252076477763988
2025-03-24 19:08:22.464,-0.3576507158728744
2025-03-24 19:08:22.465,-0.46280854037815944
2025-03-24 19:08:22.465,-1.357820152704363
2025-03-24 19:08:22.474,-2.256830789550717
2025-03-24 19:08:22.474,-1.2942858724918864
2025-03-24 19:08:22.475,1.5776414366374827
2025-03-24 19:08:22.475,3.723084940013967
2025-03-24 19:08:22.475,2.664032651094655
2025-03-24 19:08:22.484,-0.757585295222623
2025-03-24 19:08:22.484,-3.0837303624920382
2025-03-24 19:08:22.484,-2.2113378061954867
2025-03-24 19:08:22.485,0.26497648393647905
2025-03-24 19:08:22.485,1.2586576714373703
2025-03-24 19:08:22.494,0.040255375306050695
2025-03-24 19:08:22.494,-1.1531846786988416
2025-03-24 19:08:22.495,-0.27491323583541966
2025-03-24 19:08:22.495,1.840856485049952
2025-03-24 19:08:22.495,2.5883917071919864
2025-03-24 19:08:22.504,0.8604371853859389
2025-03-24 19:08:22.504,-1.6711402250312035
2025-03-24 19:08:22.504,-2.6178014799015434
2025-03-24 19:08:22.505,-1.533075462723176
2025-03-24 19:08:22.505,-0.037699378244929485
2025-03-24 19:08:22.514,0.4585063132439637
2025-03-24 19:08:22.514,0.45597056023822713
2025-03-24 19:08:22.514,1.2587361446767975
2025-03-24 19:08:22.515,2.5352157763691103
2025-03-24 19:08:22.515,2.191518087928458
2025-03-24 19:08:22.523,-0.7306406770691272
2025-03-24 19:08:22.523,-4.031172196093591
2025-03-24 19:08:22.523,-4.385427345246538
2025-03-24 19:08:22.523,-1.0835132641236362
2025-03-24 19:08:22.523,3.105456967575045
2025-03-24 19:08:22.532,4.649755619243104
2025-03-24 19:08:22.533,2.435517365719902
2025-03-24 19:08:22.533,-1.3420325167525478
2025-03-24 19:08:22.533,-3.1882840545236903
2025-03-24 19:08:22.542,-1.7547794135740835
2025-03-24 19:08:22.542,0.6908766948089673
2025-03-24 19:08:22.543,1.0483259209884457
2025-03-24 19:08:22.543,-0.5846204758825178
2025-03-24 19:08:22.543,-1.1565576291681658
2025-03-24 19:08:22.552,0.8190362301399084
2025-03-24 19:08:22.552,2.809261513269399
2025-03-24 19:08:22.552,1.5816391069067612
2025-03-24 19:08:22.553,-2.1237157536202593
2025-03-24 19:08:22.553,-4.007965081445084
2025-03-24 19:08:22.562,-1.4411036409149975
2025-03-24 19:08:22.562,3.042738370080127
2025-03-24 19:08:22.563,4.452141928162802
2025-03-24 19:08:22.563,1.1173668625156574
2025-03-24 19:08:22.563,-3.3583961432469147
2025-03-24 19:08:22.572,-4.255498337550696
2025-03-24 19:08:22.572,-0.9863583438636897
2025-03-24 19:08:22.573,2.639208597800829
2025-03-24 19:08:22.573,3.049109341317787
2025-03-24 19:08:22.573,0.7136058976250823
2025-03-24 19:08:22.582,-1.1608798347359006
2025-03-24 19:08:22.582,-0.8881349683766471
2025-03-24 19:08:22.582,0.07385087524466674
2025-03-24 19:08:22.582,-0.16665140536911155
2025-03-24 19:08:22.583,-1.1103103124615692
2025-03-24 19:08:22.592,-0.8927805893395482
2025-03-24 19:08:22.592,0.6940693194678944
2025-03-24 19:08:22.592,1.7460742543840588
2025-03-24 19:08:22.593,0.9023822557306602
2025-03-24 19:08:22.593,-0.7425821581636574
2025-03-24 19:08:22.602,-1.0845382141113677
2025-03-24 19:08:22.602,0.15471538409413804
2025-03-24 19:08:22.602,1.0103633071196472
2025-03-24 19:08:22.603,0.014477612563587733
2025-03-24 19:08:22.603,-1.527761614271851
2025-03-24 19:08:22.612,-1.2051186474829525
2025-03-24 19:08:22.612,0.8633696216548263
2025-03-24 19:08:22.612,1.8514769560674889
2025-03-24 19:08:22.613,0.29819074504102183
2025-03-24 19:08:22.613,-1.4751871942791766
2025-03-24 19:08:22.621,-0.6080747488120454
2025-03-24 19:08:22.621,1.8707871930319486
2025-03-24 19:08:22.621,2.1198157583158452
2025-03-24 19:08:22.621,-1.07610409665862
2025-03-24 19:08:22.621,-4.115039178193208
2025-03-24 19:08:22.631,-2.934915353776455
2025-03-24 19:08:22.631,1.7198635289304978
2025-03-24 19:08:22.631,4.974372812051302
2025-03-24 19:08:22.631,3.480106965969796
2025-03-24 19:08:22.631,-1.0251824134845884
2025-03-24 19:08:22.640,-4.102024851209861
2025-03-24 19:08:22.641,-3.3742820543883183
2025-03-24 19:08:22.641,-0.22572041548532196
2025-03-24 19:08:22.641,2.389681912430596
2025-03-24 19:08:22.650,2.7737085041850578
2025-03-24 19:08:22.650,1.308333121545823
2025-03-24 19:08:22.651,-0.6102602431712776
2025-03-24 19:08:22.651,-1.8891126416475177
2025-03-24 19:08:22.651,-2.0793592770395604
2025-03-24 19:08:22.660,-1.0649864528722868
2025-03-24 19:08:22.660,0.7903627242505402
2025-03-24 19:08:22.661,2.256008787665051
2025-03-24 19:08:22.661,2.0155957439944276
2025-03-24 19:08:22.661,0.29524896544775725
2025-03-24 19:08:22.670,-1.1137814150147798
2025-03-24 19:08:22.670,-1.100806613443927
2025-03-24 19:08:22.670,-0.736925555747011
2025-03-24 19:08:22.671,-1.4559084763002677
2025-03-24 19:08:22.671,-2.1823529399852797
2025-03-24 19:08:22.680,-0.14133037586730468
2025-03-24 19:08:22.680,4.531498083316946
2025-03-24 19:08:22.680,6.795870311394623
2025-03-24 19:08:22.681,2.0423181989286623
2025-03-24 19:08:22.681,-6.743857385471413
2025-03-24 19:08:22.688,-10.356360544662902
2025-03-24 19:08:22.689,-3.742049402467906
2025-03-24 19:08:22.689,7.037553767172296
2025-03-24 19:08:22.689,10.88771357721018
2025-03-24 19:08:22.698,4.137999997752635
2025-03-24 19:08:22.698,-5.6028850091076485
2025-03-24 19:08:22.699,-8.459511043631263
2025-03-24 19:08:22.699,-2.948052081891927
2025-03-24 19:08:22.699,3.7904102783597176
2025-03-24 19:08:22.708,4.95718647720614
2025-03-24 19:08:22.708,0.9875423084991162
2025-03-24 19:08:22.709,-2.6376079461149633
2025-03-24 19:08:22.709,-2.3424415616922345
2025-03-24 19:08:22.709,0.3830293630774675
2025-03-24 19:08:22.718,1.9769741335272324
2025-03-24 19:08:22.719,1.0856735604222518
2025-03-24 19:08:22.719,-0.6708501454946624
2025-03-24 19:08:22.719,-1.1827234227533476
2025-03-24 19:08:22.719,-0.2439750631002453
2025-03-24 19:08:22.728,0.5293595362136219
2025-03-24 19:08:22.728,-0.03162643700824261
2025-03-24 19:08:22.729,-0.9040655972666147
2025-03-24 19:08:22.729,-0.2728585216927511
2025-03-24 19:08:22.729,1.4244975338219168
2025-03-24 19:08:22.738,1.6082870079988087
2025-03-24 19:08:22.738,-0.4997818815924936
2025-03-24 19:08:22.738,-2.105317463742287
2025-03-24 19:08:22.739,-0.7853672469413906
2025-03-24 19:08:22.739,1.5877734075528664
2025-03-24 19:08:22.748,1.426463097773398
2025-03-24 19:08:22.748,-1.105545802409194
2025-03-24 19:08:22.748,-2.172987186299764
2025-03-24 19:08:22.749,0.06858032936711123
2025-03-24 19:08:22.749,2.6219115186882775
2025-03-24 19:08:22.757,1.7992675208716955
2025-03-24 19:08:22.757,-1.5330196517066281
2025-03-24 19:08:22.757,-2.9893490175523003
2025-03-24 19:08:22.757,-0.5919184272192811
2025-03-24 19:08:22.757,2.5319174503365294
2025-03-24 19:08:22.766,2.373313312788186
2025-03-24 19:08:22.767,-0.6530128708422476
2025-03-24 19:08:22.767,-2.5630304540674786
2025-03-24 19:08:22.767,-1.3181662926704525
2025-03-24 19:08:22.778,0.8687619555791619
2025-03-24 19:08:22.778,1.24254043837781
2025-03-24 19:08:22.778,0.29664710930192345
2025-03-24 19:08:22.778,0.20316753458766082
2025-03-24 19:08:22.779,0.9205865982870427
2025-03-24 19:08:22.779,0.3654719449866738
2025-03-24 19:08:22.787,-1.6987778535981826
2025-03-24 19:08:22.787,-2.55116051974691
2025-03-24 19:08:22.787,-0.4316515803844651
2025-03-24 19:08:22.787,2.416716187781409
2025-03-24 19:08:22.787,2.545945667085391
2025-03-24 19:08:22.796,-0.0049695356039039795
2025-03-24 19:08:22.797,-1.9715950349786875
2025-03-24 19:08:22.797,-1.3560430486431185
2025-03-24 19:08:22.797,0.46684316349809984
2025-03-24 19:08:22.806,1.242909099791947
2025-03-24 19:08:22.806,0.553082945712513
2025-03-24 19:08:22.807,-0.5358404632147232
2025-03-24 19:08:22.807,-1.105935307693346
2025-03-24 19:08:22.807,-0.8654340981675002
2025-03-24 19:08:22.816,0.09194342041816893
2025-03-24 19:08:22.816,1.1794513227689158
2025-03-24 19:08:22.816,1.4591687231773252
2025-03-24 19:08:22.817,0.5723937628591899
2025-03-24 19:08:22.817,-0.7051084066824215
2025-03-24 19:08:22.826,-1.281268729370671
2025-03-24 19:08:22.826,-0.8917337770745754
2025-03-24 19:08:22.827,-0.10385804240945386
2025-03-24 19:08:22.827,0.49351836726815124
2025-03-24 19:08:22.827,0.6843698990009475
2025-03-24 19:08:22.836,0.4479325014434072
2025-03-24 19:08:22.836,-0.10198372233022168
2025-03-24 19:08:22.837,-0.5308057972075054
2025-03-24 19:08:22.837,-0.23403960673183252
2025-03-24 19:08:22.837,0.7763676556474283
2025-03-24 19:08:22.846,1.292083752779893
2025-03-24 19:08:22.846,-0.040065177283723365
2025-03-24 19:08:22.846,-2.456519007358728
2025-03-24 19:08:22.847,-2.8873800542237595
2025-03-24 19:08:22.847,0.3392338128277025
2025-03-24 19:08:22.855,4.200304361027636
2025-03-24 19:08:22.855,3.8487215218141095
2025-03-24 19:08:22.855,-0.8792955736123015
2025-03-24 19:08:22.855,-4.537249960691235
2025-03-24 19:08:22.855,-2.973326573608643
2025-03-24 19:08:22.865,1.3166529082588556
2025-03-24 19:08:22.865,2.9414296593676874
2025-03-24 19:08:22.865,0.8587711554933385
2025-03-24 19:08:22.865,-1.1061796765441965
2025-03-24 19:08:22.865,-0.35442828752957767
2025-03-24 19:08:22.874,1.0710586416899188
2025-03-24 19:08:22.875,0.20949057253502998
2025-03-24 19:08:22.875,-2.009546587843964
2025-03-24 19:08:22.875,-2.0303836225291323
2025-03-24 19:08:22.875,0.8897600000062538
2025-03-24 19:08:22.884,3.1513724309746056
2025-03-24 19:08:22.885,1.7683462993702004
2025-03-24 19:08:22.885,-1.3161208398868829
2025-03-24 19:08:22.885,-2.125479833627894
2025-03-24 19:08:22.895,-0.4461127788347339
2025-03-24 19:08:22.895,0.4113431115724145
2025-03-24 19:08:22.895,-0.7316354894059665
2025-03-24 19:08:22.895,-1.1192597689283867
2025-03-24 19:08:22.895,1.068378148996492
2025-03-24 19:08:22.895,3.2643896170411333
2025-03-24 19:08:22.904,2.1198073352093574
2025-03-24 19:08:22.905,-1.4970811495889136
2025-03-24 19:08:22.905,-3.6152979645599004
2025-03-24 19:08:22.905,-2.3290619348769006
2025-03-24 19:08:22.914,0.42849073276953215
2025-03-24 19:08:22.914,2.0143511528547298
2025-03-24 19:08:22.915,1.9049056993611349
2025-03-24 19:08:22.915,1.0151950359081967
2025-03-24 19:08:22.915,-0.0815423977303672
2025-03-24 19:08:22.924,-1.1982594123685313
2025-03-24 19:08:22.925,-1.711374834672537
2025-03-24 19:08:22.925,-0.929221155816813
2025-03-24 19:08:22.925,0.7237488143781088
2025-03-24 19:08:22.925,1.7056844333553571
2025-03-24 19:08:22.934,0.9701989671774216
2025-03-24 19:08:22.935,-0.739984479997449
2025-03-24 19:08:22.935,-1.6620645875271012
2025-03-24 19:08:22.935,-0.9455710650205258
2025-03-24 19:08:22.935,0.6366314463179875
2025-03-24 19:08:22.944,1.769091839075876
2025-03-24 19:08:22.944,1.7362367082060581
2025-03-24 19:08:22.944,0.5131552084733625
2025-03-24 19:08:22.945,-1.4044594070547691
2025-03-24 19:08:22.945,-2.8766475897586603
2025-03-24 19:08:22.954,-2.545595199018761
2025-03-24 19:08:22.954,-0.13562633824703707
2025-03-24 19:08:22.955,2.786441629849402
2025-03-24 19:08:22.955,3.899007202839016
2025-03-24 19:08:22.955,2.2373548578897684
2025-03-24 19:08:22.964,-0.8711657308254686
2025-03-24 19:08:22.964,-3.0657609158989563
2025-03-24 19:08:22.964,-3.0411927903740374
2025-03-24 19:08:22.965,-1.3689678871365483
2025-03-24 19:08:22.965,0.44025693085748496
2025-03-24 19:08:22.974,1.409726912059909
2025-03-24 19:08:22.974,1.7350177446037716
2025-03-24 19:08:22.975,2.039633217664232
2025-03-24 19:08:22.975,1.9814071322960574
2025-03-24 19:08:22.975,0.23732027508369755
2025-03-24 19:08:22.984,-3.1952345008891165
2025-03-24 19:08:22.984,-5.299541601088493
2025-03-24 19:08:22.985,-2.722745075674936
2025-03-24 19:08:22.985,3.288739649496911
2025-03-24 19:08:22.985,6.815021763480338
2025-03-24 19:08:22.994,3.8173846807462612
2025-03-24 19:08:22.994,-2.6659783262639634
2025-03-24 19:08:22.994,-5.942995900967722
2025-03-24 19:08:22.995,-3.4456095104398354
2025-03-24 19:08:22.995,1.1763217075702181
2025-03-24 19:08:23.004,3.390246848265549
2025-03-24 19:08:23.004,2.5907386880958363
2025-03-24 19:08:23.004,0.907884124432797
2025-03-24 19:08:23.005,-0.4033416601583978
2025-03-24 19:08:23.005,-1.572816527776278
2025-03-24 19:08:23.013,-2.4510738642859393
2025-03-24 19:08:23.013,-2.0065766281931596
2025-03-24 19:08:23.013,0.09097366644680041
2025-03-24 19:08:23.013,2.452540050056712
2025-03-24 19:08:23.013,3.145665445953929
2025-03-24 19:08:23.023,1.612129918984174
2025-03-24 19:08:23.023,-0.9504770125150209
2025-03-24 19:08:23.023,-2.8460109768152297
2025-03-24 19:08:23.023,-2.9763755944030286
2025-03-24 19:08:23.032,-1.051552286787313
2025-03-24 19:08:23.032,2.0706181034467774
2025-03-24 19:08:23.033,4.032983295735994
2025-03-24 19:08:23.033,2.4606435271635143
2025-03-24 19:08:23.033,-2.049486295936459
2025-03-24 19:08:23.042,-5.275612502041271
2025-03-24 19:08:23.043,-3.2854299392280595
2025-03-24 19:08:23.043,2.7658444816112193
2025-03-24 19:08:23.043,6.884055691261349
2025-03-24 19:08:23.043,4.2554523444939685
2025-03-24 19:08:23.052,-3.178149846115411
2025-03-24 19:08:23.052,-8.107764697247049
2025-03-24 19:08:23.053,-5.322883825627416
2025-03-24 19:08:23.053,2.644556540962406
2025-03-24 19:08:23.053,7.952007715506066
2025-03-24 19:08:23.062,5.500885798056164
2025-03-24 19:08:23.062,-1.8828279795310587
2025-03-24 19:08:23.063,-6.544747311097756
2025-03-24 19:08:23.063,-4.074604792706641
2025-03-24 19:08:23.063,2.184547592299835
2025-03-24 19:08:23.072,5.056359531175242
2025-03-24 19:08:23.072,1.636401521359541
2025-03-24 19:08:23.073,-3.5746960535598387
2025-03-24 19:08:23.073,-4.239258993992197
2025-03-24 19:08:23.073,0.2036727886552882
2025-03-24 19:08:23.082,4.2648890910252995
2025-03-24 19:08:23.082,3.551176832745898
2025-03-24 19:08:23.082,-0.21797494962245184
2025-03-24 19:08:23.083,-2.4854372432154896
2025-03-24 19:08:23.083,-1.9606508161875151
2025-03-24 19:08:23.092,-1.041095306362268
2025-03-24 19:08:23.092,-1.1738243006838835
2025-03-24 19:08:23.092,-0.7430252064732271
2025-03-24 19:08:23.093,1.698523978828075
2025-03-24 19:08:23.093,4.205579615910768
2025-03-24 19:08:23.101,3.349892431857824
2025-03-24 19:08:23.101,-1.0508708542797225
2025-03-24 19:08:23.101,-4.85100380302188
2025-03-24 19:08:23.101,-4.073960057603766
2025-03-24 19:08:23.101,0.3668775621947573
2025-03-24 19:08:23.111,3.650131746733654
2025-03-24 19:08:23.111,2.6174603985702465
2025-03-24 19:08:23.111,-0.8270707642066262
2025-03-24 19:08:23.111,-2.3925332191992266
2025-03-24 19:08:23.111,-0.5896542897973803
2025-03-24 19:08:23.120,1.8711576919016752
2025-03-24 19:08:23.121,1.8146187984958673
2025-03-24 19:08:23.121,-0.47164900359436535
2025-03-24 19:08:23.121,-1.9794151352761136
2025-03-24 19:08:23.130,-1.0807958731346998
2025-03-24 19:08:23.131,0.5809403388122507
2025-03-24 19:08:23.131,0.7118583150174133
2025-03-24 19:08:23.131,-0.43437904010519457
2025-03-24 19:08:23.131,-0.7080165679491119
2025-03-24 19:08:23.140,0.6826928855665392
2025-03-24 19:08:23.141,2.0157641257104544
2025-03-24 19:08:23.141,1.35738471383288
2025-03-24 19:08:23.141,-0.9665217484736889
2025-03-24 19:08:23.141,-2.6919561631569673
2025-03-24 19:08:23.150,-2.03751051182561
2025-03-24 19:08:23.151,0.455225485983057
2025-03-24 19:08:23.151,2.4246699758492385
2025-03-24 19:08:23.151,2.0580130569145414
2025-03-24 19:08:23.151,-0.0700729999674406
2025-03-24 19:08:23.160,-1.7509937124974377
2025-03-24 19:08:23.160,-1.6079280110063623
2025-03-24 19:08:23.161,-0.26988119261963156
2025-03-24 19:08:23.161,0.911495104192263
2025-03-24 19:08:23.161,1.4168875909369514
2025-03-24 19:08:23.170,1.2935637480654825
2025-03-24 19:08:23.170,0.26805139867992794
2025-03-24 19:08:23.171,-1.59456352573564
2025-03-24 19:08:23.171,-2.769718937397884
2025-03-24 19:08:23.171,-1.5172510104966321
2025-03-24 19:08:23.180,1.4486184670098303
2025-03-24 19:08:23.180,3.141324336525566
2025-03-24 19:08:23.180,1.9083151748405225
2025-03-24 19:08:23.181,-0.5133808430623273
2025-03-24 19:08:23.181,-1.5081170942720847
2025-03-24 19:08:23.190,-0.9020566715731978
2025-03-24 19:08:23.190,-0.4512355306310257
2025-03-24 19:08:23.191,-0.8658618175432303
2025-03-24 19:08:23.191,-0.9663510198099841
2025-03-24 19:08:23.191,0.24655593588258345
2025-03-24 19:08:23.200,1.9586921684133445
2025-03-24 19:08:23.200,2.4266188193731884
2025-03-24 19:08:23.200,0.9436948894457913
2025-03-24 19:08:23.201,-1.3351743535902596
2025-03-24 19:08:23.201,-2.4008765790548345
2025-03-24 19:08:23.208,-1.3940934240955167
2025-03-24 19:08:23.209,0.3561818425453859
2025-03-24 19:08:23.209,0.8475019005748015
2025-03-24 19:08:23.209,-0.003536902886671578
2025-03-24 19:08:23.209,-0.2919348977903492
2025-03-24 19:08:23.218,0.9874509628653297
2025-03-24 19:08:23.218,2.206569169864621
2025-03-24 19:08:23.219,1.2183637548103878
2025-03-24 19:08:23.219,-1.5769716574973893
2025-03-24 19:08:23.228,-3.4268850133211357
2025-03-24 19:08:23.229,-2.3597296076250442
2025-03-24 19:08:23.229,0.6769050531433567
2025-03-24 19:08:23.229,2.960050682472712
2025-03-24 19:08:23.229,2.774967895873948
2025-03-24 19:08:23.238,0.7536919961581131
2025-03-24 19:08:23.238,-1.2704161908479
2025-03-24 19:08:23.239,-2.145424679346403
2025-03-24 19:08:23.239,-1.8788239251483456
2025-03-24 19:08:23.239,-0.7710067964686386
2025-03-24 19:08:23.248,0.9752033479732851
2025-03-24 19:08:23.248,2.550324763189872
2025-03-24 19:08:23.249,2.444858936583992
2025-03-24 19:08:23.249,0.10681551564025064
2025-03-24 19:08:23.249,-2.667624731974787
2025-03-24 19:08:23.258,-3.2095233984285843
2025-03-24 19:08:23.259,-1.019967049137498
2025-03-24 19:08:23.259,1.672410817963546
2025-03-24 19:08:23.259,2.666599387428828
2025-03-24 19:08:23.259,1.9648206598824716
2025-03-24 19:08:23.268,0.6727033830330873
2025-03-24 19:08:23.269,-0.8691243129028388
2025-03-24 19:08:23.269,-2.5637070280978485
2025-03-24 19:08:23.269,-3.219165920122553
2025-03-24 19:08:23.269,-1.5696366126113601
2025-03-24 19:08:23.278,1.6079513648439479
2025-03-24 19:08:23.279,3.9351809892517746
2025-03-24 19:08:23.279,3.9092023002341403
2025-03-24 19:08:23.279,1.7008344790938488
2025-03-24 19:08:23.279,-1.9209082001620537
2025-03-24 19:08:23.288,-5.48618499227576
2025-03-24 19:08:23.288,-6.030272473663552
2025-03-24 19:08:23.289,-1.3661604521379997
2025-03-24 19:08:23.289,5.757725029567193
2025-03-24 19:08:23.289,8.47852381470853
2025-03-24 19:08:23.298,3.263071672727873
2025-03-24 19:08:23.298,-4.886392881600059
2025-03-24 19:08:23.299,-7.465243989838998
2025-03-24 19:08:23.299,-2.3986848097093336
2025-03-24 19:08:23.299,3.7763369736814325
2025-03-24 19:08:23.308,4.257936846578168
2025-03-24 19:08:23.308,-0.09313319945580811
2025-03-24 19:08:23.309,-2.999214446139301
2025-03-24 19:08:23.309,-1.2015262499755637
2025-03-24 19:08:23.309,2.1234116438243507
2025-03-24 19:08:23.318,2.342842002618907
2025-03-24 19:08:23.318,-0.6898951273863495
2025-03-24 19:08:23.319,-3.000436738072359
2025-03-24 19:08:23.319,-1.6619279532343327
2025-03-24 19:08:23.319,1.8744864393862906
2025-03-24 19:08:23.328,3.5927384097233053
2025-03-24 19:08:23.328,1.316757447390392
2025-03-24 19:08:23.329,-2.858017965844143
2025-03-24 19:08:23.329,-4.4678243188312745
2025-03-24 19:08:23.329,-1.3597640448635608
2025-03-24 19:08:23.338,3.5163275517414423
2025-03-24 19:08:23.338,4.867057669496645
2025-03-24 19:08:23.339,1.0502969910643487
2025-03-24 19:08:23.339,-3.707575841853676
2025-03-24 19:08:23.339,-4.069451546814682
2025-03-24 19:08:23.348,0.16811307634316103
2025-03-24 19:08:23.348,3.9253822182251197
2025-03-24 19:08:23.348,2.8480002710553936
2025-03-24 19:08:23.349,-1.7625917219132174
2025-03-24 19:08:23.349,-4.6122139151174695
2025-03-24 19:08:23.358,-2.4278972912822665
2025-03-24 19:08:23.358,2.5042596779519712
2025-03-24 19:08:23.359,5.027447190372843
2025-03-24 19:08:23.359,2.780864725851721
2025-03-24 19:08:23.359,-1.62043934049341
2025-03-24 19:08:23.368,-3.9764959524333703
2025-03-24 19:08:23.368,-2.8857769589558617
2025-03-24 19:08:23.369,-0.19136257705373827
2025-03-24 19:08:23.369,1.7551801585970082
2025-03-24 19:08:23.369,2.0800607213909914
2025-03-24 19:08:23.378,1.2203305642298254
2025-03-24 19:08:23.378,-0.006816346581867493
2025-03-24 19:08:23.378,-0.9429906258696779
2025-03-24 19:08:23.379,-1.1217566410531155
2025-03-24 19:08:23.379,-0.2675524365621723
2025-03-24 19:08:23.387,1.1366416199292233
2025-03-24 19:08:23.387,1.474890717270207
2025-03-24 19:08:23.387,-0.46224376542615714
2025-03-24 19:08:23.387,-3.142041726608835
2025-03-24 19:08:23.387,-3.1225286660159153
2025-03-24 19:08:23.397,0.6676423369367922
2025-03-24 19:08:23.397,4.799780767778826
2025-03-24 19:08:23.397,4.922282469597498
2025-03-24 19:08:23.397,0.719961991891982
2025-03-24 19:08:23.397,-3.9198750447906097
2025-03-24 19:08:23.407,-5.196249017997731
2025-03-24 19:08:23.407,-2.7527281059017454
2025-03-24 19:08:23.407,0.9576732970540961
2025-03-24 19:08:23.407,3.4297584565133308
2025-03-24 19:08:23.407,3.7168207188411446
2025-03-24 19:08:23.416,2.035921194174562
2025-03-24 19:08:23.417,-0.9133532899969372
2025-03-24 19:08:23.417,-3.613609251490419
2025-03-24 19:08:23.417,-3.7580933980418365
2025-03-24 19:08:23.426,-0.3986769088430401
2025-03-24 19:08:23.427,3.7871861293660642
2025-03-24 19:08:23.427,4.285196384684535
2025-03-24 19:08:23.427,0.024217103669279316
2025-03-24 19:08:23.427,-4.502604040065851
2025-03-24 19:08:23.437,-4.17408980479106
2025-03-24 19:08:23.437,0.5143179376488505
2025-03-24 19:08:23.437,4.254717815668008
2025-03-24 19:08:23.437,3.6325203292931256
2025-03-24 19:08:23.437,0.4913300544927329
2025-03-24 19:08:23.446,-1.7965090215315869
2025-03-24 19:08:23.447,-2.5746719062270533
2025-03-24 19:08:23.447,-2.785874688265548
2025-03-24 19:08:23.447,-1.9471350800747746
2025-03-24 19:08:23.447,0.9760180517861655
2025-03-24 19:08:23.456,4.440378233312461
2025-03-24 19:08:23.456,4.804124748102931
2025-03-24 19:08:23.457,0.7269893752404887
2025-03-24 19:08:23.457,-4.381234431654954
2025-03-24 19:08:23.457,-5.533854917367894
2025-03-24 19:08:23.466,-1.5719572572071803
2025-03-24 19:08:23.466,3.42321093134586
2025-03-24 19:08:23.466,4.485427799765863
2025-03-24 19:08:23.467,1.0725986438427384
2025-03-24 19:08:23.467,-2.6741761374762727
2025-03-24 19:08:23.476,-2.8269356654920963
2025-03-24 19:08:23.476,0.12815056862198154
2025-03-24 19:08:23.477,2.3704137920784105
2025-03-24 19:08:23.477,1.3494200289854232
2025-03-24 19:08:23.477,-1.4083713685848929
2025-03-24 19:08:23.486,-2.243028435242277
2025-03-24 19:08:23.486,0.13108061292002873
2025-03-24 19:08:23.487,2.7818628263969356
2025-03-24 19:08:23.487,2.038794178558234
2025-03-24 19:08:23.487,-1.6321758932011383
2025-03-24 19:08:23.496,-3.849066740627877
2025-03-24 19:08:23.496,-1.8148560280544555
2025-03-24 19:08:23.497,2.123720465106429
2025-03-24 19:08:23.497,3.6324683755401246
2025-03-24 19:08:23.497,1.715556781472482
2025-03-24 19:08:23.505,-0.9107337856231549
2025-03-24 19:08:23.505,-1.9023597303305502
2025-03-24 19:08:23.505,-1.523579610891037
2025-03-24 19:08:23.505,-0.8741773707731307
2025-03-24 19:08:23.514,-0.102058372414641
2025-03-24 19:08:23.515,0.8463476985671581
2025-03-24 19:08:23.515,1.3011700155288066
2025-03-24 19:08:23.515,0.79839871596171
2025-03-24 19:08:23.515,0.04677822317035982
2025-03-24 19:08:23.515,-0.01843679201012794
2025-03-24 19:08:23.524,0.29336345580214723
2025-03-24 19:08:23.525,-0.18552989618678897
2025-03-24 19:08:23.525,-1.5736538301948648
2025-03-24 19:08:23.525,-2.2180946345715378
2025-03-24 19:08:23.534,-0.6129782913730963
2025-03-24 19:08:23.535,2.2090230752809172
2025-03-24 19:08:23.535,3.2995437371098095
2025-03-24 19:08:23.535,1.2700731750122434
2025-03-24 19:08:23.535,-1.805665964486717
2025-03-24 19:08:23.544,-2.8024023007065804
2025-03-24 19:08:23.545,-1.1272964777090955
2025-03-24 19:08:23.545,1.1091191977182497
2025-03-24 19:08:23.545,1.89305638009445
2025-03-24 19:08:23.545,1.0123188649698653
2025-03-24 19:08:23.554,-0.6825210252227734
2025-03-24 19:08:23.555,-2.1532255106861644
2025-03-24 19:08:23.555,-2.1213539785177136
2025-03-24 19:08:23.555,0.2035464369602633
2025-03-24 19:08:23.555,3.423124249771964
2025-03-24 19:08:23.564,4.2592106444057976
2025-03-24 19:08:23.565,0.9992744558618092
2025-03-24 19:08:23.565,-3.8850320928942494
2025-03-24 19:08:23.565,-5.830885248476328
2025-03-24 19:08:23.565,-2.869220662426979
2025-03-24 19:08:23.574,2.467230006703577
2025-03-24 19:08:23.574,5.698054857717391
2025-03-24 19:08:23.575,4.327400985905838
2025-03-24 19:08:23.575,-0.3060664139330232
2025-03-24 19:08:23.575,-4.285352233249244
2025-03-24 19:08:23.584,-4.380865242162578
2025-03-24 19:08:23.584,-0.8415265388728486
2025-03-24 19:08:23.585,2.863538554535899
2025-03-24 19:08:23.585,3.4031781810774335
2025-03-24 19:08:23.585,0.7386229017938651
2025-03-24 19:08:23.594,-2.194145024058263
2025-03-24 19:08:23.594,-2.6598641182746103
2025-03-24 19:08:23.595,-0.574663962633482
2025-03-24 19:08:23.595,1.943698844799671
2025-03-24 19:08:23.595,2.7354265671478943
2025-03-24 19:08:23.603,1.2023188676980217
2025-03-24 19:08:23.603,-1.455901580416256
2025-03-24 19:08:23.603,-3.0570556627102596
2025-03-24 19:08:23.603,-2.0600366118313262
2025-03-24 19:08:23.603,0.795446410523613
2025-03-24 19:08:23.612,2.764620744802804
2025-03-24 19:08:23.613,1.9329565738278254
2025-03-24 19:08:23.613,-0.43411011450966724
2025-03-24 19:08:23.613,-1.489010210274456
2025-03-24 19:08:23.622,-0.5565210539174812
2025-03-24 19:08:23.623,0.29081486610564194
2025-03-24 19:08:23.623,-0.3557236267952679
2025-03-24 19:08:23.623,-1.1065344143953328
2025-03-24 19:08:23.623,-0.09500824647690566
2025-03-24 19:08:23.632,1.9334470527571228
2025-03-24 19:08:23.633,2.355703352354504
2025-03-24 19:08:23.633,0.08791244444933813
2025-03-24 19:08:23.633,-2.852268222105722
2025-03-24 19:08:23.633,-3.37685756835051
2025-03-24 19:08:23.642,-0.5789014944440798
2025-03-24 19:08:23.643,3.1094649321356282
2025-03-24 19:08:23.643,4.127137984212846
2025-03-24 19:08:23.643,1.4035151125052974
2025-03-24 19:08:23.643,-2.4526364834138925
2025-03-24 19:08:23.652,-3.9233557150712413
2025-03-24 19:08:23.653,-2.120480808008246
2025-03-24 19:08:23.653,0.8977577313862747
2025-03-24 19:08:23.653,2.6417315035351003
2025-03-24 19:08:23.653,2.1953748683414642
2025-03-24 19:08:23.662,0.3578539196819669
2025-03-24 19:08:23.663,-1.1672996990536926
2025-03-24 19:08:23.663,-1.1015058088177818
2025-03-24 19:08:23.663,0.038881699124742305
2025-03-24 19:08:23.663,0.35616442907556334
2025-03-24 19:08:23.672,-0.8688364216891368
2025-03-24 19:08:23.673,-1.768608292115211
2025-03-24 19:08:23.673,-0.2958522525471709
2025-03-24 19:08:23.673,2.442642537652987
2025-03-24 19:08:23.673,3.014828447026629
2025-03-24 19:08:23.682,0.22854932375382103
2025-03-24 19:08:23.682,-2.789573104822683
2025-03-24 19:08:23.683,-2.389775701459569
2025-03-24 19:08:23.683,0.7578716684889389
2025-03-24 19:08:23.683,2.466676007536543
2025-03-24 19:08:23.692,0.5160575977662422
2025-03-24 19:08:23.693,-2.536008266487817
2025-03-24 19:08:23.693,-2.676673842632949
2025-03-24 19:08:23.693,0.6891165971273994
2025-03-24 19:08:23.693,4.08495325635537
2025-03-24 19:08:23.702,3.7129931274700265
2025-03-24 19:08:23.702,-0.5357506743045292
2025-03-24 19:08:23.703,-4.650807435026481
2025-03-24 19:08:23.703,-4.349894839376475
2025-03-24 19:08:23.703,0.239718074963486
2025-03-24 19:08:23.712,4.316311937305746
2025-03-24 19:08:23.712,3.559505057691355
2025-03-24 19:08:23.713,-0.9653317962610883
2025-03-24 19:08:23.713,-4.02528211689278
2025-03-24 19:08:23.713,-2.166923541145707
2025-03-24 19:08:23.722,2.4728723292841366
2025-03-24 19:08:23.722,4.605264840100165
2025-03-24 19:08:23.722,1.6042455211617799
2025-03-24 19:08:23.723,-3.588907866567759
2025-03-24 19:08:23.723,-5.528345515836257
2025-03-24 19:08:23.732,-2.0240113543129095
2025-03-24 19:08:23.732,3.534058731357303
2025-03-24 19:08:23.733,5.700085731555362
2025-03-24 19:08:23.733,2.5029949624757633
2025-03-24 19:08:23.733,-2.7702639704025556
2025-03-24 19:08:23.742,-5.068973610279139
2025-03-24 19:08:23.742,-2.4907921015276258
2025-03-24 19:08:23.743,2.199100761825016
2025-03-24 19:08:23.743,4.489095198621326
2025-03-24 19:08:23.743,2.3826247626499852
2025-03-24 19:08:23.751,-1.9113766189240486
2025-03-24 19:08:23.751,-4.221535182971372
2025-03-24 19:08:23.751,-2.4788767229843494
2025-03-24 19:08:23.751,1.2819781869575408
2025-03-24 19:08:23.751,3.2125755954593096
2025-03-24 19:08:23.761,1.9762597087346516
2025-03-24 19:08:23.761,-0.025307077165026517
2025-03-24 19:08:23.761,-0.29348970230976956
2025-03-24 19:08:23.761,0.16898321655529405
2025-03-24 19:08:23.770,-1.2591667032114984
2025-03-24 19:08:23.771,-3.899598544552376
2025-03-24 19:08:23.771,-3.546706428236304
2025-03-24 19:08:23.771,1.6004402517044218
2025-03-24 19:08:23.771,6.989256247844906
2025-03-24 19:08:23.780,6.278914306526121
2025-03-24 19:08:23.780,-0.719809693277274
2025-03-24 19:08:23.781,-7.1703798804387855
2025-03-24 19:08:23.781,-6.832017975808935
2025-03-24 19:08:23.781,-0.6956710283283769
2025-03-24 19:08:23.790,4.934170674295459
2025-03-24 19:08:23.790,5.472334343625711
2025-03-24 19:08:23.791,1.7762900624219267
2025-03-24 19:08:23.791,-2.187792195007945
2025-03-24 19:08:23.791,-3.5581896813402505
2025-03-24 19:08:23.800,-2.2560444782158493
2025-03-24 19:08:23.801,0.1274262154265154
2025-03-24 19:08:23.801,1.9546053722602985
2025-03-24 19:08:23.801,2.289831943849624
2025-03-24 19:08:23.801,1.1108370301055204
2025-03-24 19:08:23.810,-0.645086823509854
2025-03-24 19:08:23.811,-1.6631314669167523
2025-03-24 19:08:23.811,-1.3979807939495241
2025-03-24 19:08:23.811,-0.4956306214303472
2025-03-24 19:08:23.811,0.17227382847645167
2025-03-24 19:08:23.820,0.5480019602121983
2025-03-24 19:08:23.821,1.03350276059783
2025-03-24 19:08:23.821,1.4002750799303398
2025-03-24 19:08:23.821,0.8409856681652669
2025-03-24 19:08:23.821,-0.6509335026580015
2025-03-24 19:08:23.830,-1.7107871942145818
2025-03-24 19:08:23.830,-1.2046872340016295
2025-03-24 19:08:23.831,0.0438390865704786
2025-03-24 19:08:23.831,0.27736892790008094
2025-03-24 19:08:23.831,-0.522819111378729
2025-03-24 19:08:23.840,-0.40232272931689705
2025-03-24 19:08:23.841,1.5984228617418017
2025-03-24 19:08:23.841,3.475574437762262
2025-03-24 19:08:23.841,2.3505775723340916
2025-03-24 19:08:23.841,-1.8723515961938044
2025-03-24 19:08:23.850,-5.725142402095681
2025-03-24 19:08:23.850,-5.2246905662023675
2025-03-24 19:08:23.851,0.14354742930267914
2025-03-24 19:08:23.851,6.191268173375119
2025-03-24 19:08:23.851,7.271063428641666
2025-03-24 19:08:23.860,1.819461200657602
2025-03-24 19:08:23.860,-5.317968364384172
2025-03-24 19:08:23.861,-7.261328755633416
2025-03-24 19:08:23.861,-2.2887684970712843
2025-03-24 19:08:23.861,4.237011849536029
2025-03-24 19:08:23.869,5.75124449155534
2025-03-24 19:08:23.869,1.4671542233862154
2025-03-24 19:08:23.869,-3.456526466384108
2025-03-24 19:08:23.869,-4.1051402076937515
2025-03-24 19:08:23.869,-0.7504784421327828
2025-03-24 19:08:23.879,2.5393133329747517
2025-03-24 19:08:23.879,2.82613333431352
2025-03-24 19:08:23.879,0.7721224767450208
2025-03-24 19:08:23.879,-1.1664835938513833
2025-03-24 19:08:23.879,-1.5856255734253304
2025-03-24 19:08:23.889,-0.8337249200425614
2025-03-24 19:08:23.889,0.07713158737492012
2025-03-24 19:08:23.889,0.39100133906633
2025-03-24 19:08:23.889,-0.05111225483037332
2025-03-24 19:08:23.889,-0.5092627839528069
2025-03-24 19:08:23.899,0.2276169449717622
2025-03-24 19:08:23.899,2.066029298520145
2025-03-24 19:08:23.899,2.66672079168828
2025-03-24 19:08:23.899,-0.05716949925357423
2025-03-24 19:08:23.900,-4.292563317753363
2025-03-24 19:08:23.909,-5.157653654198401
2025-03-24 19:08:23.909,-0.506284984704573
2025-03-24 19:08:23.909,5.4339931547604685
2025-03-24 19:08:23.909,6.223174048975457
2025-03-24 19:08:23.909,0.7998656478689996
2025-03-24 19:08:23.919,-4.989131762491299
2025-03-24 19:08:23.919,-5.1451942988150865
2025-03-24 19:08:23.919,-0.31941800611635196
2025-03-24 19:08:23.919,3.5470903972737426
2025-03-24 19:08:23.919,2.5871533098679986
2025-03-24 19:08:23.929,-0.9055097660399032
2025-03-24 19:08:23.929,-2.135851972031587
2025-03-24 19:08:23.929,0.07521187931908796
2025-03-24 19:08:23.929,2.3278022396597007
2025-03-24 19:08:23.929,1.3977537488360952
2025-03-24 19:08:23.939,-1.6789130601847415
2025-03-24 19:08:23.939,-3.1625505864792207
2025-03-24 19:08:23.939,-1.396419493854724
2025-03-24 19:08:23.939,1.4769861789434533
2025-03-24 19:08:23.948,2.6915880751225374
2025-03-24 19:08:23.948,2.0566445078542204
2025-03-24 19:08:23.949,0.8980835295372978
2025-03-24 19:08:23.949,-0.6390212867533508
2025-03-24 19:08:23.949,-3.008245149998924
2025-03-24 19:08:23.958,-4.608380073235019
2025-03-24 19:08:23.959,-2.5510643907097266
2025-03-24 19:08:23.959,2.9752902046302623
2025-03-24 19:08:23.959,7.231293980052385
2025-03-24 19:08:23.959,5.642380974716387
2025-03-24 19:08:23.968,-0.8195745858501032
2025-03-24 19:08:23.968,-6.470098039646161
2025-03-24 19:08:23.969,-6.838846193370999
2025-03-24 19:08:23.969,-2.5679987127141097
2025-03-24 19:08:23.969,2.393452164312047
2025-03-24 19:08:23.978,4.963929989382504
2025-03-24 19:08:23.979,4.672531364529976
2025-03-24 19:08:23.979,2.436759732216889
2025-03-24 19:08:23.979,-0.8026727025347047
2025-03-24 19:08:23.979,-3.918474300388801
2025-03-24 19:08:23.988,-5.165262607045507
2025-03-24 19:08:23.989,-3.219904444929835
2025-03-24 19:08:23.989,1.0529713742843203
2025-03-24 19:08:23.989,4.669243694115016
2025-03-24 19:08:23.989,5.0390154635829525
2025-03-24 19:08:23.998,2.186377095601418
2025-03-24 19:08:23.998,-1.7501848616818538
2025-03-24 19:08:23.999,-4.502476600712921
2025-03-24 19:08:23.999,-4.655926537147023
2025-03-24 19:08:23.999,-1.8046728908592373
2025-03-24 19:08:24.008,2.7386403447424565
2025-03-24 19:08:24.008,5.760590470646132
2025-03-24 19:08:24.008,4.428433413061677
2025-03-24 19:08:24.009,-0.5903952059073302
2025-03-24 19:08:24.009,-5.160896974357226
2025-03-24 19:08:24.018,-5.483897522390035
2025-03-24 19:08:24.018,-1.6187415482809353
2025-03-24 19:08:24.019,2.9520943962122814
2025-03-24 19:08:24.019,4.833819305875299
2025-03-24 19:08:24.019,3.405675711025094
2025-03-24 19:08:24.026,0.3527184375550113
2025-03-24 19:08:24.027,-2.47928191088498
2025-03-24 19:08:24.027,-4.053664304903258
2025-03-24 19:08:24.027,-3.6184803122098215
2025-03-24 19:08:24.036,-0.8109401950716522
2025-03-24 19:08:24.037,3.075811781400134
2025-03-24 19:08:24.037,5.108393444139135
2025-03-24 19:08:24.037,3.3427686441356883
2025-03-24 19:08:24.037,-0.7973335789120246
2025-03-24 19:08:24.046,-3.8047835348734544
2025-03-24 19:08:24.047,-3.710065123831741
2025-03-24 19:08:24.047,-1.5331571441157634
2025-03-24 19:08:24.047,0.7205741574943253
2025-03-24 19:08:24.047,2.16599582097528
2025-03-24 19:08:24.056,2.6959844083311553
2025-03-24 19:08:24.057,1.8824659225734175
2025-03-24 19:08:24.057,-0.4224516904793808
2025-03-24 19:08:24.057,-2.73306668174949
2025-03-24 19:08:24.057,-2.6712808717634564
2025-03-24 19:08:24.066,0.11123905269653275
2025-03-24 19:08:24.067,2.633360247385739
2025-03-24 19:08:24.067,1.7651877027439768
2025-03-24 19:08:24.067,-1.4220482536418122
2025-03-24 19:08:24.067,-2.530473513878488
2025-03-24 19:08:24.076,0.19236837040541338
2025-03-24 19:08:24.077,3.01694337681915
2025-03-24 19:08:24.077,1.7345473108642355
2025-03-24 19:08:24.077,-2.2806340571609236
2025-03-24 19:08:24.077,-3.7478618020285968
2025-03-24 19:08:24.086,-0.5743821314750288
2025-03-24 19:08:24.087,3.5186416032391454
2025-03-24 19:08:24.087,3.909715300164328
2025-03-24 19:08:24.087,0.42238603024782967
2025-03-24 19:08:24.087,-3.2664837299610867
2025-03-24 19:08:24.096,-4.054461471955072
2025-03-24 19:08:24.097,-1.912863776014784
2025-03-24 19:08:24.097,1.243087419277339
2025-03-24 19:08:24.097,3.5960986431129824
2025-03-24 19:08:24.097,4.0491991600188015
2025-03-24 19:08:24.106,2.0567943107675264
2025-03-24 19:08:24.107,-1.7915021267683482
2025-03-24 19:08:24.107,-5.057666110944501
2025-03-24 19:08:24.107,-4.788136843150736
2025-03-24 19:08:24.107,-0.6335031090921631
2025-03-24 19:08:24.116,3.9948995278473407
2025-03-24 19:08:24.116,5.04003573155784
2025-03-24 19:08:24.116,1.9826768481950172
2025-03-24 19:08:24.117,-1.8644524479985314
2025-03-24 19:08:24.117,-3.076022219206781
2025-03-24 19:08:24.125,-1.3549555357365528
2025-03-24 19:08:24.125,0.8311906903994712
2025-03-24 19:08:24.125,1.0891999514958615
2025-03-24 19:08:24.125,-0.5517325063779758
2025-03-24 19:08:24.125,-1.7869961390118665
2025-03-24 19:08:24.135,-0.6118435475096508
2025-03-24 19:08:24.135,2.13307863174106
2025-03-24 19:08:24.135,3.3273682514832177
2025-03-24 19:08:24.135,1.1605197392048263
2025-03-24 19:08:24.136,-2.380152556635841
2025-03-24 19:08:24.145,-3.546875259527406
2025-03-24 19:08:24.145,-1.2802298001082222
2025-03-24 19:08:24.145,1.535634696875179
2025-03-24 19:08:24.145,1.848789777970021
2025-03-24 19:08:24.154,0.30339572607920307
2025-03-24 19:08:24.155,-0.17075626344236547
2025-03-24 19:08:24.155,0.99306150534392
2025-03-24 19:08:24.155,1.0922730958534395
2025-03-24 19:08:24.155,-1.3997502062904206
2025-03-24 19:08:24.165,-3.6980748470564313
2025-03-24 19:08:24.165,-2.0655414114667643
2025-03-24 19:08:24.165,2.68784436936193
2025-03-24 19:08:24.165,5.420889018720695
2025-03-24 19:08:24.165,2.701802327400951
2025-03-24 19:08:24.174,-3.0080261582370764
2025-03-24 19:08:24.175,-6.043747273278992
2025-03-24 19:08:24.175,-3.5408533361684813
2025-03-24 19:08:24.175,2.01998075804343
2025-03-24 19:08:24.175,5.70283900961465
2025-03-24 19:08:24.184,4.650865287402155
2025-03-24 19:08:24.184,-0.008825295831546759
2025-03-24 19:08:24.185,-4.565050646214347
2025-03-24 19:08:24.185,-5.527848113271588
2025-03-24 19:08:24.185,-2.0896333178214768
2025-03-24 19:08:24.194,3.042046475799285
2025-03-24 19:08:24.194,5.5537697832082005
2025-03-24 19:08:24.195,3.2883964166616466
2025-03-24 19:08:24.195,-1.6536296901597696
2025-03-24 19:08:24.195,-4.859098003037097
2025-03-24 19:08:24.204,-3.6270190809424627
2025-03-24 19:08:24.204,0.8016919502347594
2025-03-24 19:08:24.205,4.415095710093489
2025-03-24 19:08:24.205,3.8450981465997724
2025-03-24 19:08:24.205,-0.47605292298589375
2025-03-24 19:08:24.214,-4.348983862797086
2025-03-24 19:08:24.215,-3.8975211407622816
2025-03-24 19:08:24.215,0.14934491530286842
2025-03-24 19:08:24.215,3.3173945598117665
2025-03-24 19:08:24.215,2.7889347632625947
2025-03-24 19:08:24.223,0.40841260346291114
2025-03-24 19:08:24.223,-0.6263414487839356
2025-03-24 19:08:24.223,-0.30149946611336875
2025-03-24 19:08:24.223,-0.839503154045086
2025-03-24 19:08:24.223,-2.2274671396611434
2025-03-24 19:08:24.233,-1.8007525947176404
2025-03-24 19:08:24.233,1.1418890190443014
2025-03-24 19:08:24.233,3.2278725307152945
2025-03-24 19:08:24.233,1.4803189801518966
2025-03-24 19:08:24.233,-1.9830202079253574
2025-03-24 19:08:24.243,-2.406218403085771
2025-03-24 19:08:24.243,0.9989246171943431
2025-03-24 19:08:24.243,3.6485614956807577
2025-03-24 19:08:24.243,1.5872662016177663
2025-03-24 19:08:24.243,-3.194946619593592
2025-03-24 19:08:24.253,-5.16024089441175
2025-03-24 19:08:24.253,-1.9658440967914501
2025-03-24 19:08:24.253,3.0445173202093496
2025-03-24 19:08:24.253,5.045829353264477
2025-03-24 19:08:24.253,2.8333764883665076
2025-03-24 19:08:24.262,-0.875984627940149
2025-03-24 19:08:24.263,-2.990914262349451
2025-03-24 19:08:24.263,-2.6665829630770372
2025-03-24 19:08:24.263,-0.9658813118041218
2025-03-24 19:08:24.273,0.5605059567479475
2025-03-24 19:08:24.273,0.8086336169144075
2025-03-24 19:08:24.273,0.032918265945763525
2025-03-24 19:08:24.273,0.11404674487032138
2025-03-24 19:08:24.273,2.253236486908906
2025-03-24 19:08:24.283,4.0206484513386975
2025-03-24 19:08:24.283,1.3024051427028551
2025-03-24 19:08:24.283,-5.257637311743587
2025-03-24 19:08:24.283,-8.575685290659793
2025-03-24 19:08:24.283,-3.147048065183894
2025-03-24 19:08:24.292,6.705681306296994
2025-03-24 19:08:24.293,10.49143020640688
2025-03-24 19:08:24.293,3.8300001013728497
2025-03-24 19:08:24.293,-6.128232364055369
2025-03-24 19:08:24.293,-9.062227074319857
2025-03-24 19:08:24.302,-3.0652031653342204
2025-03-24 19:08:24.308,4.326257017209113
2025-03-24 19:08:24.308,5.664010227010613
2025-03-24 19:08:24.309,1.4638111413059969
2025-03-24 19:08:24.309,-2.2113666974884176
2025-03-24 19:08:24.312,-1.8758628286291936
2025-03-24 19:08:24.312,0.1808185423609629
2025-03-24 19:08:24.313,0.47006613234636857
2025-03-24 19:08:24.313,-0.868049237017743
2025-03-24 19:08:24.313,-1.3580355235121395
2025-03-24 19:08:24.322,-0.216265995845454
2025-03-24 19:08:24.323,1.2707154302758423
2025-03-24 19:08:24.323,2.175886926596485
2025-03-24 19:08:24.323,2.255257837833479
2025-03-24 19:08:24.323,0.676012355694658
2025-03-24 19:08:24.332,-2.7676428877656165
2025-03-24 19:08:24.333,-5.362427889803041
2025-03-24 19:08:24.333,-3.412964225575962
2025-03-24 19:08:24.333,2.580026880077399
2025-03-24 19:08:24.333,6.993074488656973
2025-03-24 19:08:24.341,5.0471246201266275
2025-03-24 19:08:24.341,-1.4065917363098905
2025-03-24 19:08:24.341,-5.79636991163265
2025-03-24 19:08:24.341,-4.313332925013908
2025-03-24 19:08:24.341,0.19535510918466997
2025-03-24 19:08:24.351,2.4807093608764332
2025-03-24 19:08:24.351,1.3971398060254272
2025-03-24 19:08:24.351,0.17591542129277263
2025-03-24 19:08:24.351,0.9376517905051684
2025-03-24 19:08:24.351,1.78464981212578
2025-03-24 19:08:24.361,0.2778493844264031
2025-03-24 19:08:24.361,-2.5165024710368997
2025-03-24 19:08:24.361,-3.3650351228034148
2025-03-24 19:08:24.361,-1.1401651663392676
2025-03-24 19:08:24.370,1.987708857811036
2025-03-24 19:08:24.371,3.24356000259689
2025-03-24 19:08:24.371,1.8907325132433401
2025-03-24 19:08:24.371,-0.6415122349180259
2025-03-24 19:08:24.371,-2.3087761178005186
2025-03-24 19:08:24.380,-2.046814096477383
2025-03-24 19:08:24.381,-0.4010738587472936
2025-03-24 19:08:24.381,1.144942003822481
2025-03-24 19:08:24.381,1.4877231790087568
2025-03-24 19:08:24.381,0.6939701441593231
2025-03-24 19:08:24.390,-0.24249059595379552
2025-03-24 19:08:24.391,-0.38460926455858996
2025-03-24 19:08:24.391,0.13929536740088594
2025-03-24 19:08:24.391,0.21274529925609068
2025-03-24 19:08:24.391,-0.7694147584791445
2025-03-24 19:08:24.401,-1.7717270585239555
2025-03-24 19:08:24.401,-1.252273794867494
2025-03-24 19:08:24.401,0.7493001108964491
2025-03-24 19:08:24.401,2.5490722665453647
2025-03-24 19:08:24.401,2.7798450903679117
2025-03-24 19:08:24.411,1.4699609174530481
2025-03-24 19:08:24.411,-0.7905685670490585
2025-03-24 19:08:24.411,-3.40829619145266
2025-03-24 19:08:24.411,-4.944262978371229
2025-03-24 19:08:24.411,-3.2180970019175232
2025-03-24 19:08:24.420,2.0008992552345943
2025-03-24 19:08:24.421,6.958358885001393
2025-03-24 19:08:24.421,6.736245160897615
2025-03-24 19:08:24.421,0.8070600785432036
2025-03-24 19:08:24.421,-5.669243230235839
2025-03-24 19:08:24.431,-7.039660627096339
2025-03-24 19:08:24.431,-2.818004899121381
2025-03-24 19:08:24.431,2.471832900936372
2025-03-24 19:08:24.431,4.279832720670888
2025-03-24 19:08:24.431,2.148602862005031
2025-03-24 19:08:24.440,-0.6312448270020441
2025-03-24 19:08:24.441,-0.8866839553305235
2025-03-24 19:08:24.441,0.9426884375724777
2025-03-24 19:08:24.441,1.483776466461102
2025-03-24 19:08:24.441,-1.0655413650631864
2025-03-24 19:08:24.450,-4.054756295672902
2025-03-24 19:08:24.451,-3.3656482461259727
2025-03-24 19:08:24.451,1.1643387361247575
2025-03-24 19:08:24.451,5.038395341926526
2025-03-24 19:08:24.451,4.201899248124163
2025-03-24 19:08:24.460,-0.4053140054913811
2025-03-24 19:08:24.461,-4.089148112325973
2025-03-24 19:08:24.461,-3.533610468302659
2025-03-24 19:08:24.461,0.019720616151625875
2025-03-24 19:08:24.461,2.643344961047633
2025-03-24 19:08:24.470,2.165986454122552
2025-03-24 19:08:24.471,0.05253414097731718
2025-03-24 19:08:24.471,-1.1877801616359194
2025-03-24 19:08:24.471,-1.2184978402865427
2025-03-24 19:08:24.471,-1.1982480814279792
2025-03-24 19:08:24.480,-0.8235645230841111
2025-03-24 19:08:24.481,1.3485193259720956
2025-03-24 19:08:24.481,4.176803181352096
2025-03-24 19:08:24.481,3.5526600450722805
2025-03-24 19:08:24.481,-2.015768304154281
2025-03-24 19:08:24.490,-7.49339083608188
2025-03-24 19:08:24.490,-6.2078294159192025
2025-03-24 19:08:24.491,1.7557582000062877
2025-03-24 19:08:24.491,8.775426080441571
2025-03-24 19:08:24.491,7.8658738498816705
2025-03-24 19:08:24.499,-0.03713111460507884
2025-03-24 19:08:24.499,-7.495917721457202
2025-03-24 19:08:24.499,-8.107268378431696
2025-03-24 19:08:24.499,-2.0742303584230513
2025-03-24 19:08:24.499,4.88102784306105
2025-03-24 19:08:24.509,7.171471002998679
2025-03-24 19:08:24.509,3.7968961446084695
2025-03-24 19:08:24.509,-1.9451667640762107
2025-03-24 19:08:24.509,-5.8261822777920935
2025-03-24 19:08:24.519,-5.42273619844779
2025-03-24 19:08:24.519,-1.0117867948626202
2025-03-24 19:08:24.519,4.514925793962645
2025-03-24 19:08:24.519,6.888476037460595
2025-03-24 19:08:24.519,3.566184787843781
2025-03-24 19:08:24.519,-3.175574073721693
2025-03-24 19:08:24.529,-7.204491710124351
2025-03-24 19:08:24.529,-4.439591292781693
2025-03-24 19:08:24.529,2.135693372740979
2025-03-24 19:08:24.529,5.3601017635763615
2025-03-24 19:08:24.529,2.449550476641213
2025-03-24 19:08:24.539,-1.7796819487132902
2025-03-24 19:08:24.539,-1.822422691667248
2025-03-24 19:08:24.539,1.1299345135415826
2025-03-24 19:08:24.539,1.8210968490023522
2025-03-24 19:08:24.548,-0.9485957005017548
2025-03-24 19:08:24.549,-3.0246125954926395
2025-03-24 19:08:24.549,-1.5993737670967276
2025-03-24 19:08:24.549,0.9157236596537177
2025-03-24 19:08:24.549,1.3077315101906422
2025-03-24 19:08:24.558,0.5347347897037997
2025-03-24 19:08:24.559,1.2910034997152788
2025-03-24 19:08:24.559,2.624885589760384
2025-03-24 19:08:24.559,1.0296340429512159
2025-03-24 19:08:24.559,-3.2510299787283015
2025-03-24 19:08:24.568,-5.178772744128159
2025-03-24 19:08:24.569,-1.8254169203089474
2025-03-24 19:08:24.569,3.0568151798883654
2025-03-24 19:08:24.569,4.081552398365518
2025-03-24 19:08:24.569,1.3719190936444652
2025-03-24 19:08:24.578,-0.7589501631916649
2025-03-24 19:08:24.579,-0.6841699105016518
2025-03-24 19:08:24.579,-0.8152922682245061
2025-03-24 19:08:24.579,-2.1717514911550255
2025-03-24 19:08:24.579,-2.026182359181597
2025-03-24 19:08:24.588,1.2164629794240445
2025-03-24 19:08:24.588,4.243693510314039
2025-03-24 19:08:24.589,2.9450787054330956
2025-03-24 19:08:24.589,-1.620966267010026
2025-03-24 19:08:24.589,-4.482350520981192
2025-03-24 19:08:24.598,-3.1458048454261345
2025-03-24 19:08:24.599,0.1582950888216905
2025-03-24 19:08:24.599,2.4468281833748717
2025-03-24 19:08:24.599,3.257401206677095
2025-03-24 19:08:24.599,3.106948823694944
2025-03-24 19:08:24.608,1.3120520948199796
2025-03-24 19:08:24.609,-2.4703278738292043
2025-03-24 19:08:24.609,-5.742948354556298
2025-03-24 19:08:24.609,-4.826485574635355
2025-03-24 19:08:24.609,0.44929512406556493
2025-03-24 19:08:24.618,5.482409194301546
2025-03-24 19:08:24.618,5.643556904099056
2025-03-24 19:08:24.619,1.4421579133960338
2025-03-24 19:08:24.619,-2.473517832586795
2025-03-24 19:08:24.619,-3.042394306727283
2025-03-24 19:08:24.627,-1.674681751839629
2025-03-24 19:08:24.627,-1.0313811970880844
2025-03-24 19:08:24.627,-0.9619707337492092
2025-03-24 19:08:24.627,0.49984748367167037
2025-03-24 19:08:24.628,3.0315938104515885
2025-03-24 19:08:24.637,3.5058674882036707
2025-03-24 19:08:24.637,0.3807593544548191
2025-03-24 19:08:24.637,-3.377838524199825
2025-03-24 19:08:24.637,-3.59115575328229
2025-03-24 19:08:24.647,-0.13611807228026573
2025-03-24 19:08:24.647,3.021536684960089
2025-03-24 19:08:24.647,2.727043786413714
2025-03-24 19:08:24.647,-0.22009332022455677
2025-03-24 19:08:24.647,-2.750320414922483
2025-03-24 19:08:24.657,-2.7089172827968415
2025-03-24 19:08:24.657,-0.2544183715047648
2025-03-24 19:08:24.657,2.5300792683379556
2025-03-24 19:08:24.657,3.2134163304096246
2025-03-24 19:08:24.657,1.1739517505952903
2025-03-24 19:08:24.667,-1.7020132235734242
2025-03-24 19:08:24.667,-2.943954257797042
2025-03-24 19:08:24.667,-1.8315063587338458
2025-03-24 19:08:24.667,0.42059775070725025
2025-03-24 19:08:24.667,2.057601093432868
2025-03-24 19:08:24.676,1.9598052275407492
2025-03-24 19:08:24.677,0.26116832590152783
2025-03-24 19:08:24.677,-1.568160572991727
2025-03-24 19:08:24.677,-1.8061040090416025
2025-03-24 19:08:24.677,-0.21772493029281623
2025-03-24 19:08:24.686,1.5926112293651626
2025-03-24 19:08:24.687,1.8823070794651091
2025-03-24 19:08:24.687,0.48392657741842854
2025-03-24 19:08:24.687,-1.3472679536741823
2025-03-24 19:08:24.687,-2.2444278203288346
2025-03-24 19:08:24.696,-1.5923618373824977
2025-03-24 19:08:24.697,0.28386696433810577
2025-03-24 19:08:24.697,2.2047526785573304
2025-03-24 19:08:24.697,2.7302816413417963
2025-03-24 19:08:24.697,1.2728123764107253
2025-03-24 19:08:24.706,-1.2239567973970964
2025-03-24 19:08:24.707,-2.857689467418535
2025-03-24 19:08:24.707,-2.2718869892607834
2025-03-24 19:08:24.707,0.06333618352076036
2025-03-24 19:08:24.707,2.03483974051341
2025-03-24 19:08:24.716,1.8195696122926928
2025-03-24 19:08:24.717,-0.09767302577805434
2025-03-24 19:08:24.717,-1.3152741758504887
2025-03-24 19:08:24.717,-0.3599629199527702
2025-03-24 19:08:24.717,1.3854590455928941
2025-03-24 19:08:24.725,1.3972209169251768
2025-03-24 19:08:24.725,-0.6478761943238427
2025-03-24 19:08:24.725,-2.357170485778273
2025-03-24 19:08:24.725,-1.680043651216626
2025-03-24 19:08:24.735,0.5667312466876512
2025-03-24 19:08:24.735,1.9084247043119758
2025-03-24 19:08:24.735,1.2032137659583713
2025-03-24 19:08:24.735,-0.40848145227585425
2025-03-24 19:08:24.735,-1.093814751904742
2025-03-24 19:08:24.745,-0.1545797271395769
2025-03-24 19:08:24.745,1.388633247918802
2025-03-24 19:08:24.745,1.6063332529249161
2025-03-24 19:08:24.745,-0.3863876313961201
2025-03-24 19:08:24.745,-2.9438157893205736
2025-03-24 19:08:24.755,-3.16843985041658
2025-03-24 19:08:24.755,-0.21041189001034907
2025-03-24 19:08:24.755,3.3801036739014982
2025-03-24 19:08:24.755,4.151523908562548
2025-03-24 19:08:24.755,1.2807007132358883
2025-03-24 19:08:24.765,-2.6027473576775035
2025-03-24 19:08:24.765,-3.9070824201005503
2025-03-24 19:08:24.765,-1.5024682203195023
2025-03-24 19:08:24.765,2.0883275530527863
2025-03-24 19:08:24.765,3.1678872178816277
2025-03-24 19:08:24.774,0.7691372173502453
2025-03-24 19:08:24.775,-2.3188903092328905
2025-03-24 19:08:24.775,-2.7499189899137653
2025-03-24 19:08:24.775,-0.3154213752877169
2025-03-24 19:08:24.775,2.1891704633870233
2025-03-24 19:08:24.784,2.402315348618192
2025-03-24 19:08:24.785,0.724369159421679
2025-03-24 19:08:24.785,-0.8698667866883915
2025-03-24 19:08:24.785,-1.301608748072004
2025-03-24 19:08:24.785,-1.016060659318152
2025-03-24 19:08:24.794,-0.7738709838986113
2025-03-24 19:08:24.795,-0.6341035494342456
2025-03-24 19:08:24.795,-0.06337046430095883
2025-03-24 19:08:24.795,1.2503819856526799
2025-03-24 19:08:24.795,2.5595849206987262
2025-03-24 19:08:24.803,2.248850119125309
2025-03-24 19:08:24.803,-0.34868858001969927
2025-03-24 19:08:24.803,-3.383511293952127
2025-03-24 19:08:24.803,-3.8774592363981344
2025-03-24 19:08:24.804,-1.046725092293801
2025-03-24 19:08:24.813,2.650437243131305
2025-03-24 19:08:24.813,4.07726959331608
2025-03-24 19:08:24.813,2.2742835763582585
2025-03-24 19:08:24.813,-1.198535663104308
2025-03-24 19:08:24.814,-3.67798109195989
2025-03-24 19:08:24.823,-3.119726641273975
2025-03-24 19:08:24.823,0.24272360790866399
2025-03-24 19:08:24.823,3.5071918042097527
2025-03-24 19:08:24.824,3.4991322451441245
2025-03-24 19:08:24.824,0.18442226761968777
2025-03-24 19:08:24.833,-3.0988503538736833
2025-03-24 19:08:24.833,-3.3061626264711146
2025-03-24 19:08:24.833,-0.8331914555757673
2025-03-24 19:08:24.833,1.551725796091705
2025-03-24 19:08:24.843,2.1519086097041242
2025-03-24 19:08:24.843,1.6551892769207495
2025-03-24 19:08:24.843,1.159742986945151
2025-03-24 19:08:24.843,0.25955674440768195
2025-03-24 19:08:24.843,-1.8258656311176806
2025-03-24 19:08:24.853,-3.845685179715471
2025-03-24 19:08:24.853,-3.056424976270694
2025-03-24 19:08:24.853,1.066710296056296
2025-03-24 19:08:24.853,4.977066421573667
2025-03-24 19:08:24.853,4.50858275323312
2025-03-24 19:08:24.863,-0.10296309396285089
2025-03-24 19:08:24.863,-4.1626489241429026
2025-03-24 19:08:24.863,-3.8370798044520513
2025-03-24 19:08:24.863,-0.2629021376590394
2025-03-24 19:08:24.863,2.4248992755687073
2025-03-24 19:08:24.872,2.054130873978067
2025-03-24 19:08:24.873,0.08585594654301801
2025-03-24 19:08:24.873,-1.069936629065552
2025-03-24 19:08:24.873,-0.7608310814249742
2025-03-24 19:08:24.873,0.10727470796054366
2025-03-24 19:08:24.883,0.6308012248900544
2025-03-24 19:08:24.883,0.5033847325478326
2025-03-24 19:08:24.883,-0.1877642143109693
2025-03-24 19:08:24.883,-0.8833518603223691
2025-03-24 19:08:24.883,-0.6591297014748789
2025-03-24 19:08:24.893,0.6392443097759541
2025-03-24 19:08:24.893,1.5488772218285003
2025-03-24 19:08:24.893,0.4826620451072975
2025-03-24 19:08:24.893,-1.7590753580223988
2025-03-24 19:08:24.893,-2.3807884875704177
2025-03-24 19:08:24.902,-0.16393309785222865
2025-03-24 19:08:24.903,2.641843041059876
2025-03-24 19:08:24.903,2.9816424597614106
2025-03-24 19:08:24.903,0.5829514678738351
2025-03-24 19:08:24.903,-2.1090271417012043
2025-03-24 19:08:24.913,-2.8635362238078232
2025-03-24 19:08:24.913,-1.5597490397659515
2025-03-24 19:08:24.913,0.4301809962891554
2025-03-24 19:08:24.913,1.7595852472097553
2025-03-24 19:08:24.913,1.858049687964662
2025-03-24 19:08:24.922,0.8734866572905892
2025-03-24 19:08:24.922,-0.47684226874296304
2025-03-24 19:08:24.923,-1.1476113502887608
2025-03-24 19:08:24.923,-0.6125451841423815
2025-03-24 19:08:24.923,0.3253873591836207
2025-03-24 19:08:24.932,0.3042121764605859
2025-03-24 19:08:24.933,-0.6894918682219952
2025-03-24 19:08:24.933,-1.0822843660659802
2025-03-24 19:08:24.933,0.009177555716901875
2025-03-24 19:08:24.933,1.270588424735336
2025-03-24 19:08:24.942,1.0392799831797606
2025-03-24 19:08:24.943,-0.14833378476639134
2025-03-24 19:08:24.943,-0.3700726200801531
2025-03-24 19:08:24.943,0.6238566456615183
2025-03-24 19:08:24.943,0.8814845069953181
2025-03-24 19:08:24.952,-0.7709684968361984
2025-03-24 19:08:24.953,-2.6435731569886967
2025-03-24 19:08:24.953,-2.1675808179343794
2025-03-24 19:08:24.953,0.6793667353067085
2025-03-24 19:08:24.953,3.101179944536194
2025-03-24 19:08:24.961,2.732986091557413
2025-03-24 19:08:24.961,0.31278250686452613
2025-03-24 19:08:24.961,-1.4650097788146612
2025-03-24 19:08:24.961,-1.3113945066840271
2025-03-24 19:08:24.962,-0.5734956077616467
2025-03-24 19:08:24.971,-0.8669985481481115
2025-03-24 19:08:24.971,-1.5373093077948967
2025-03-24 19:08:24.971,-0.6420416991422587
2025-03-24 19:08:24.971,1.8840671722355162
2025-03-24 19:08:24.980,3.53705254418956
2025-03-24 19:08:24.981,2.2654738090849
2025-03-24 19:08:24.981,-0.898084883259435
2025-03-24 19:08:24.981,-3.1002424900418024
2025-03-24 19:08:24.981,-2.833535292365522
2025-03-24 19:08:24.991,-0.9046984959647075
2025-03-24 19:08:24.991,1.1225014388559111
2025-03-24 19:08:24.991,2.2094399529017656
2025-03-24 19:08:24.991,1.8506255841238977
2025-03-24 19:08:24.991,0.21811767978995034
2025-03-24 19:08:25.001,-1.4087760169285404
2025-03-24 19:08:25.001,-1.4866812638742268
2025-03-24 19:08:25.001,-0.03510888006772071
2025-03-24 19:08:25.001,1.1512734852391162
2025-03-24 19:08:25.001,0.6699089750793645
2025-03-24 19:08:25.011,-0.7133167623646042
2025-03-24 19:08:25.011,-1.1151057090054395
2025-03-24 19:08:25.011,-0.02861896830401331
2025-03-24 19:08:25.011,1.0240472067307185
2025-03-24 19:08:25.012,0.5385656064818405
2025-03-24 19:08:25.021,-0.8614856471689668
2025-03-24 19:08:25.021,-1.0892090599825328
2025-03-24 19:08:25.021,0.6038166770770002
2025-03-24 19:08:25.021,2.291419097145668
2025-03-24 19:08:25.021,1.538676056517488
2025-03-24 19:08:25.031,-1.4026598612101047
2025-03-24 19:08:25.031,-3.4776721966860866
2025-03-24 19:08:25.031,-2.231245755375083
2025-03-24 19:08:25.031,1.2726524159621708
2025-03-24 19:08:25.031,3.5316112880969195
2025-03-24 19:08:25.040,2.3923699710412625
2025-03-24 19:08:25.041,-0.7971960195298687
2025-03-24 19:08:25.041,-2.798742303146576
2025-03-24 19:08:25.041,-1.790928714858024
2025-03-24 19:08:25.041,0.9712794833055846
2025-03-24 19:08:25.050,2.490799001564828
2025-03-24 19:08:25.051,1.0688655857649032
2025-03-24 19:08:25.051,-1.7963504606294445
2025-03-24 19:08:25.051,-2.8653663892204624
2025-03-24 19:08:25.051,-0.8145686279680617
2025-03-24 19:08:25.060,2.100381407149368
2025-03-24 19:08:25.061,2.6956713602626836
2025-03-24 19:08:25.061,0.6882718463945986
2025-03-24 19:08:25.061,-1.218124854557701
2025-03-24 19:08:25.061,-1.0367949981885292
2025-03-24 19:08:25.070,0.08286286059663076
2025-03-24 19:08:25.071,-0.041116971657367524
2025-03-24 19:08:25.071,-1.2004920761804458
2025-03-24 19:08:25.071,-1.1706099736180384
2025-03-24 19:08:25.071,0.6687425506425482
2025-03-24 19:08:25.080,2.0660960473878447
2025-03-24 19:08:25.081,1.1416090878733132
2025-03-24 19:08:25.081,-0.7226210938093829
2025-03-24 19:08:25.081,-0.8847261888571254
2025-03-24 19:08:25.081,0.5802462397238819
2025-03-24 19:08:25.089,0.9698792274545197
2025-03-24 19:08:25.089,-0.9234302563560998
2025-03-24 19:08:25.089,-2.7414553818933647
2025-03-24 19:08:25.090,-1.6684671169066607
2025-03-24 19:08:25.090,1.597312276580295
2025-03-24 19:08:25.099,3.514492044339752
2025-03-24 19:08:25.099,2.068406274977632
2025-03-24 19:08:25.099,-0.943379220420905
2025-03-24 19:08:25.099,-2.370225307785833
2025-03-24 19:08:25.109,-1.3793792909973643
2025-03-24 19:08:25.109,0.15565101862777386
2025-03-24 19:08:25.109,0.42679598479854486
2025-03-24 19:08:25.109,-0.1714436627679312
2025-03-24 19:08:25.110,-0.03746630335111727
2025-03-24 19:08:25.118,1.0691840463138604
2025-03-24 19:08:25.119,1.4824550002040333
2025-03-24 19:08:25.119,0.08564803837012383
2025-03-24 19:08:25.119,-1.6956047402187517
2025-03-24 19:08:25.119,-1.6420896449700673
2025-03-24 19:08:25.129,0.1072753874233263
2025-03-24 19:08:25.129,1.3677556543979301
2025-03-24 19:08:25.129,1.1098947863495394
2025-03-24 19:08:25.129,0.319214375370813
2025-03-24 19:08:25.129,-0.34494816688106056
2025-03-24 19:08:25.139,-1.321270013129487
2025-03-24 19:08:25.139,-2.034501266210042
2025-03-24 19:08:25.139,-0.6584425886272556
2025-03-24 19:08:25.139,2.5775013120836117
2025-03-24 19:08:25.139,4.105607066185634
2025-03-24 19:08:25.148,1.2534997196339759
2025-03-24 19:08:25.149,-3.53251150804285
2025-03-24 19:08:25.149,-5.025899829365253
2025-03-24 19:08:25.149,-1.439666700372565
2025-03-24 19:08:25.149,3.479909088965132
2025-03-24 19:08:25.159,4.630283311377926
2025-03-24 19:08:25.159,0.8052125962852217
2025-03-24 19:08:25.159,-4.029622311621559
2025-03-24 19:08:25.159,-4.334159483635065
2025-03-24 19:08:25.159,1.1209353445436072
2025-03-24 19:08:25.168,6.69706311322164
2025-03-24 19:08:25.169,5.222647311431649
2025-03-24 19:08:25.169,-3.1279008578421754
2025-03-24 19:08:25.169,-9.64037477964819
2025-03-24 19:08:25.169,-6.7319281353755445
2025-03-24 19:08:25.177,2.9534120957138494
2025-03-24 19:08:25.177,9.556878781801213
2025-03-24 19:08:25.177,7.139008861721248
2025-03-24 19:08:25.177,-0.6847529002509132
2025-03-24 19:08:25.178,-6.021752026874406
2025-03-24 19:08:25.187,-5.164246002619823
2025-03-24 19:08:25.187,-0.8902298800956034
2025-03-24 19:08:25.187,2.001021381097966
2025-03-24 19:08:25.187,1.6930640965215256
2025-03-24 19:08:25.187,0.0012784779884369157
2025-03-24 19:08:25.197,-0.5890013045424727
2025-03-24 19:08:25.197,0.49416315603454225
2025-03-24 19:08:25.197,1.9609882396403073
2025-03-24 19:08:25.197,2.17908670409798
2025-03-24 19:08:25.198,0.3826149411309189
2025-03-24 19:08:25.207,-2.6206987980160688
2025-03-24 19:08:25.207,-4.435807632284483
2025-03-24 19:08:25.207,-2.844110904379747
2025-03-24 19:08:25.207,1.4720451273429624
2025-03-24 19:08:25.216,4.76079295944962
2025-03-24 19:08:25.217,3.92757581864912
2025-03-24 19:08:25.217,0.05724910821961335
2025-03-24 19:08:25.217,-2.8815465093690684
2025-03-24 19:08:25.217,-2.6356745510134423
2025-03-24 19:08:25.227,-0.6921400367360454
2025-03-24 19:08:25.227,0.4672694248832635
2025-03-24 19:08:25.227,0.5638938129589011
2025-03-24 19:08:25.227,0.8140406145404451
2025-03-24 19:08:25.227,1.1874817469728227
2025-03-24 19:08:25.237,0.40411856141610075
2025-03-24 19:08:25.237,-1.3988347537365893
2025-03-24 19:08:25.237,-2.0328182968357003
