timestamp,bandpass_and_notch
2025-03-24 18:55:02.786,0.2216830000574201
2025-03-24 18:55:02.787,-5.34588659019356
2025-03-24 18:55:02.787,-5.943777234430612
2025-03-24 18:55:02.787,-2.838458384292495
2025-03-24 18:55:02.787,-0.6471107839500505
2025-03-24 18:55:03.788,-0.8511155042754099
2025-03-24 18:55:04.358,-0.43063246196795524
2025-03-24 18:55:04.358,3.0082137021829625
2025-03-24 18:55:04.359,4.789375888551116
2025-03-24 18:55:04.359,-3.447051535877751
2025-03-24 18:55:04.368,-18.15815714039463
2025-03-24 18:55:04.368,-18.638023183422344
2025-03-24 18:55:04.368,8.644663627059057
2025-03-24 18:55:04.368,42.45415052233463
2025-03-24 18:55:04.369,41.67363140124125
2025-03-24 18:55:04.376,-4.5426644723201735
2025-03-24 18:55:04.377,-54.725108462161835
2025-03-24 18:55:04.377,-56.405158068323026
2025-03-24 18:55:04.377,-5.19446901083581
2025-03-24 18:55:04.384,49.00677209949949
2025-03-24 18:55:04.385,55.7440414919854
2025-03-24 18:55:04.385,14.973051561864574
2025-03-24 18:55:04.385,-29.490730966082
2025-03-24 18:55:04.385,-39.695970629586384
2025-03-24 18:55:04.394,-17.712451838358604
2025-03-24 18:55:04.395,7.636367752315469
2025-03-24 18:55:04.395,16.306738287563018
2025-03-24 18:55:04.395,11.767997106134818
2025-03-24 18:55:04.404,6.033020789422298
2025-03-24 18:55:04.404,2.24829013553276
2025-03-24 18:55:04.404,-3.3265375939578106
2025-03-24 18:55:04.404,-9.587810665171311
2025-03-24 18:55:04.405,-9.90240438223707
2025-03-24 18:55:04.414,-2.603352741198042
2025-03-24 18:55:04.414,5.0412374632721
2025-03-24 18:55:04.414,6.0868522517710995
2025-03-24 18:55:04.414,2.5837504532724798
2025-03-24 18:55:04.415,1.2435909657266444
2025-03-24 18:55:04.424,3.195636715075509
2025-03-24 18:55:04.424,2.8670705316070264
2025-03-24 18:55:04.424,-2.934391281506807
2025-03-24 18:55:04.424,-9.178269764299527
2025-03-24 18:55:04.425,-8.410399744062406
2025-03-24 18:55:04.432,-0.27640182570592847
2025-03-24 18:55:04.432,7.859639829835356
2025-03-24 18:55:04.433,9.41585820532354
2025-03-24 18:55:04.433,4.86633211822449
2025-03-24 18:55:04.433,-0.9836669367775938
2025-03-24 18:55:04.442,-4.983475306744561
2025-03-24 18:55:04.442,-6.746335067808326
2025-03-24 18:55:04.443,-5.833866205927594
2025-03-24 18:55:04.443,-1.4219888991398728
2025-03-24 18:55:04.452,4.772111474456328
2025-03-24 18:55:04.452,8.023559052161344
2025-03-24 18:55:04.452,5.128729637404965
2025-03-24 18:55:04.453,-1.4537145736325277
2025-03-24 18:55:04.453,-5.77860243871139
2025-03-24 18:55:04.462,-4.730593740214367
2025-03-24 18:55:04.462,-0.7423744574017475
2025-03-24 18:55:04.462,2.003423572922527
2025-03-24 18:55:04.463,2.2773474667406717
2025-03-24 18:55:04.463,1.5388122271160904
2025-03-24 18:55:04.472,0.6622213345647409
2025-03-24 18:55:04.472,-0.6789205108890581
2025-03-24 18:55:04.473,-1.8935985588576656
2025-03-24 18:55:04.473,-1.3867101156588852
2025-03-24 18:55:04.473,0.7816603235783406
2025-03-24 18:55:04.482,2.175754707871732
2025-03-24 18:55:04.482,1.0297862948159155
2025-03-24 18:55:04.482,-1.2781584520873364
2025-03-24 18:55:04.483,-1.9642826623343261
2025-03-24 18:55:04.483,-0.3759452837534597
2025-03-24 18:55:04.492,1.3469645078946317
2025-03-24 18:55:04.492,1.132857719681891
2025-03-24 18:55:04.492,-0.46488758445674205
2025-03-24 18:55:04.493,-1.2340859777940683
2025-03-24 18:55:04.493,-0.2888214832497535
2025-03-24 18:55:04.502,1.01665287440768
2025-03-24 18:55:04.502,1.1736083338006749
2025-03-24 18:55:04.502,0.3254275956663244
2025-03-24 18:55:04.503,-0.49728338245030046
2025-03-24 18:55:04.503,-0.9252936082412503
2025-03-24 18:55:04.512,-1.1734039915491545
2025-03-24 18:55:04.512,-1.0209748862199932
2025-03-24 18:55:04.512,0.04566021932956786
2025-03-24 18:55:04.513,1.6199551736237023
2025-03-24 18:55:04.513,2.2371490808087304
2025-03-24 18:55:04.520,1.0469180072478876
2025-03-24 18:55:04.521,-0.9008622541193312
2025-03-24 18:55:04.521,-1.7935943723111318
2025-03-24 18:55:04.521,-1.1828664172935797
2025-03-24 18:55:04.521,-0.19436412446206613
2025-03-24 18:55:04.530,0.15278354396912297
2025-03-24 18:55:04.531,-0.02072654055355072
2025-03-24 18:55:04.531,-0.013528958511832369
2025-03-24 18:55:04.531,0.5911794501217342
2025-03-24 18:55:04.531,1.5527510089261356
2025-03-24 18:55:04.540,1.9503050779176194
2025-03-24 18:55:04.540,0.7900990393073694
2025-03-24 18:55:04.541,-1.7611453256349237
2025-03-24 18:55:04.541,-3.8669579054813554
2025-03-24 18:55:04.550,-3.3436037598961503
2025-03-24 18:55:04.550,0.12783087910882207
2025-03-24 18:55:04.551,4.088703113417327
2025-03-24 18:55:04.551,5.030008167495777
2025-03-24 18:55:04.551,1.728994646156662
2025-03-24 18:55:04.560,-3.0371403140996502
2025-03-24 18:55:04.560,-4.805451557889188
2025-03-24 18:55:04.561,-1.9223215945996526
2025-03-24 18:55:04.561,2.5339737378934974
2025-03-24 18:55:04.561,3.730325899910704
2025-03-24 18:55:04.570,0.21967039033908192
2025-03-24 18:55:04.570,-3.9709506333755327
2025-03-24 18:55:04.570,-3.283941069444747
2025-03-24 18:55:04.571,2.5216386805117774
2025-03-24 18:55:04.571,6.736158199849331
2025-03-24 18:55:04.580,3.1959710975636813
2025-03-24 18:55:04.580,-5.172234050549221
2025-03-24 18:55:04.581,-8.633903059266835
2025-03-24 18:55:04.581,-2.453268122703418
2025-03-24 18:55:04.581,6.6779526107185205
2025-03-24 18:55:04.590,8.412308857556496
2025-03-24 18:55:04.590,1.1211403035098997
2025-03-24 18:55:04.591,-6.567366343085372
2025-03-24 18:55:04.591,-6.463958308261315
2025-03-24 18:55:04.591,-0.053569515638428766
2025-03-24 18:55:04.600,4.647611147398701
2025-03-24 18:55:04.600,3.4175079087911686
2025-03-24 18:55:04.600,-0.19822173094628415
2025-03-24 18:55:04.600,-1.1626937233911578
2025-03-24 18:55:04.601,0.2653114189437994
2025-03-24 18:55:04.608,0.18595894756774692
2025-03-24 18:55:04.609,-2.4041664145656343
2025-03-24 18:55:04.609,-3.836495291612698
2025-03-24 18:55:04.609,-0.9489460351108389
2025-03-24 18:55:04.609,4.112276231819762
2025-03-24 18:55:04.618,6.001886652890103
2025-03-24 18:55:04.619,2.4983688514477476
2025-03-24 18:55:04.619,-3.037086853824922
2025-03-24 18:55:04.619,-5.730845043872627
2025-03-24 18:55:04.628,-4.047128310854331
2025-03-24 18:55:04.628,0.009625376808232444
2025-03-24 18:55:04.629,3.6490635524117967
2025-03-24 18:55:04.629,4.9013468493263606
2025-03-24 18:55:04.629,2.9457178343281685
2025-03-24 18:55:04.638,-1.2128864862839162
2025-03-24 18:55:04.638,-4.655809515620669
2025-03-24 18:55:04.638,-4.571851438401476
2025-03-24 18:55:04.639,-0.8964228789433375
2025-03-24 18:55:04.639,3.3973628255460357
2025-03-24 18:55:04.648,4.883085997413093
2025-03-24 18:55:04.648,2.5984507760341464
2025-03-24 18:55:04.648,-1.4159103489004485
2025-03-24 18:55:04.649,-4.0945619599022
2025-03-24 18:55:04.649,-3.7194235890512513
2025-03-24 18:55:04.658,-0.8491328858138321
2025-03-24 18:55:04.658,2.364389621590279
2025-03-24 18:55:04.658,3.747777181092775
2025-03-24 18:55:04.659,2.591886145380166
2025-03-24 18:55:04.659,-0.06705515530530948
2025-03-24 18:55:04.668,-2.5049675371544167
2025-03-24 18:55:04.668,-3.3529672567730895
2025-03-24 18:55:04.669,-1.9345554930329834
2025-03-24 18:55:04.669,1.1331747272615238
2025-03-24 18:55:04.669,3.394841998784902
2025-03-24 18:55:04.678,2.370700076457281
2025-03-24 18:55:04.678,-1.0673642235088656
2025-03-24 18:55:04.679,-2.866011622190746
2025-03-24 18:55:04.679,-0.8446949949155335
2025-03-24 18:55:04.679,2.0449666968920828
2025-03-24 18:55:04.688,1.6130796850829217
2025-03-24 18:55:04.688,-1.545395516216676
2025-03-24 18:55:04.689,-2.657778936552644
2025-03-24 18:55:04.689,0.4128567267774498
2025-03-24 18:55:04.689,3.6419940855266577
2025-03-24 18:55:04.698,2.0579885964362203
2025-03-24 18:55:04.698,-2.9800227797911787
2025-03-24 18:55:04.698,-4.863239987163061
2025-03-24 18:55:04.699,-0.5801877166419902
2025-03-24 18:55:04.699,4.787755325524208
2025-03-24 18:55:04.708,4.70221999314969
2025-03-24 18:55:04.708,-0.24403976089085527
2025-03-24 18:55:04.708,-3.852644830067042
2025-03-24 18:55:04.709,-3.0213400293375674
2025-03-24 18:55:04.709,-0.7342220196855057
2025-03-24 18:55:04.718,-0.15039716857067514
2025-03-24 18:55:04.718,0.11637089766100739
2025-03-24 18:55:04.718,2.517019967632132
2025-03-24 18:55:04.719,5.102401707094914
2025-03-24 18:55:04.719,3.2734350644626042
2025-03-24 18:55:04.728,-3.1578372253855074
2025-03-24 18:55:04.728,-8.009686244184067
2025-03-24 18:55:04.728,-5.669207604749101
2025-03-24 18:55:04.729,1.8499339170125326
2025-03-24 18:55:04.729,7.138162667899143
2025-03-24 18:55:04.738,5.890930765420538
2025-03-24 18:55:04.738,0.7283313747445906
2025-03-24 18:55:04.738,-3.3170188117466135
2025-03-24 18:55:04.738,-4.274409304113772
2025-03-24 18:55:04.739,-3.1520961928398603
2025-03-24 18:55:04.748,-0.941429387689378
2025-03-24 18:55:04.748,1.9309138744405692
2025-03-24 18:55:04.748,4.157917907189038
2025-03-24 18:55:04.749,3.8427345684841585
2025-03-24 18:55:04.749,0.6186473285288558
2025-03-24 18:55:04.758,-3.463052776448532
2025-03-24 18:55:04.758,-5.371791365599434
2025-03-24 18:55:04.758,-3.2765425826568304
2025-03-24 18:55:04.759,1.8901692609480776
2025-03-24 18:55:04.759,6.258449320968518
2025-03-24 18:55:04.766,5.488407041984385
2025-03-24 18:55:04.767,-0.7236242137335638
2025-03-24 18:55:04.767,-6.825034407213207
2025-03-24 18:55:04.767,-6.31075017943082
2025-03-24 18:55:04.767,0.701771788757005
2025-03-24 18:55:04.776,6.714216442610783
2025-03-24 18:55:04.777,5.27984123496106
2025-03-24 18:55:04.777,-1.3120784857397483
2025-03-24 18:55:04.777,-5.189322488358991
2025-03-24 18:55:04.786,-2.8711578646038123
2025-03-24 18:55:04.786,1.249337527845872
2025-03-24 18:55:04.787,1.9685537554726558
2025-03-24 18:55:04.787,0.1683976824118118
2025-03-24 18:55:04.787,0.05848177594806227
2025-03-24 18:55:04.796,1.997331047463589
2025-03-24 18:55:04.796,1.991278278213244
2025-03-24 18:55:04.797,-1.766120629598824
2025-03-24 18:55:04.797,-5.261259454194715
2025-03-24 18:55:04.797,-3.3982656251998997
2025-03-24 18:55:04.806,2.995427404132599
2025-03-24 18:55:04.806,7.100952165667731
2025-03-24 18:55:04.806,3.7946360552684135
2025-03-24 18:55:04.807,-3.77602932092833
2025-03-24 18:55:04.807,-7.217684780583419
2025-03-24 18:55:04.816,-2.7580782282169998
2025-03-24 18:55:04.816,4.08900721525345
2025-03-24 18:55:04.816,5.385190165123651
2025-03-24 18:55:04.817,0.5457934398746911
2025-03-24 18:55:04.817,-3.638136629819839
2025-03-24 18:55:04.826,-2.258588907692672
2025-03-24 18:55:04.826,1.856277790026167
2025-03-24 18:55:04.826,2.820594303870258
2025-03-24 18:55:04.827,-0.45500283315461665
2025-03-24 18:55:04.827,-3.564483087606126
2025-03-24 18:55:04.836,-2.6318790853864287
2025-03-24 18:55:04.836,1.3725155053958082
2025-03-24 18:55:04.836,4.314744616723223
2025-03-24 18:55:04.836,3.2764977741005303
2025-03-24 18:55:04.837,-0.8463335809487889
2025-03-24 18:55:04.846,-4.127982091411387
2025-03-24 18:55:04.846,-3.3398946529351115
2025-03-24 18:55:04.846,0.3902754422172175
2025-03-24 18:55:04.847,2.686155863256901
2025-03-24 18:55:04.847,1.443939085233705
2025-03-24 18:55:04.856,-0.6195510433221205
2025-03-24 18:55:04.856,-0.303727458679003
2025-03-24 18:55:04.856,1.4055880376456413
2025-03-24 18:55:04.856,1.2762182877892336
2025-03-24 18:55:04.857,-1.1517787985836812
2025-03-24 18:55:04.866,-3.0678949342797686
2025-03-24 18:55:04.866,-2.3043259291086544
2025-03-24 18:55:04.866,0.3690742843691387
2025-03-24 18:55:04.867,2.7603047185194924
2025-03-24 18:55:04.867,3.3541940489028947
2025-03-24 18:55:04.876,1.7456953864619826
2025-03-24 18:55:04.876,-1.3328217269802696
2025-03-24 18:55:04.876,-3.7295273071698682
2025-03-24 18:55:04.877,-3.1464340298795834
2025-03-24 18:55:04.877,0.12185110884984088
2025-03-24 18:55:04.885,2.863286708603447
2025-03-24 18:55:04.885,2.588098357162423
2025-03-24 18:55:04.885,0.4418926767049368
2025-03-24 18:55:04.885,-0.7989043093313977
2025-03-24 18:55:04.886,-0.5421631893087946
2025-03-24 18:55:04.896,-0.47610363010024515
2025-03-24 18:55:04.896,-1.3938922967898093
2025-03-24 18:55:04.896,-1.8006472460692524
2025-03-24 18:55:04.896,-0.20088067655089945
2025-03-24 18:55:04.897,2.3921168341110657
2025-03-24 18:55:04.904,3.3071304703528432
2025-03-24 18:55:04.904,1.3971348593583357
2025-03-24 18:55:04.905,-1.5619277588016307
2025-03-24 18:55:04.905,-3.002381484621518
2025-03-24 18:55:04.916,-2.3066107321569818
2025-03-24 18:55:04.916,-0.7008600102245245
2025-03-24 18:55:04.916,0.8472531218030533
2025-03-24 18:55:04.916,2.269728053362101
2025-03-24 18:55:04.917,3.0718684204414326
2025-03-24 18:55:04.917,1.9740379091001503
2025-03-24 18:55:04.924,-1.2273664960754747
2025-03-24 18:55:04.925,-4.265417332698242
2025-03-24 18:55:04.925,-4.080759178350366
2025-03-24 18:55:04.925,-0.16635372845557925
2025-03-24 18:55:04.934,4.2369728019242086
2025-03-24 18:55:04.934,4.853472974954318
2025-03-24 18:55:04.935,0.7376902898499561
2025-03-24 18:55:04.935,-4.107744382766162
2025-03-24 18:55:04.935,-4.402743780437234
2025-03-24 18:55:04.944,0.375636879273948
2025-03-24 18:55:04.944,4.647789986428521
2025-03-24 18:55:04.945,3.053811935009514
2025-03-24 18:55:04.945,-2.5949851330485254
2025-03-24 18:55:04.945,-5.1983214357610095
2025-03-24 18:55:04.954,-1.3945186115017032
2025-03-24 18:55:04.954,4.13292592627583
2025-03-24 18:55:04.955,4.772760375748134
2025-03-24 18:55:04.955,0.13930332870950407
2025-03-24 18:55:04.955,-4.092885309607175
2025-03-24 18:55:04.964,-3.4030286751433283
2025-03-24 18:55:04.964,0.7441035826506143
2025-03-24 18:55:04.965,3.371145859247986
2025-03-24 18:55:04.965,1.8143805691193222
2025-03-24 18:55:04.965,-1.7187154114411194
2025-03-24 18:55:04.974,-3.0550817340533416
2025-03-24 18:55:04.974,-0.780382997057687
2025-03-24 18:55:04.975,2.452881568720055
2025-03-24 18:55:04.975,3.1554726239625035
2025-03-24 18:55:04.975,0.7521648633067579
2025-03-24 18:55:04.984,-2.2181803303132273
2025-03-24 18:55:04.984,-3.0220164919470918
2025-03-24 18:55:04.985,-1.3014700080653312
2025-03-24 18:55:04.985,1.0264889276741211
2025-03-24 18:55:04.985,1.9993037946436714
2025-03-24 18:55:04.994,1.4894257459363671
2025-03-24 18:55:04.994,0.6785337177550544
2025-03-24 18:55:04.994,0.050596151825808434
2025-03-24 18:55:04.995,-1.0176089218193431
2025-03-24 18:55:04.995,-2.423079190785344
2025-03-24 18:55:05.004,-2.460854961523352
2025-03-24 18:55:05.005,0.05421841662408931
2025-03-24 18:55:05.005,3.4416229857275997
2025-03-24 18:55:05.005,4.2992145599897675
2025-03-24 18:55:05.005,1.2809315738487776
2025-03-24 18:55:05.014,-3.035201156750977
2025-03-24 18:55:05.014,-4.666562086158782
2025-03-24 18:55:05.014,-2.3936965457975115
2025-03-24 18:55:05.015,1.1982689302306258
2025-03-24 18:55:05.015,2.869446027199456
2025-03-24 18:55:05.024,2.1531241144065847
2025-03-24 18:55:05.024,1.073400128777753
2025-03-24 18:55:05.024,0.8998153088729621
2025-03-24 18:55:05.025,0.31313432481967485
2025-03-24 18:55:05.025,-2.3508738747543876
2025-03-24 18:55:05.034,-5.448044708164387
2025-03-24 18:55:05.034,-4.527131628753306
2025-03-24 18:55:05.035,1.974217117995661
2025-03-24 18:55:05.035,8.788620596609436
2025-03-24 18:55:05.035,8.384758781540752
2025-03-24 18:55:05.042,-0.13587113286209151
2025-03-24 18:55:05.042,-9.025597341231562
2025-03-24 18:55:05.043,-9.877425211797116
2025-03-24 18:55:05.043,-2.2742296562037354
2025-03-24 18:55:05.052,6.350758261831965
2025-03-24 18:55:05.052,8.487081676568083
2025-03-24 18:55:05.053,3.4578509049621142
2025-03-24 18:55:05.053,-2.9091032805682295
2025-03-24 18:55:05.053,-4.847736976920096
2025-03-24 18:55:05.062,-2.329584507084619
2025-03-24 18:55:05.062,0.32421564434868383
2025-03-24 18:55:05.062,0.5706075493939793
2025-03-24 18:55:05.063,0.13593270534515017
2025-03-24 18:55:05.063,1.089456345019886
2025-03-24 18:55:05.070,2.2246879479098736
2025-03-24 18:55:05.071,1.22212531741227
2025-03-24 18:55:05.071,-1.4089510960107439
2025-03-24 18:55:05.071,-2.793288011358197
2025-03-24 18:55:05.071,-1.4007655371055847
2025-03-24 18:55:05.080,1.259739101805544
2025-03-24 18:55:05.081,2.4107278445439224
2025-03-24 18:55:05.081,0.8195757382443571
2025-03-24 18:55:05.081,-1.7969835551141295
2025-03-24 18:55:05.090,-2.2657636414356865
2025-03-24 18:55:05.091,0.3552733726036258
2025-03-24 18:55:05.091,3.0682592329628395
2025-03-24 18:55:05.091,2.2732716459573017
2025-03-24 18:55:05.091,-1.5145976413200715
2025-03-24 18:55:05.100,-3.9327845650952047
2025-03-24 18:55:05.100,-2.0260143327851705
2025-03-24 18:55:05.101,2.0924572469348313
2025-03-24 18:55:05.101,3.7076060882296034
2025-03-24 18:55:05.101,1.12608470410621
2025-03-24 18:55:05.110,-2.3290684611834243
2025-03-24 18:55:05.111,-2.47908814443167
2025-03-24 18:55:05.111,0.5054061155433925
2025-03-24 18:55:05.111,2.4788806539397847
2025-03-24 18:55:05.111,0.764192581616722
2025-03-24 18:55:05.120,-2.35137276163001
2025-03-24 18:55:05.120,-2.4715406318873314
2025-03-24 18:55:05.121,1.160610289509216
2025-03-24 18:55:05.121,4.079949248952105
2025-03-24 18:55:05.121,1.8314037690870595
2025-03-24 18:55:05.130,-3.6639231884642176
2025-03-24 18:55:05.130,-5.337035697644761
2025-03-24 18:55:05.131,0.028653977558038668
2025-03-24 18:55:05.131,6.412578942192039
2025-03-24 18:55:05.131,5.4257176269473035
2025-03-24 18:55:05.140,-2.5142258998489972
2025-03-24 18:55:05.140,-7.9768740148588
2025-03-24 18:55:05.140,-4.3021815029482084
2025-03-24 18:55:05.141,4.063292423001424
2025-03-24 18:55:05.141,7.406893072700999
2025-03-24 18:55:05.150,2.6298739765585055
2025-03-24 18:55:05.150,-3.9186348186703093
2025-03-24 18:55:05.151,-4.981892302049879
2025-03-24 18:55:05.151,-0.7279949364818676
2025-03-24 18:55:05.151,2.7523529851733337
2025-03-24 18:55:05.160,1.5951521385870233
2025-03-24 18:55:05.160,-1.489526929992437
2025-03-24 18:55:05.160,-1.5250189043322908
2025-03-24 18:55:05.161,1.7691806179959237
2025-03-24 18:55:05.161,3.5397216983989317
2025-03-24 18:55:05.170,0.5306387688690946
2025-03-24 18:55:05.171,-4.051800195364316
2025-03-24 18:55:05.171,-4.376583065005183
2025-03-24 18:55:05.171,0.32311703003070474
2025-03-24 18:55:05.171,4.496043770395681
2025-03-24 18:55:05.180,3.3152982266544115
2025-03-24 18:55:05.180,-1.2059902697730256
2025-03-24 18:55:05.180,-3.11781262572983
2025-03-24 18:55:05.181,-0.5253397637843726
2025-03-24 18:55:05.181,2.1646492909098516
2025-03-24 18:55:05.188,0.7320829199765693
2025-03-24 18:55:05.189,-2.7757456280174475
2025-03-24 18:55:05.189,-2.9023273291942475
2025-03-24 18:55:05.189,1.4649701622908875
2025-03-24 18:55:05.189,5.121805277527606
2025-03-24 18:55:05.198,2.9922332728283694
2025-03-24 18:55:05.198,-3.1774190755659717
2025-03-24 18:55:05.199,-6.16115768236334
2025-03-24 18:55:05.199,-1.6940896066115396
2025-03-24 18:55:05.208,5.424996604046994
2025-03-24 18:55:05.208,6.020586400946167
2025-03-24 18:55:05.208,-1.7385457223260534
2025-03-24 18:55:05.209,-8.430813189144173
2025-03-24 18:55:05.209,-4.602929952564212
2025-03-24 18:55:05.218,6.223461111489035
2025-03-24 18:55:05.218,10.833392065455843
2025-03-24 18:55:05.218,2.7996543862508485
2025-03-24 18:55:05.218,-9.147684526894121
2025-03-24 18:55:05.219,-11.540772151018022
2025-03-24 18:55:05.232,-1.9131371830305217
2025-03-24 18:55:05.232,9.03431217712513
2025-03-24 18:55:05.233,10.115888906584388
2025-03-24 18:55:05.233,1.656786266611869
2025-03-24 18:55:05.233,-6.309389210449976
2025-03-24 18:55:05.238,-6.248673220535358
2025-03-24 18:55:05.238,-0.8179017915077919
2025-03-24 18:55:05.238,2.429627216096455
2025-03-24 18:55:05.238,1.0868639029671048
2025-03-24 18:55:05.238,-0.723297628359089
2025-03-24 18:55:05.248,0.2999283590207082
2025-03-24 18:55:05.248,2.3140131467766683
2025-03-24 18:55:05.248,2.1843625936604525
2025-03-24 18:55:05.248,0.033923917649909485
2025-03-24 18:55:05.248,-1.9199985179673513
2025-03-24 18:55:05.258,-2.6844879368313115
2025-03-24 18:55:05.258,-2.578403866055253
2025-03-24 18:55:05.258,-1.3893239419656394
2025-03-24 18:55:05.258,1.378013617688817
2025-03-24 18:55:05.258,4.514056614676379
2025-03-24 18:55:05.266,5.07492697910092
2025-03-24 18:55:05.266,1.437086622998964
2025-03-24 18:55:05.266,-4.026295866541683
2025-03-24 18:55:05.266,-6.558962488906581
2025-03-24 18:55:05.267,-3.912514424747205
2025-03-24 18:55:05.278,1.2004308996988036
2025-03-24 18:55:05.278,4.414604035137659
2025-03-24 18:55:05.278,4.4578443997551185
2025-03-24 18:55:05.278,2.941026964579723
2025-03-24 18:55:05.278,0.5355742088662515
2025-03-24 18:55:05.286,-3.3312846966503553
2025-03-24 18:55:05.286,-6.703192327105956
2025-03-24 18:55:05.286,-5.173826966863801
2025-03-24 18:55:05.286,1.7757622035033729
2025-03-24 18:55:05.286,7.726926018147091
2025-03-24 18:55:05.296,6.3072025387753206
2025-03-24 18:55:05.296,-0.5155341942005424
2025-03-24 18:55:05.296,-4.952703041726059
2025-03-24 18:55:05.296,-3.4306367905878505
2025-03-24 18:55:05.306,-0.0779579490243214
2025-03-24 18:55:05.306,0.29681081940839765
2025-03-24 18:55:05.306,-1.2118524035893128
2025-03-24 18:55:05.306,-0.3609652625650521
2025-03-24 18:55:05.307,3.23744029125
2025-03-24 18:55:05.316,5.041813348739944
2025-03-24 18:55:05.316,1.562959765424223
2025-03-24 18:55:05.316,-4.627404579257377
2025-03-24 18:55:05.317,-7.086554184111426
2025-03-24 18:55:05.317,-2.4978910279722233
2025-03-24 18:55:05.326,5.125662039935935
2025-03-24 18:55:05.326,7.9101892338873485
2025-03-24 18:55:05.326,2.3771921334926036
2025-03-24 18:55:05.327,-6.117343878310719
2025-03-24 18:55:05.327,-8.42358958787928
2025-03-24 18:55:05.336,-1.532502015701212
2025-03-24 18:55:05.336,7.573660734001267
2025-03-24 18:55:05.336,9.056516675675088
2025-03-24 18:55:05.337,0.902235054532677
2025-03-24 18:55:05.337,-8.597703427396004
2025-03-24 18:55:05.346,-9.51069416562587
2025-03-24 18:55:05.346,-0.83717231504148
2025-03-24 18:55:05.346,8.447490362429628
2025-03-24 18:55:05.347,9.023353335713999
2025-03-24 18:55:05.347,0.9918732633398109
2025-03-24 18:55:05.356,-6.862406327361267
2025-03-24 18:55:05.356,-7.075749977382103
2025-03-24 18:55:05.356,-1.0457456204634328
2025-03-24 18:55:05.357,4.116045484350044
2025-03-24 18:55:05.357,4.241201503340914
2025-03-24 18:55:05.364,1.225075827967466
2025-03-24 18:55:05.365,-1.3651984245675772
2025-03-24 18:55:05.365,-2.291453746931714
2025-03-24 18:55:05.365,-1.7532859730826549
2025-03-24 18:55:05.365,0.1660797607694357
2025-03-24 18:55:05.375,2.3750882538871294
2025-03-24 18:55:05.375,2.3984161454405073
2025-03-24 18:55:05.375,-0.6435887092989019
2025-03-24 18:55:05.375,-3.8025889302233002
2025-03-24 18:55:05.375,-3.08858616631462
2025-03-24 18:55:05.385,1.53795976937879
2025-03-24 18:55:05.385,5.2918251557879765
2025-03-24 18:55:05.385,3.5308109654916886
2025-03-24 18:55:05.385,-2.4879239786558465
2025-03-24 18:55:05.385,-5.992753495351547
2025-03-24 18:55:05.394,-2.3365530518480413
2025-03-24 18:55:05.395,4.389936959609112
2025-03-24 18:55:05.395,5.371849841689941
2025-03-24 18:55:05.395,-1.3984712010259917
2025-03-24 18:55:05.404,-7.2611147199105694
2025-03-24 18:55:05.404,-3.6803115387177643
2025-03-24 18:55:05.405,5.85388151208262
2025-03-24 18:55:05.405,9.52150639954146
2025-03-24 18:55:05.405,2.2289293677347946
2025-03-24 18:55:05.417,-7.898176168966421
2025-03-24 18:55:05.417,-9.665164619332781
2025-03-24 18:55:05.418,-1.8458503968844284
2025-03-24 18:55:05.418,6.645463736526168
2025-03-24 18:55:05.418,7.609428033657744
2025-03-24 18:55:05.424,1.632874890340806
2025-03-24 18:55:05.424,-4.219140765847495
2025-03-24 18:55:05.425,-4.438024200968345
2025-03-24 18:55:05.425,-0.16146321100254002
2025-03-24 18:55:05.425,2.9160075607794758
2025-03-24 18:55:05.434,1.2432804510787299
2025-03-24 18:55:05.434,-2.459370585131005
2025-03-24 18:55:05.434,-2.7193730792526845
2025-03-24 18:55:05.435,1.3834101005713562
2025-03-24 18:55:05.435,4.594014879245011
2025-03-24 18:55:05.444,2.258778908968893
2025-03-24 18:55:05.444,-3.202883098182696
2025-03-24 18:55:05.444,-5.028831634964228
2025-03-24 18:55:05.444,-0.8201240367190528
2025-03-24 18:55:05.444,4.212067887565899
2025-03-24 18:55:05.454,3.879047893329266
2025-03-24 18:55:05.454,-1.1266724931097583
2025-03-24 18:55:05.454,-4.402078170800241
2025-03-24 18:55:05.455,-2.1567947511452012
2025-03-24 18:55:05.455,2.4537548393619835
2025-03-24 18:55:05.464,3.9616919504395107
2025-03-24 18:55:05.464,1.1205356549632035
2025-03-24 18:55:05.464,-2.6290653833405
2025-03-24 18:55:05.465,-3.551832187256205
2025-03-24 18:55:05.465,-1.0099195386560949
2025-03-24 18:55:05.474,2.435714397599393
2025-03-24 18:55:05.474,3.304036028248647
2025-03-24 18:55:05.474,0.5736682896146937
2025-03-24 18:55:05.475,-2.686239618396317
2025-03-24 18:55:05.475,-2.4368969356406276
2025-03-24 18:55:05.483,1.082405541465159
2025-03-24 18:55:05.483,3.132738266148268
2025-03-24 18:55:05.483,0.6902647599242416
2025-03-24 18:55:05.483,-3.1020135724517703
2025-03-24 18:55:05.483,-2.9920798848928856
2025-03-24 18:55:05.493,1.0891436245258936
2025-03-24 18:55:05.493,3.8521725092089567
2025-03-24 18:55:05.493,1.8722639192704458
2025-03-24 18:55:05.493,-2.0064561463597617
2025-03-24 18:55:05.493,-2.8556913750333703
2025-03-24 18:55:05.502,-0.10901304762710001
2025-03-24 18:55:05.502,2.2535196271052906
2025-03-24 18:55:05.503,1.1574340219361832
2025-03-24 18:55:05.503,-1.8338113527181905
2025-03-24 18:55:05.512,-2.661973557163793
2025-03-24 18:55:05.513,0.19035843541281117
2025-03-24 18:55:05.513,3.6256792068532113
2025-03-24 18:55:05.513,3.343238955621539
2025-03-24 18:55:05.513,-0.9068633700659112
2025-03-24 18:55:05.522,-4.6235041671778205
2025-03-24 18:55:05.523,-3.738349307824746
2025-03-24 18:55:05.523,0.7057425688214713
2025-03-24 18:55:05.523,4.218185464255918
2025-03-24 18:55:05.523,3.9923672017263567
2025-03-24 18:55:05.532,0.812877569433893
2025-03-24 18:55:05.533,-2.9082004910794526
2025-03-24 18:55:05.533,-4.803501153461495
2025-03-24 18:55:05.533,-3.106038149813045
2025-03-24 18:55:05.533,1.7412395506384184
2025-03-24 18:55:05.542,5.873676876753781
2025-03-24 18:55:05.542,4.925337606507439
2025-03-24 18:55:05.543,-0.8154782273329244
2025-03-24 18:55:05.543,-5.938014070039295
2025-03-24 18:55:05.543,-5.679350044240676
2025-03-24 18:55:05.552,-0.7545020334857442
2025-03-24 18:55:05.552,4.331512514991675
2025-03-24 18:55:05.552,5.937268412729496
2025-03-24 18:55:05.553,3.27707651355018
2025-03-24 18:55:05.553,-1.9286324471872118
2025-03-24 18:55:05.562,-6.015335219821832
2025-03-24 18:55:05.562,-5.420127830410515
2025-03-24 18:55:05.563,-0.252942131897869
2025-03-24 18:55:05.563,5.030237030079756
2025-03-24 18:55:05.563,5.878212541990025
2025-03-24 18:55:05.572,2.038162112770252
2025-03-24 18:55:05.572,-2.783286299014145
2025-03-24 18:55:05.572,-4.7213196730154685
2025-03-24 18:55:05.573,-2.827572193061318
2025-03-24 18:55:05.573,0.6489091097056375
2025-03-24 18:55:05.580,2.52658812630039
2025-03-24 18:55:05.581,1.752200170373316
2025-03-24 18:55:05.581,0.19776251619334514
2025-03-24 18:55:05.581,-0.061468242949496404
2025-03-24 18:55:05.581,0.4916775791572066
2025-03-24 18:55:05.591,0.03898409187311727
2025-03-24 18:55:05.591,-1.3396978424258654
2025-03-24 18:55:05.591,-1.7189706200113484
2025-03-24 18:55:05.591,-0.5214436528826407
2025-03-24 18:55:05.600,0.6147249323966741
2025-03-24 18:55:05.601,0.6853634958767426
2025-03-24 18:55:05.601,0.7953295936527098
2025-03-24 18:55:05.601,1.6394676974163576
2025-03-24 18:55:05.601,1.5542187269728998
2025-03-24 18:55:05.601,-0.905393422858895
2025-03-24 18:55:05.611,-3.646733669708612
2025-03-24 18:55:05.611,-2.911353009515198
2025-03-24 18:55:05.611,1.3092822848163062
2025-03-24 18:55:05.611,4.174196286559423
2025-03-24 18:55:05.611,1.9534207454124888
2025-03-24 18:55:05.621,-2.526531090957224
2025-03-24 18:55:05.621,-3.1468895606095004
2025-03-24 18:55:05.621,1.0933508111566594
2025-03-24 18:55:05.621,4.288128690795388
2025-03-24 18:55:05.621,1.6162147022624846
2025-03-24 18:55:05.630,-3.9548718654286517
2025-03-24 18:55:05.631,-5.673542034576366
2025-03-24 18:55:05.631,-1.5884388382757386
2025-03-24 18:55:05.631,4.014319765961181
2025-03-24 18:55:05.640,6.3446229894443995
2025-03-24 18:55:05.640,4.088354399327301
2025-03-24 18:55:05.641,-1.2603671833997354
2025-03-24 18:55:05.641,-6.483755566225853
2025-03-24 18:55:05.641,-7.331875099308771
2025-03-24 18:55:05.650,-1.8237154800180015
2025-03-24 18:55:05.650,6.040077825708385
2025-03-24 18:55:05.651,8.66460521197932
2025-03-24 18:55:05.651,2.9753749658360196
2025-03-24 18:55:05.651,-5.266372465207192
2025-03-24 18:55:05.660,-7.394393927335093
2025-03-24 18:55:05.660,-1.7144089883935445
2025-03-24 18:55:05.661,4.715581291106953
2025-03-24 18:55:05.661,4.786925341211114
2025-03-24 18:55:05.661,-0.4187351367540057
2025-03-24 18:55:05.670,-4.075380648748555
2025-03-24 18:55:05.670,-2.649857862258606
2025-03-24 18:55:05.671,0.8098053231945579
2025-03-24 18:55:05.671,2.277272368910589
2025-03-24 18:55:05.671,1.8675119437295669
2025-03-24 18:55:05.680,1.6046177290585124
2025-03-24 18:55:05.680,1.0973230996771521
2025-03-24 18:55:05.680,-1.370526205193336
2025-03-24 18:55:05.681,-4.698835654943431
2025-03-24 18:55:05.681,-5.136123829330064
2025-03-24 18:55:05.690,-0.9116695824013433
2025-03-24 18:55:05.690,5.178800391894901
2025-03-24 18:55:05.690,8.211209317499055
2025-03-24 18:55:05.691,5.288823203148816
2025-03-24 18:55:05.691,-2.1587878337358406
2025-03-24 18:55:05.700,-8.868156504318703
2025-03-24 18:55:05.700,-9.18868739298892
2025-03-24 18:55:05.700,-2.138960883407479
2025-03-24 18:55:05.701,6.6408045252623085
2025-03-24 18:55:05.701,9.648666219442804
2025-03-24 18:55:05.708,4.8878890657808824
2025-03-24 18:55:05.709,-2.570851859095536
2025-03-24 18:55:05.709,-6.421452868665259
2025-03-24 18:55:05.709,-4.951350829438006
2025-03-24 18:55:05.709,-0.9375223207074878
2025-03-24 18:55:05.719,2.1445664981104784
2025-03-24 18:55:05.719,2.7497786291364004
2025-03-24 18:55:05.719,1.5365582441864698
2025-03-24 18:55:05.719,0.2945275551894335
2025-03-24 18:55:05.719,0.23100185634780612
2025-03-24 18:55:05.728,0.8036330196644939
2025-03-24 18:55:05.729,0.40039333286714845
2025-03-24 18:55:05.729,-1.682617820716506
2025-03-24 18:55:05.729,-3.9508747852348773
2025-03-24 18:55:05.738,-3.5962418381100885
2025-03-24 18:55:05.738,0.5722496189813769
2025-03-24 18:55:05.739,5.7247355186687985
2025-03-24 18:55:05.739,6.76136068889649
2025-03-24 18:55:05.739,1.7713619381611434
2025-03-24 18:55:05.748,-5.028527419392528
2025-03-24 18:55:05.749,-7.353440095637039
2025-03-24 18:55:05.749,-3.5095797025135225
2025-03-24 18:55:05.749,2.3382056431199634
2025-03-24 18:55:05.749,5.1560752617421395
2025-03-24 18:55:05.758,3.729893204543073
2025-03-24 18:55:05.758,0.4416616551468945
2025-03-24 18:55:05.758,-1.9206512651518681
2025-03-24 18:55:05.759,-2.3512899808837866
2025-03-24 18:55:05.759,-1.5434895923909908
2025-03-24 18:55:05.768,-0.5935859618059661
2025-03-24 18:55:05.768,0.09767009037991681
2025-03-24 18:55:05.769,0.8101906211636017
2025-03-24 18:55:05.769,1.5710625363133248
2025-03-24 18:55:05.769,1.6817814613487436
2025-03-24 18:55:05.778,0.5872237041876778
2025-03-24 18:55:05.778,-1.0697379939766103
2025-03-24 18:55:05.778,-1.9172165483501575
2025-03-24 18:55:05.779,-1.3872164843290467
2025-03-24 18:55:05.779,-0.2178123800968066
2025-03-24 18:55:05.788,0.6345833988489078
2025-03-24 18:55:05.788,1.0154712804289228
2025-03-24 18:55:05.789,1.2585082521279802
2025-03-24 18:55:05.789,1.2456546943558666
2025-03-24 18:55:05.789,0.32771945879963943
2025-03-24 18:55:05.798,-1.5078729215840145
2025-03-24 18:55:05.798,-2.725660862191106
2025-03-24 18:55:05.798,-1.5365445005583989
2025-03-24 18:55:05.799,1.437457044050905
2025-03-24 18:55:05.799,3.0050990564605424
2025-03-24 18:55:05.807,1.2073266999651442
2025-03-24 18:55:05.807,-1.661574189807705
2025-03-24 18:55:05.807,-1.8038134900945024
2025-03-24 18:55:05.807,0.7249088259453491
2025-03-24 18:55:05.807,1.9773238973465597
2025-03-24 18:55:05.817,-0.06786528908420986
2025-03-24 18:55:05.817,-2.458641394657978
2025-03-24 18:55:05.817,-1.7078237830964398
2025-03-24 18:55:05.817,1.0832492937319627
2025-03-24 18:55:05.817,2.1303735228641885
2025-03-24 18:55:05.827,0.615742018653191
2025-03-24 18:55:05.827,-0.5836557542043689
2025-03-24 18:55:05.827,0.2813251691539259
2025-03-24 18:55:05.827,1.1362397944384204
2025-03-24 18:55:05.836,-0.48505245147656306
2025-03-24 18:55:05.836,-3.2016657384598175
2025-03-24 18:55:05.837,-3.1888040490141707
2025-03-24 18:55:05.837,0.5950240439840795
2025-03-24 18:55:05.837,4.638567429383151
2025-03-24 18:55:05.846,4.886638947618685
2025-03-24 18:55:05.846,1.0988056076083712
2025-03-24 18:55:05.847,-3.485824920487446
2025-03-24 18:55:05.847,-5.570950220994244
2025-03-24 18:55:05.847,-3.969770061884781
2025-03-24 18:55:05.859,0.378143415546271
2025-03-24 18:55:05.859,4.897322690492199
2025-03-24 18:55:05.860,6.3314239006164295
2025-03-24 18:55:05.860,3.021406134059814
2025-03-24 18:55:05.860,-3.021444655033275
2025-03-24 18:55:05.866,-7.0329525481297575
2025-03-24 18:55:05.866,-5.39138117445634
2025-03-24 18:55:05.867,0.8676917852200045
2025-03-24 18:55:05.867,6.375548109635484
2025-03-24 18:55:05.867,6.037285491048229
2025-03-24 18:55:05.876,0.19498453894025253
2025-03-24 18:55:05.876,-5.21584164630576
2025-03-24 18:55:05.876,-4.776607566664954
2025-03-24 18:55:05.876,0.3800139453539847
2025-03-24 18:55:05.876,4.017321928855985
2025-03-24 18:55:05.886,2.3096068746069696
2025-03-24 18:55:05.886,-1.85680467186391
2025-03-24 18:55:05.886,-2.9986992193522317
2025-03-24 18:55:05.887,0.05066987352052238
2025-03-24 18:55:05.887,3.147108343649665
2025-03-24 18:55:05.896,2.364293878490709
2025-03-24 18:55:05.896,-1.3336468814857498
2025-03-24 18:55:05.897,-3.6689745980769444
2025-03-24 18:55:05.897,-2.185927161517901
2025-03-24 18:55:05.897,1.3476545895909444
2025-03-24 18:55:05.906,3.38618305686406
2025-03-24 18:55:05.906,2.365118116877229
2025-03-24 18:55:05.906,-0.3518280564820283
2025-03-24 18:55:05.907,-2.4754435655232405
2025-03-24 18:55:05.907,-2.7679657955906722
2025-03-24 18:55:05.916,-1.2443882468521195
2025-03-24 18:55:05.916,1.2645338739679202
2025-03-24 18:55:05.916,3.152701337038763
2025-03-24 18:55:05.917,2.7251506951412763
2025-03-24 18:55:05.917,-0.06953415856314042
2025-03-24 18:55:05.925,-3.004521831553145
2025-03-24 18:55:05.925,-3.490610455921008
2025-03-24 18:55:05.925,-1.072028560493484
2025-03-24 18:55:05.925,2.1988575508779005
2025-03-24 18:55:05.925,3.579076177316742
2025-03-24 18:55:05.934,1.8770147044285483
2025-03-24 18:55:05.935,-1.4441187205810688
2025-03-24 18:55:05.935,-3.2852515951062173
2025-03-24 18:55:05.935,-1.7859080210250413
2025-03-24 18:55:05.944,1.5103351631456763
2025-03-24 18:55:05.945,3.010205996114099
2025-03-24 18:55:05.945,0.9922372420503677
2025-03-24 18:55:05.945,-2.342001730985944
2025-03-24 18:55:05.945,-3.233714953239978
2025-03-24 18:55:05.954,-0.5232309242586746
2025-03-24 18:55:05.954,3.0500904665269597
2025-03-24 18:55:05.955,3.803245677726977
2025-03-24 18:55:05.955,1.0282518974668513
2025-03-24 18:55:05.955,-2.5224856798608153
2025-03-24 18:55:05.964,-3.892091161751255
2025-03-24 18:55:05.965,-2.572771238963199
2025-03-24 18:55:05.965,0.29606172253757396
2025-03-24 18:55:05.965,3.461252903538149
2025-03-24 18:55:05.965,5.029235308058111
2025-03-24 18:55:05.974,2.6152282832496314
2025-03-24 18:55:05.974,-3.3047131295790537
2025-03-24 18:55:05.974,-7.489170876346989
2025-03-24 18:55:05.975,-4.694755527281134
2025-03-24 18:55:05.975,3.4038278885090474
2025-03-24 18:55:05.984,8.690889781059875
2025-03-24 18:55:05.984,5.330032345020511
2025-03-24 18:55:05.985,-3.2928558635595704
2025-03-24 18:55:05.985,-8.001680276881503
2025-03-24 18:55:05.985,-4.173934877771824
2025-03-24 18:55:05.994,3.067752985763726
2025-03-24 18:55:05.994,5.328088490836171
2025-03-24 18:55:05.994,1.1856279738556856
2025-03-24 18:55:05.995,-2.8609786588626824
2025-03-24 18:55:05.995,-1.5972586971527798
2025-03-24 18:55:06.003,2.266027619965107
2025-03-24 18:55:06.003,2.601311651024134
2025-03-24 18:55:06.003,-1.392066928928138
2025-03-24 18:55:06.003,-4.219718529093362
2025-03-24 18:55:06.003,-1.8262008308489615
2025-03-24 18:55:06.014,2.6887123240031534
2025-03-24 18:55:06.014,3.351358226174678
2025-03-24 18:55:06.015,-0.1737899404457406
2025-03-24 18:55:06.015,-2.186826833994593
2025-03-24 18:55:06.015,0.2670570902616079
2025-03-24 18:55:06.023,2.648506623962825
2025-03-24 18:55:06.023,0.08385288636812457
2025-03-24 18:55:06.023,-4.358804058125485
2025-03-24 18:55:06.023,-3.65667883678353
2025-03-24 18:55:06.023,2.416870786849163
2025-03-24 18:55:06.033,6.154134758579817
2025-03-24 18:55:06.033,2.4739726949148078
2025-03-24 18:55:06.033,-3.976996708445489
2025-03-24 18:55:06.033,-5.059774865660142
2025-03-24 18:55:06.033,0.15797912382889057
2025-03-24 18:55:06.043,4.551584626274432
2025-03-24 18:55:06.043,2.483733360976155
2025-03-24 18:55:06.043,-3.078258325245578
2025-03-24 18:55:06.043,-4.757874579966146
2025-03-24 18:55:06.052,-0.2916492824416714
2025-03-24 18:55:06.053,4.900306565230125
2025-03-24 18:55:06.053,4.775074014590425
2025-03-24 18:55:06.053,-0.17530774819443368
2025-03-24 18:55:06.053,-4.380802724635798
2025-03-24 18:55:06.062,-4.256125614265564
2025-03-24 18:55:06.063,-1.3305676520873821
2025-03-24 18:55:06.063,1.356881865477371
2025-03-24 18:55:06.063,3.0116565867459713
2025-03-24 18:55:06.063,3.8812129369206927
2025-03-24 18:55:06.063,2.7556469234048664
2025-03-24 18:55:06.072,-1.4285950613202254
2025-03-24 18:55:06.073,-6.0656977900557925
2025-03-24 18:55:06.073,-6.009988454064052
2025-03-24 18:55:06.073,0.2535948614945256
2025-03-24 18:55:06.082,7.185001982395024
2025-03-24 18:55:06.082,7.335601642105084
2025-03-24 18:55:06.083,0.010823223794109493
2025-03-24 18:55:06.083,-7.268525417697579
2025-03-24 18:55:06.083,-6.985407958112931
2025-03-24 18:55:06.092,0.1381659835321149
2025-03-24 18:55:06.093,6.474386612262839
2025-03-24 18:55:06.093,6.055282914900846
2025-03-24 18:55:06.093,0.18174512326045328
2025-03-24 18:55:06.093,-5.106430236646362
2025-03-24 18:55:06.102,-5.36169326269185
2025-03-24 18:55:06.102,-1.083910269424657
2025-03-24 18:55:06.103,3.6962622488568817
2025-03-24 18:55:06.103,4.959035758273557
2025-03-24 18:55:06.103,1.750808969967288
2025-03-24 18:55:06.112,-2.8181938109906803
2025-03-24 18:55:06.112,-4.119986706396223
2025-03-24 18:55:06.113,-0.9669526981568344
2025-03-24 18:55:06.113,2.5460132495637025
2025-03-24 18:55:06.113,1.903824967477571
2025-03-24 18:55:06.122,-1.6822497823979519
2025-03-24 18:55:06.123,-2.567170701934458
2025-03-24 18:55:06.123,1.4176325704171775
2025-03-24 18:55:06.123,5.164003082180078
2025-03-24 18:55:06.123,2.6452400508822516
2025-03-24 18:55:06.132,-4.423734727875498
2025-03-24 18:55:06.132,-7.601925125126152
2025-03-24 18:55:06.133,-2.2109109321111737
2025-03-24 18:55:06.133,5.999546828507841
2025-03-24 18:55:06.133,7.416123056094804
2025-03-24 18:55:06.142,0.580323996059845
2025-03-24 18:55:06.142,-5.990244812618984
2025-03-24 18:55:06.143,-4.699294709905891
2025-03-24 18:55:06.143,1.8778655055064493
2025-03-24 18:55:06.143,5.119538821994289
2025-03-24 18:55:06.152,1.512657640120928
2025-03-24 18:55:06.152,-3.811279326133376
2025-03-24 18:55:06.153,-4.401205527862561
2025-03-24 18:55:06.153,-0.09079789403950322
2025-03-24 18:55:06.153,4.052537505980423
2025-03-24 18:55:06.162,4.203196707611797
2025-03-24 18:55:06.162,1.0535189093288468
2025-03-24 18:55:06.162,-2.4181828834603545
2025-03-24 18:55:06.163,-4.073226122236046
2025-03-24 18:55:06.163,-3.24140586398931
2025-03-24 18:55:06.172,-0.24935712442596958
2025-03-24 18:55:06.172,3.3063995283239285
2025-03-24 18:55:06.172,4.740542036318029
2025-03-24 18:55:06.173,2.454303073575268
2025-03-24 18:55:06.173,-1.7924368847284915
2025-03-24 18:55:06.181,-4.066908720176917
2025-03-24 18:55:06.181,-2.5701562601891057
2025-03-24 18:55:06.181,0.20477645338005218
2025-03-24 18:55:06.181,0.9188669368878638
2025-03-24 18:55:06.190,0.07865210910024592
2025-03-24 18:55:06.191,0.8888269721798897
2025-03-24 18:55:06.191,3.458825977504929
2025-03-24 18:55:06.191,3.4884890436610383
2025-03-24 18:55:06.191,-1.4002169942929126
2025-03-24 18:55:06.200,-6.767165694480434
2025-03-24 18:55:06.200,-6.0224581529659496
2025-03-24 18:55:06.201,1.0684798440382721
2025-03-24 18:55:06.201,7.541061947598827
2025-03-24 18:55:06.201,6.98124791922775
2025-03-24 18:55:06.210,0.1502026727184272
2025-03-24 18:55:06.211,-6.3519940802375325
2025-03-24 18:55:06.211,-6.753985587037852
2025-03-24 18:55:06.211,-1.3120718569136485
2025-03-24 18:55:06.211,4.379472773485444
2025-03-24 18:55:06.220,5.20302752364404
2025-03-24 18:55:06.220,1.5927441844957977
2025-03-24 18:55:06.221,-1.8796816874411553
2025-03-24 18:55:06.221,-2.4465626759087002
2025-03-24 18:55:06.221,-1.5459932666281542
2025-03-24 18:55:06.230,-1.0579707907298508
2025-03-24 18:55:06.231,-0.18125478304265913
2025-03-24 18:55:06.231,2.0290092634941157
2025-03-24 18:55:06.231,3.4738176391927986
2025-03-24 18:55:06.231,1.4394471727682545
2025-03-24 18:55:06.240,-2.7203413013532733
2025-03-24 18:55:06.240,-4.359634312861009
2025-03-24 18:55:06.241,-1.4141854165334247
2025-03-24 18:55:06.241,2.740670780975198
2025-03-24 18:55:06.241,3.4949055989083773
2025-03-24 18:55:06.249,0.6829457076716035
2025-03-24 18:55:06.249,-1.7109193559121483
2025-03-24 18:55:06.249,-1.148748186463295
2025-03-24 18:55:06.249,0.3729994861199418
2025-03-24 18:55:06.249,-0.10455942359080916
2025-03-24 18:55:06.259,-1.7652218363043597
2025-03-24 18:55:06.259,-1.2995523127167543
2025-03-24 18:55:06.259,1.7479641813413498
2025-03-24 18:55:06.259,3.767076525906843
2025-03-24 18:55:06.259,1.9087770307104313
2025-03-24 18:55:06.269,-2.1186261085716467
2025-03-24 18:55:06.269,-4.29825752973696
2025-03-24 18:55:06.269,-2.7458205659749497
2025-03-24 18:55:06.269,1.1585327237665446
2025-03-24 18:55:06.278,4.456108347434528
2025-03-24 18:55:06.279,4.323957667069391
2025-03-24 18:55:06.279,-0.0023167413084087263
2025-03-24 18:55:06.279,-5.312387906428543
2025-03-24 18:55:06.279,-6.070167356571038
2025-03-24 18:55:06.288,-0.3780451722648765
2025-03-24 18:55:06.288,6.417152866544007
2025-03-24 18:55:06.289,6.730010799257961
2025-03-24 18:55:06.289,-0.17426849420716806
2025-03-24 18:55:06.289,-6.560583044725468
2025-03-24 18:55:06.298,-5.331856437837722
2025-03-24 18:55:06.299,1.2808221213167283
2025-03-24 18:55:06.299,4.984694762818388
2025-03-24 18:55:06.299,2.251968441203001
2025-03-24 18:55:06.299,-2.0093327617568058
2025-03-24 18:55:06.308,-2.1807030538425
2025-03-24 18:55:06.308,0.6453629702145014
2025-03-24 18:55:06.309,1.5596086491192878
2025-03-24 18:55:06.309,-0.4832208318502865
2025-03-24 18:55:06.309,-1.7405638365524383
2025-03-24 18:55:06.318,-0.009528233861010468
2025-03-24 18:55:06.318,1.9187743189116095
2025-03-24 18:55:06.319,0.7645356492258548
2025-03-24 18:55:06.319,-1.9046765116623932
2025-03-24 18:55:06.319,-1.7666961276399293
2025-03-24 18:55:06.330,1.6458083330868516
2025-03-24 18:55:06.330,3.5904143738279144
2025-03-24 18:55:06.331,0.4863202786363933
2025-03-24 18:55:06.331,-4.546490028253806
2025-03-24 18:55:06.331,-4.934801818305331
2025-03-24 18:55:06.338,0.9190462513609751
2025-03-24 18:55:06.338,6.832110996310583
2025-03-24 18:55:06.338,5.742135740353936
2025-03-24 18:55:06.338,-1.7607871008516205
2025-03-24 18:55:06.339,-7.644811973663687
2025-03-24 18:55:06.348,-5.449159845937729
2025-03-24 18:55:06.348,2.2933102385873125
2025-03-24 18:55:06.348,6.9476222000631775
2025-03-24 18:55:06.348,3.715669798295018
2025-03-24 18:55:06.348,-3.061722344659633
2025-03-24 18:55:06.358,-5.400141006678459
2025-03-24 18:55:06.358,-1.1021209519259985
2025-03-24 18:55:06.358,4.109074750936972
2025-03-24 18:55:06.358,3.7876861399135273
2025-03-24 18:55:06.359,-1.5303992339360406
2025-03-24 18:55:06.368,-5.105840591304795
2025-03-24 18:55:06.368,-2.306734872379468
2025-03-24 18:55:06.368,3.5454260613678867
2025-03-24 18:55:06.368,5.268304736063634
2025-03-24 18:55:06.369,0.8870161624872825
2025-03-24 18:55:06.378,-4.076378029354113
2025-03-24 18:55:06.378,-3.9085971631599703
2025-03-24 18:55:06.379,0.32556644804044
2025-03-24 18:55:06.379,2.938955800466297
2025-03-24 18:55:06.379,1.2139786420653857
2025-03-24 18:55:06.388,-1.62701312241143
2025-03-24 18:55:06.388,-1.2710903642681664
2025-03-24 18:55:06.389,1.83948877083082
2025-03-24 18:55:06.389,3.2380928992907183
2025-03-24 18:55:06.389,0.4724337874207489
2025-03-24 18:55:06.398,-3.632913179523354
2025-03-24 18:55:06.398,-4.500042964369914
2025-03-24 18:55:06.399,-1.171314675058276
2025-03-24 18:55:06.399,3.0207996177680863
2025-03-24 18:55:06.399,4.418597876850169
2025-03-24 18:55:06.406,2.4912589813894193
2025-03-24 18:55:06.407,-0.5180984320771853
2025-03-24 18:55:06.407,-2.36122571109341
2025-03-24 18:55:06.407,-2.632367089474128
2025-03-24 18:55:06.418,-2.1413597060541547
2025-03-24 18:55:06.418,-1.2131566925884427
2025-03-24 18:55:06.418,0.6536333747547555
2025-03-24 18:55:06.419,3.2674315944904055
2025-03-24 18:55:06.419,4.618082198776672
2025-03-24 18:55:06.419,2.480066890310181
2025-03-24 18:55:06.427,-2.4272861010612803
2025-03-24 18:55:06.427,-5.951028023783459
2025-03-24 18:55:06.427,-4.5001844721166675
2025-03-24 18:55:06.427,0.6801720749092621
2025-03-24 18:55:06.427,4.529402923871335
2025-03-24 18:55:06.437,3.770324611482309
2025-03-24 18:55:06.437,0.34432170757050873
2025-03-24 18:55:06.437,-1.506851745187219
2025-03-24 18:55:06.437,-0.6080702515983536
2025-03-24 18:55:06.446,0.2683719397382115
2025-03-24 18:55:06.447,-1.1537798256152019
2025-03-24 18:55:06.447,-3.1331723840208956
2025-03-24 18:55:06.447,-2.140029456779864
2025-03-24 18:55:06.447,2.1210381207889446
2025-03-24 18:55:06.456,5.537941417823703
2025-03-24 18:55:06.457,4.042438886621128
2025-03-24 18:55:06.457,-1.4868203087246152
2025-03-24 18:55:06.457,-5.741162128642123
2025-03-24 18:55:06.457,-4.592784909221481
2025-03-24 18:55:06.466,0.4782365952986943
2025-03-24 18:55:06.466,4.164583125885451
2025-03-24 18:55:06.467,3.2063057952327743
2025-03-24 18:55:06.467,-0.3725245055345473
2025-03-24 18:55:06.467,-2.1443551327635926
2025-03-24 18:55:06.476,-0.6088598533165575
2025-03-24 18:55:06.476,1.4268716059243909
2025-03-24 18:55:06.477,0.8736108485765766
2025-03-24 18:55:06.477,-1.583957670058762
2025-03-24 18:55:06.477,-2.650415983747659
2025-03-24 18:55:06.486,-0.8440027550222657
2025-03-24 18:55:06.486,1.9218907388073025
2025-03-24 18:55:06.487,3.0463812557628547
2025-03-24 18:55:06.487,1.9041532796315201
2025-03-24 18:55:06.487,-0.42068701918560536
2025-03-24 18:55:06.496,-2.516423983458816
2025-03-24 18:55:06.496,-3.1368792286613276
2025-03-24 18:55:06.497,-1.5893141129910986
2025-03-24 18:55:06.497,1.33786784387545
2025-03-24 18:55:06.497,3.428751868935678
2025-03-24 18:55:06.505,2.92375985267277
2025-03-24 18:55:06.505,0.26580302198964617
2025-03-24 18:55:06.505,-2.407005047845435
2025-03-24 18:55:06.505,-3.2612536151808325
2025-03-24 18:55:06.515,-1.9837548010514177
2025-03-24 18:55:06.515,0.4907553894287589
2025-03-24 18:55:06.515,2.7339098587597572
2025-03-24 18:55:06.515,3.3881192989393525
2025-03-24 18:55:06.515,1.778453530285893
2025-03-24 18:55:06.515,-1.4330204321842757
2025-03-24 18:55:06.525,-4.216138374665088
2025-03-24 18:55:06.525,-4.216490134530703
2025-03-24 18:55:06.525,-0.5415258114154655
2025-03-24 18:55:06.525,4.705672293859447
2025-03-24 18:55:06.534,6.86480487842089
2025-03-24 18:55:06.535,2.546766257098465
2025-03-24 18:55:06.535,-5.498071725903751
2025-03-24 18:55:06.535,-9.0776658719643
2025-03-24 18:55:06.535,-3.234857521080968
2025-03-24 18:55:06.544,6.431275122664597
2025-03-24 18:55:06.545,9.10291177301044
2025-03-24 18:55:06.545,2.0075906438874913
2025-03-24 18:55:06.545,-5.995143359085978
2025-03-24 18:55:06.545,-6.032096467098659
2025-03-24 18:55:06.554,-0.08206008952987931
2025-03-24 18:55:06.555,3.415916355461062
2025-03-24 18:55:06.555,1.458589002173727
2025-03-24 18:55:06.555,-1.1422285856886072
2025-03-24 18:55:06.555,-0.17797354734714205
2025-03-24 18:55:06.555,2.2453279058883986
2025-03-24 18:55:06.565,1.7226672818770856
2025-03-24 18:55:06.565,-1.9147772002003964
2025-03-24 18:55:06.565,-4.308820821644609
2025-03-24 18:55:06.565,-2.046857770197876
2025-03-24 18:55:06.574,2.940198491156414
2025-03-24 18:55:06.575,5.111084267306138
2025-03-24 18:55:06.575,1.6328207768550231
2025-03-24 18:55:06.575,-3.8175631807680097
2025-03-24 18:55:06.575,-4.931921228254884
2025-03-24 18:55:06.584,-0.31357324337910975
2025-03-24 18:55:06.585,4.647987995075073
2025-03-24 18:55:06.585,4.179686429269636
2025-03-24 18:55:06.585,-1.064622962400787
2025-03-24 18:55:06.585,-5.010876963660342
2025-03-24 18:55:06.594,-3.3962509949973274
2025-03-24 18:55:06.595,1.6062560545089377
2025-03-24 18:55:06.595,4.472758444036047
2025-03-24 18:55:06.595,2.7726934049271947
2025-03-24 18:55:06.595,-0.8812438004956961
2025-03-24 18:55:06.604,-2.8123542484748403
2025-03-24 18:55:06.605,-2.23838430825983
2025-03-24 18:55:06.605,-0.7197825827726372
2025-03-24 18:55:06.605,0.5395666477694911
2025-03-24 18:55:06.605,1.4351728133229156
2025-03-24 18:55:06.614,1.8718993572233837
2025-03-24 18:55:06.614,1.3420455485734946
2025-03-24 18:55:06.614,-0.24216133960418942
2025-03-24 18:55:06.615,-1.8263027590965688
2025-03-24 18:55:06.615,-1.8576945749015399
2025-03-24 18:55:06.623,-0.14766654901929843
2025-03-24 18:55:06.623,1.2544373810429472
2025-03-24 18:55:06.623,0.35312770267437155
2025-03-24 18:55:06.623,-1.5565597810884193
2025-03-24 18:55:06.623,-0.9875489306358098
2025-03-24 18:55:06.633,2.4863055387080424
2025-03-24 18:55:06.633,4.457381005987511
2025-03-24 18:55:06.633,1.2785399535544215
2025-03-24 18:55:06.633,-4.348591236198218
2025-03-24 18:55:06.633,-6.1723840678715955
2025-03-24 18:55:06.643,-2.1028391066688323
2025-03-24 18:55:06.643,3.4799003891475646
2025-03-24 18:55:06.643,5.2748712376133104
2025-03-24 18:55:06.643,2.7633680893459274
2025-03-24 18:55:06.643,-0.517881346003335
2025-03-24 18:55:06.652,-1.9262947428896455
2025-03-24 18:55:06.653,-2.1754895382137827
2025-03-24 18:55:06.653,-2.7358423137499006
2025-03-24 18:55:06.653,-2.5387547403590895
2025-03-24 18:55:06.662,0.5723366571584604
2025-03-24 18:55:06.662,5.162820134499286
2025-03-24 18:55:06.663,5.9178884103180165
2025-03-24 18:55:06.663,0.29995628150986936
2025-03-24 18:55:06.663,-6.4148828803478635
2025-03-24 18:55:06.672,-6.376974657436175
2025-03-24 18:55:06.673,0.7137657424090117
2025-03-24 18:55:06.673,6.470837405992393
2025-03-24 18:55:06.673,4.200041951728821
2025-03-24 18:55:06.673,-2.776037077249216
2025-03-24 18:55:06.682,-5.794506943479397
2025-03-24 18:55:06.683,-1.7460223486281603
2025-03-24 18:55:06.683,4.046891125277075
2025-03-24 18:55:06.683,5.186403911300333
2025-03-24 18:55:06.683,1.188255837995813
2025-03-24 18:55:06.692,-3.507449433329953
2025-03-24 18:55:06.693,-4.955829252233021
2025-03-24 18:55:06.693,-2.6357896588208516
2025-03-24 18:55:06.693,1.466429106440364
2025-03-24 18:55:06.693,4.662974295265173
2025-03-24 18:55:06.702,4.71351296951246
2025-03-24 18:55:06.702,1.0790770780738017
2025-03-24 18:55:06.702,-3.9228088047649696
2025-03-24 18:55:06.703,-6.086629370585351
2025-03-24 18:55:06.703,-2.9710121543401535
2025-03-24 18:55:06.712,3.0026801705430284
2025-03-24 18:55:06.712,6.123283048274242
2025-03-24 18:55:06.712,3.1759634875000344
2025-03-24 18:55:06.713,-2.612811848556079
2025-03-24 18:55:06.713,-4.776515582838445
2025-03-24 18:55:06.721,-1.1578051054607177
2025-03-24 18:55:06.721,3.261511247263963
2025-03-24 18:55:06.721,2.4659481864934376
2025-03-24 18:55:06.721,-2.6938353270931117
2025-03-24 18:55:06.721,-5.046121265486626
2025-03-24 18:55:06.731,-0.14028425425826085
2025-03-24 18:55:06.731,7.201042812411197
2025-03-24 18:55:06.731,7.649053232071138
2025-03-24 18:55:06.731,-1.2433469596863693
2025-03-24 18:55:06.731,-10.737794479523295
2025-03-24 18:55:06.741,-10.019352447153253
2025-03-24 18:55:06.741,1.2204067424640217
2025-03-24 18:55:06.741,11.758883543524083
2025-03-24 18:55:06.741,10.94850089230083
2025-03-24 18:55:06.750,0.006190339487712415
2025-03-24 18:55:06.750,-9.917812487354905
2025-03-24 18:55:06.751,-9.776087170071797
2025-03-24 18:55:06.751,-1.2970998386278034
2025-03-24 18:55:06.751,6.149365390760909
2025-03-24 18:55:06.760,6.089294088752234
2025-03-24 18:55:06.760,1.1826773462828746
2025-03-24 18:55:06.760,-1.4887640149184416
2025-03-24 18:55:06.761,0.029057685514958742
2025-03-24 18:55:06.761,0.6468128627522173
2025-03-24 18:55:06.769,-3.2486260330183194
2025-03-24 18:55:06.769,-6.92255301166196
2025-03-24 18:55:06.769,-3.0513215818751345
2025-03-24 18:55:06.769,6.791178000432284
2025-03-24 18:55:06.770,11.673416799811267
2025-03-24 18:55:06.779,4.576505245396516
2025-03-24 18:55:06.779,-7.660191003440446
2025-03-24 18:55:06.779,-11.865538454060342
2025-03-24 18:55:06.779,-4.428739622570763
2025-03-24 18:55:06.788,5.210740191043322
2025-03-24 18:55:06.789,7.333709342778392
2025-03-24 18:55:06.789,2.9884316852015305
2025-03-24 18:55:06.789,-0.509062441002594
2025-03-24 18:55:06.789,-0.6804882515891697
2025-03-24 18:55:06.798,-1.2258791433971652
2025-03-24 18:55:06.799,-3.889416426573187
2025-03-24 18:55:06.799,-4.751978274077684
2025-03-24 18:55:06.799,-0.3676925924965877
2025-03-24 18:55:06.799,6.004385074968559
2025-03-24 18:55:06.808,7.412506663691785
2025-03-24 18:55:06.808,1.6209227506155233
2025-03-24 18:55:06.809,-5.845683284524216
2025-03-24 18:55:06.809,-7.646943177923623
2025-03-24 18:55:06.809,-2.3987575270022443
2025-03-24 18:55:06.818,4.383070736936119
2025-03-24 18:55:06.819,6.451201300740836
2025-03-24 18:55:06.819,2.7859875895743307
2025-03-24 18:55:06.819,-2.47644565665995
2025-03-24 18:55:06.819,-4.709607601955093
2025-03-24 18:55:06.828,-2.729623810956595
2025-03-24 18:55:06.828,1.0034573246070737
2025-03-24 18:55:06.829,3.0631091697934094
2025-03-24 18:55:06.829,2.05244027844482
2025-03-24 18:55:06.829,-0.5096238504241231
2025-03-24 18:55:06.838,-2.0627184362626987
2025-03-24 18:55:06.838,-1.4628737782927372
2025-03-24 18:55:06.839,0.5332817107974371
2025-03-24 18:55:06.839,2.324570657606484
2025-03-24 18:55:06.839,2.279506178518143
2025-03-24 18:55:06.848,-0.33687280867758984
2025-03-24 18:55:06.848,-3.8208018883270056
2025-03-24 18:55:06.848,-4.411814464513077
2025-03-24 18:55:06.849,-0.27451703194767374
2025-03-24 18:55:06.849,5.182077118383416
2025-03-24 18:55:06.857,6.138972653157008
2025-03-24 18:55:06.857,1.0946976755299567
2025-03-24 18:55:06.857,-4.955765333968274
2025-03-24 18:55:06.857,-6.065755463860946
2025-03-24 18:55:06.857,-1.7817956184200452
2025-03-24 18:55:06.867,3.1389515747052315
2025-03-24 18:55:06.867,4.406892741605603
2025-03-24 18:55:06.867,2.0442767987131436
2025-03-24 18:55:06.867,-0.9778539506417646
2025-03-24 18:55:06.867,-2.2702236231624946
2025-03-24 18:55:06.877,-1.6904502631762517
2025-03-24 18:55:06.877,-0.431899857178335
2025-03-24 18:55:06.877,0.5221761275529522
2025-03-24 18:55:06.877,0.8770378820748279
2025-03-24 18:55:06.877,0.7051048810646623
2025-03-24 18:55:06.886,0.349383717962377
2025-03-24 18:55:06.887,0.2402798669974221
2025-03-24 18:55:06.887,0.1334446992430465
2025-03-24 18:55:06.887,-0.7513528749618374
2025-03-24 18:55:06.896,-1.9173613768664912
2025-03-24 18:55:06.897,-1.2273971551316536
2025-03-24 18:55:06.897,1.8359580296918956
2025-03-24 18:55:06.897,3.8804144947331247
2025-03-24 18:55:06.897,1.4078772038185232
2025-03-24 18:55:06.906,-3.606239707690412
2025-03-24 18:55:06.907,-5.141552361246773
2025-03-24 18:55:06.907,-0.7862028471742128
2025-03-24 18:55:06.907,4.728014298504266
2025-03-24 18:55:06.907,5.136758146828734
2025-03-24 18:55:06.916,0.1416444012719833
2025-03-24 18:55:06.917,-4.5009316273747295
2025-03-24 18:55:06.917,-3.913746352914515
2025-03-24 18:55:06.917,0.5303849743137365
2025-03-24 18:55:06.917,3.4446119665585986
2025-03-24 18:55:06.926,1.9970327136436437
2025-03-24 18:55:06.927,-1.3008336623429742
2025-03-24 18:55:06.927,-2.371384920572913
2025-03-24 18:55:06.927,-0.4514813802138148
2025-03-24 18:55:06.927,1.7265767401135805
2025-03-24 18:55:06.936,1.605086940235027
2025-03-24 18:55:06.937,-0.40700086299117555
2025-03-24 18:55:06.937,-1.6524568179479742
2025-03-24 18:55:06.937,-0.47217363527830924
2025-03-24 18:55:06.937,1.4738213300743883
2025-03-24 18:55:06.946,1.1065794224813548
2025-03-24 18:55:06.946,-1.59061553820907
2025-03-24 18:55:06.947,-2.872323106787268
2025-03-24 18:55:06.947,-0.2875664777331953
2025-03-24 18:55:06.947,3.4581976937494785
2025-03-24 18:55:06.956,3.752921057348128
2025-03-24 18:55:06.956,-0.016697360633688013
2025-03-24 18:55:06.957,-3.856881903767151
2025-03-24 18:55:06.957,-3.9260408639672018
2025-03-24 18:55:06.957,-0.41540329824547517
2025-03-24 18:55:06.966,3.098716937509668
2025-03-24 18:55:06.966,3.3580899112570313
2025-03-24 18:55:06.967,0.6144424282090308
2025-03-24 18:55:06.967,-1.7959508752494515
2025-03-24 18:55:06.967,-1.4424687168684247
2025-03-24 18:55:06.976,0.23588384575558483
2025-03-24 18:55:06.976,0.17594731906377659
2025-03-24 18:55:06.977,-1.6435549953635775
2025-03-24 18:55:06.977,-1.933488955051841
2025-03-24 18:55:06.977,0.9870987706737686
2025-03-24 18:55:06.985,4.152295291853495
2025-03-24 18:55:06.985,3.4782087279868956
2025-03-24 18:55:06.985,-0.8554215070234842
2025-03-24 18:55:06.985,-4.438749969360731
2025-03-24 18:55:06.985,-3.781381907926636
2025-03-24 18:55:06.996,0.06011731410102303
2025-03-24 18:55:06.996,3.1115346663473007
2025-03-24 18:55:06.997,2.6511581946467504
2025-03-24 18:55:06.997,-0.4006733762009983
2025-03-24 18:55:06.997,-2.492548728005618
2025-03-24 18:55:07.005,-0.9831353626745977
2025-03-24 18:55:07.005,2.6096639242829194
2025-03-24 18:55:07.005,3.6191896274265516
2025-03-24 18:55:07.005,-0.1949886433104586
2025-03-24 18:55:07.005,-4.991603022453592
2025-03-24 18:55:07.016,-4.95401890559855
2025-03-24 18:55:07.016,0.3196749815997493
2025-03-24 18:55:07.017,5.118597821697487
2025-03-24 18:55:07.017,4.697735476879423
2025-03-24 18:55:07.017,0.5315890101486955
2025-03-24 18:55:07.025,-2.645289055629794
2025-03-24 18:55:07.025,-2.840571778455229
2025-03-24 18:55:07.025,-1.7187745672483405
2025-03-24 18:55:07.025,-0.716105836300824
2025-03-24 18:55:07.034,0.8077328377914021
2025-03-24 18:55:07.035,2.8741054698940327
2025-03-24 18:55:07.035,3.058040163059206
2025-03-24 18:55:07.035,-0.18576651978417028
2025-03-24 18:55:07.035,-3.826553957414979
2025-03-24 18:55:07.045,-3.228227744937649
2025-03-24 18:55:07.045,1.2113119414432854
2025-03-24 18:55:07.045,3.84528892619744
2025-03-24 18:55:07.045,1.3767167868849448
2025-03-24 18:55:07.045,-2.503112423654238
2025-03-24 18:55:07.055,-2.403944157072813
2025-03-24 18:55:07.055,1.1652327511732432
2025-03-24 18:55:07.055,2.7710943758378472
2025-03-24 18:55:07.055,-0.054904667924808664
2025-03-24 18:55:07.055,-3.2560937575692215
2025-03-24 18:55:07.064,-1.8758619431528776
2025-03-24 18:55:07.065,2.844016091151894
2025-03-24 18:55:07.065,4.5769202130673765
2025-03-24 18:55:07.065,0.21609816306265262
2025-03-24 18:55:07.065,-5.36466328008845
2025-03-24 18:55:07.074,-4.937352210363518
2025-03-24 18:55:07.075,1.688876645793548
2025-03-24 18:55:07.075,6.825420973405366
2025-03-24 18:55:07.075,4.228115663226742
2025-03-24 18:55:07.075,-3.211069709421191
2025-03-24 18:55:07.084,-7.02533590464854
2025-03-24 18:55:07.085,-3.0943430779427152
2025-03-24 18:55:07.085,4.107385561898165
2025-03-24 18:55:07.085,6.934810340833722
2025-03-24 18:55:07.085,2.640484896022847
2025-03-24 18:55:07.094,-4.357726239053247
2025-03-24 18:55:07.095,-7.315051588287009
2025-03-24 18:55:07.095,-3.5707957519231557
2025-03-24 18:55:07.095,3.4586488386953254
2025-03-24 18:55:07.095,7.69853130568371
2025-03-24 18:55:07.104,5.566749293888713
2025-03-24 18:55:07.104,-1.248367141860364
2025-03-24 18:55:07.105,-7.139289501138176
2025-03-24 18:55:07.105,-7.146923935118303
2025-03-24 18:55:07.105,-1.3062951402089467
2025-03-24 18:55:07.114,5.272379043086708
2025-03-24 18:55:07.114,7.029630019542579
2025-03-24 18:55:07.115,2.915535162012307
2025-03-24 18:55:07.115,-2.9682373833745186
2025-03-24 18:55:07.115,-5.356977982795522
2025-03-24 18:55:07.124,-2.696362135657426
2025-03-24 18:55:07.124,1.5980612299185128
2025-03-24 18:55:07.125,2.9788230781799863
2025-03-24 18:55:07.125,0.8140398716350099
2025-03-24 18:55:07.125,-1.355245916412198
2025-03-24 18:55:07.134,-0.7393068229685964
2025-03-24 18:55:07.135,1.2070244880379162
2025-03-24 18:55:07.135,1.3250877552725078
2025-03-24 18:55:07.135,-0.6632145833288656
2025-03-24 18:55:07.135,-1.9970632270157858
2025-03-24 18:55:07.143,-0.8598050140057711
2025-03-24 18:55:07.143,1.2642037013187724
2025-03-24 18:55:07.143,1.6886998210724333
2025-03-24 18:55:07.143,-0.055459491095345675
2025-03-24 18:55:07.144,-1.720235167123648
2025-03-24 18:55:07.153,-1.1120750459674553
2025-03-24 18:55:07.153,1.1867483350017856
2025-03-24 18:55:07.153,2.3307408401936813
2025-03-24 18:55:07.153,0.5912743643525269
2025-03-24 18:55:07.154,-2.258178530083186
2025-03-24 18:55:07.163,-2.753048436381691
2025-03-24 18:55:07.163,0.0209686719162972
2025-03-24 18:55:07.163,3.0038039469740325
2025-03-24 18:55:07.163,2.670401943777516
2025-03-24 18:55:07.173,-0.6906413387934096
2025-03-24 18:55:07.173,-3.2621055224384388
2025-03-24 18:55:07.173,-2.2276271964221626
2025-03-24 18:55:07.173,1.029588450530273
2025-03-24 18:55:07.173,2.8654084103675057
2025-03-24 18:55:07.182,1.7505876498918373
2025-03-24 18:55:07.183,-0.4923506776172084
2025-03-24 18:55:07.183,-1.6316374117138497
2025-03-24 18:55:07.183,-1.5565435213566106
2025-03-24 18:55:07.183,-1.1248047947727007
2025-03-24 18:55:07.192,-0.1103675820780957
2025-03-24 18:55:07.193,1.8429356998116275
2025-03-24 18:55:07.193,3.08765106291107
2025-03-24 18:55:07.193,1.3513456814624578
2025-03-24 18:55:07.193,-2.4102509366436533
2025-03-24 18:55:07.202,-4.007725265528671
2025-03-24 18:55:07.203,-1.2237344659683713
2025-03-24 18:55:07.203,2.7909142009998504
2025-03-24 18:55:07.203,3.2291987779577562
2025-03-24 18:55:07.203,-0.20918385394274713
2025-03-24 18:55:07.212,-2.954123399360261
2025-03-24 18:55:07.213,-1.4930933527399928
2025-03-24 18:55:07.213,2.1428052933107224
2025-03-24 18:55:07.213,3.0787886440612744
2025-03-24 18:55:07.213,-0.061445549355197554
2025-03-24 18:55:07.221,-3.372151243456624
2025-03-24 18:55:07.221,-2.7193914685237965
2025-03-24 18:55:07.221,0.9529022405388927
2025-03-24 18:55:07.221,2.950393651878256
2025-03-24 18:55:07.221,1.0496940810400925
2025-03-24 18:55:07.231,-1.5914372164531534
2025-03-24 18:55:07.231,-0.9031038965837997
2025-03-24 18:55:07.231,2.1153646699513615
2025-03-24 18:55:07.231,2.441679516496668
2025-03-24 18:55:07.241,-1.7156378942122825
2025-03-24 18:55:07.241,-5.524294831615415
2025-03-24 18:55:07.241,-3.4048582893844097
2025-03-24 18:55:07.241,3.320560760919951
2025-03-24 18:55:07.241,7.362596200002017
2025-03-24 18:55:07.250,4.061496689777044
2025-03-24 18:55:07.251,-3.107754126210852
2025-03-24 18:55:07.251,-6.70652083833919
2025-03-24 18:55:07.251,-3.784659620254904
2025-03-24 18:55:07.251,1.541199754766068
2025-03-24 18:55:07.260,3.7986357616915867
2025-03-24 18:55:07.261,2.350710862205524
2025-03-24 18:55:07.261,0.5140326924651136
2025-03-24 18:55:07.261,0.07605501786229443
2025-03-24 18:55:07.261,-0.5106206933602979
2025-03-24 18:55:07.270,-2.3049205232579384
2025-03-24 18:55:07.271,-3.142506712949076
2025-03-24 18:55:07.271,-0.7057216769427899
2025-03-24 18:55:07.271,3.238315956044767
2025-03-24 18:55:07.271,4.293178885583938
2025-03-24 18:55:07.280,1.029762565613866
2025-03-24 18:55:07.281,-3.081855338365988
2025-03-24 18:55:07.281,-3.9017022707480034
2025-03-24 18:55:07.281,-1.0553895189483569
2025-03-24 18:55:07.281,2.476586239187933
2025-03-24 18:55:07.290,3.5567270129555064
2025-03-24 18:55:07.290,1.1154640448027882
2025-03-24 18:55:07.291,-2.932800777314446
2025-03-24 18:55:07.291,-4.367118103459138
2025-03-24 18:55:07.291,-0.5823052356100329
2025-03-24 18:55:07.300,5.107229149349252
2025-03-24 18:55:07.300,5.748673748962971
2025-03-24 18:55:07.301,-0.7191154381979454
2025-03-24 18:55:07.301,-7.556398619460656
2025-03-24 18:55:07.301,-6.62931567699584
2025-03-24 18:55:07.310,1.5679204200536832
2025-03-24 18:55:07.310,8.255659452079838
2025-03-24 18:55:07.310,6.594692909218965
2025-03-24 18:55:07.311,-0.9858471706941508
2025-03-24 18:55:07.311,-6.475334969769937
2025-03-24 18:55:07.320,-5.3829931768983075
2025-03-24 18:55:07.321,-0.4569942688916096
2025-03-24 18:55:07.321,2.941924014187814
2025-03-24 18:55:07.321,2.92778794493163
2025-03-24 18:55:07.321,1.5323336466232123
2025-03-24 18:55:07.329,0.6739635890754537
2025-03-24 18:55:07.329,-0.02489237781329795
2025-03-24 18:55:07.329,-1.4034933765385702
2025-03-24 18:55:07.329,-2.713843133422871
2025-03-24 18:55:07.338,-2.3560662700317536
2025-03-24 18:55:07.339,0.08045143178204442
2025-03-24 18:55:07.339,3.0054852599714037
2025-03-24 18:55:07.339,3.8741118658580067
2025-03-24 18:55:07.339,1.4114157805165242
2025-03-24 18:55:07.339,-2.640158669733317
2025-03-24 18:55:07.349,-4.516868505112358
2025-03-24 18:55:07.349,-2.1336147947461286
2025-03-24 18:55:07.349,2.34891743837633
2025-03-24 18:55:07.349,4.493174907320805
2025-03-24 18:55:07.349,2.2094478365193204
2025-03-24 18:55:07.359,-2.147152815925882
2025-03-24 18:55:07.359,-4.322044575701781
2025-03-24 18:55:07.359,-2.2978952598436204
2025-03-24 18:55:07.359,2.032223355523507
2025-03-24 18:55:07.369,4.640558435582176
2025-03-24 18:55:07.369,2.8248800954433886
2025-03-24 18:55:07.369,-2.153107793291609
2025-03-24 18:55:07.369,-5.598500640067469
2025-03-24 18:55:07.369,-3.6481886464100146
2025-03-24 18:55:07.378,2.278949352628848
2025-03-24 18:55:07.379,6.277365056976225
2025-03-24 18:55:07.379,4.1973869085650115
2025-03-24 18:55:07.379,-1.702406315039538
2025-03-24 18:55:07.379,-5.467758871929042
2025-03-24 18:55:07.389,-4.063740146791611
2025-03-24 18:55:07.389,0.1586913984183779
2025-03-24 18:55:07.389,3.101242904905708
2025-03-24 18:55:07.389,3.1638427399278086
2025-03-24 18:55:07.389,1.5233064930902906
2025-03-24 18:55:07.398,-0.20649838326914688
2025-03-24 18:55:07.399,-1.407214318451289
2025-03-24 18:55:07.399,-2.085428036540168
2025-03-24 18:55:07.399,-2.1129803574200205
2025-03-24 18:55:07.399,-1.1394423883574873
2025-03-24 18:55:07.408,0.8888962031581472
2025-03-24 18:55:07.409,3.116418147006291
2025-03-24 18:55:07.409,3.800332999396428
2025-03-24 18:55:07.409,1.6098012055399415
2025-03-24 18:55:07.409,-2.519112234574534
2025-03-24 18:55:07.418,-5.3233861793183594
2025-03-24 18:55:07.419,-4.069918909432786
2025-03-24 18:55:07.419,0.4460708603568867
2025-03-24 18:55:07.419,4.553931050894746
2025-03-24 18:55:07.419,5.30875691660972
2025-03-24 18:55:07.427,2.633536345527225
2025-03-24 18:55:07.427,-1.6158977738086127
2025-03-24 18:55:07.427,-5.072548259059625
2025-03-24 18:55:07.427,-5.446598925079215
2025-03-24 18:55:07.427,-1.860890748962222
2025-03-24 18:55:07.437,3.4729827468126397
2025-03-24 18:55:07.437,6.359853762949226
2025-03-24 18:55:07.437,4.419931593586285
2025-03-24 18:55:07.437,-0.7891380109306696
2025-03-24 18:55:07.438,-5.386138171084446
2025-03-24 18:55:07.447,-5.981034151693359
2025-03-24 18:55:07.447,-1.7261421774631212
2025-03-24 18:55:07.447,4.398057135369373
2025-03-24 18:55:07.447,6.844299223255302
2025-03-24 18:55:07.447,2.654770543729638
2025-03-24 18:55:07.457,-4.374953029663977
2025-03-24 18:55:07.457,-6.98103046415571
2025-03-24 18:55:07.457,-2.4483212424049214
2025-03-24 18:55:07.457,4.427137692519992
2025-03-24 18:55:07.467,6.80034769683191
2025-03-24 18:55:07.467,2.675824148440549
2025-03-24 18:55:07.467,-3.8892110222181655
2025-03-24 18:55:07.467,-6.9592022810862195
2025-03-24 18:55:07.467,-3.757889254469573
2025-03-24 18:55:07.476,3.0369484275977134
2025-03-24 18:55:07.476,7.358874626274572
2025-03-24 18:55:07.477,5.07255277011651
2025-03-24 18:55:07.477,-1.9437533697112253
2025-03-24 18:55:07.477,-7.288050024936058
2025-03-24 18:55:07.486,-6.0684217485635115
2025-03-24 18:55:07.487,0.46208924137936913
2025-03-24 18:55:07.487,6.248462524696624
2025-03-24 18:55:07.487,6.2570657662723805
2025-03-24 18:55:07.487,1.0005174294957098
2025-03-24 18:55:07.496,-4.387787876463433
2025-03-24 18:55:07.497,-5.222496182725323
2025-03-24 18:55:07.497,-1.5020600556271282
2025-03-24 18:55:07.497,2.5047946267648014
2025-03-24 18:55:07.497,2.859865976344355
2025-03-24 18:55:07.506,0.21394797857475206
2025-03-24 18:55:07.507,-1.2281063760297761
2025-03-24 18:55:07.507,0.5693427425600508
2025-03-24 18:55:07.507,2.409639158057055
2025-03-24 18:55:07.507,0.4062200372549084
2025-03-24 18:55:07.516,-3.8044228565015143
2025-03-24 18:55:07.516,-4.580777997186662
2025-03-24 18:55:07.516,-0.0001495265602210194
2025-03-24 18:55:07.516,5.099691836564236
2025-03-24 18:55:07.516,5.046862217730426
2025-03-24 18:55:07.525,0.14291889545936642
2025-03-24 18:55:07.525,-4.159670331974116
2025-03-24 18:55:07.525,-3.8322483485036933
2025-03-24 18:55:07.525,-0.29011013749447334
2025-03-24 18:55:07.525,2.1959071867546123
2025-03-24 18:55:07.536,1.6675578726309817
2025-03-24 18:55:07.536,-0.06070557929196055
2025-03-24 18:55:07.536,-0.550456353586295
2025-03-24 18:55:07.537,0.2592278334678729
2025-03-24 18:55:07.537,0.7168156541334726
2025-03-24 18:55:07.545,-0.0490049412469415
2025-03-24 18:55:07.545,-1.214487655416234
2025-03-24 18:55:07.545,-1.3533853094712802
2025-03-24 18:55:07.545,0.01065616091119962
2025-03-24 18:55:07.545,1.6035334486451607
2025-03-24 18:55:07.556,1.4100266379130995
2025-03-24 18:55:07.557,-0.6642231587808783
2025-03-24 18:55:07.557,-1.8501296051741076
2025-03-24 18:55:07.557,-0.006641692113786957
2025-03-24 18:55:07.557,2.577315321635136
2025-03-24 18:55:07.565,1.6494086271073587
2025-03-24 18:55:07.565,-2.5575639440503055
2025-03-24 18:55:07.565,-4.611491336790258
2025-03-24 18:55:07.565,-1.0756618387907648
2025-03-24 18:55:07.566,4.356213466409767
2025-03-24 18:55:07.575,5.336849770553416
2025-03-24 18:55:07.575,0.8405752902193502
2025-03-24 18:55:07.575,-3.993686772172905
2025-03-24 18:55:07.575,-4.463543396645591
2025-03-24 18:55:07.585,-1.207679666381428
2025-03-24 18:55:07.585,1.9769579321782567
2025-03-24 18:55:07.585,2.9206210374297097
2025-03-24 18:55:07.585,2.016954272349474
2025-03-24 18:55:07.585,0.0252153827938393
2025-03-24 18:55:07.595,-2.3054994054314433
2025-03-24 18:55:07.595,-2.9488009309947
2025-03-24 18:55:07.595,-0.279883416623981
2025-03-24 18:55:07.595,3.3197537441288207
2025-03-24 18:55:07.595,3.016675787643559
2025-03-24 18:55:07.605,-1.6210130352599004
2025-03-24 18:55:07.605,-4.662503249628395
2025-03-24 18:55:07.605,-1.5091616516507331
2025-03-24 18:55:07.605,4.121662305066182
2025-03-24 18:55:07.605,4.722845363658024
2025-03-24 18:55:07.615,-0.7525906528071277
2025-03-24 18:55:07.615,-5.349142006133771
2025-03-24 18:55:07.615,-3.369730875669776
2025-03-24 18:55:07.615,2.390138938431803
2025-03-24 18:55:07.615,4.765291750022484
2025-03-24 18:55:07.625,1.427831861556805
2025-03-24 18:55:07.625,-2.8893776998744753
2025-03-24 18:55:07.625,-3.012864500079488
2025-03-24 18:55:07.625,0.427391419698326
2025-03-24 18:55:07.625,2.593038010555732
2025-03-24 18:55:07.634,0.9186438146794369
2025-03-24 18:55:07.635,-1.9321702548107484
2025-03-24 18:55:07.635,-1.9013957780987842
2025-03-24 18:55:07.635,1.0804546381642037
2025-03-24 18:55:07.635,2.9944161816734742
2025-03-24 18:55:07.644,0.9529102874338531
2025-03-24 18:55:07.644,-2.867892761209074
2025-03-24 18:55:07.645,-3.6243419274826927
2025-03-24 18:55:07.645,0.17246781509354395
2025-03-24 18:55:07.645,4.342792625565637
2025-03-24 18:55:07.654,3.712910698837012
2025-03-24 18:55:07.655,-1.4031896446234668
2025-03-24 18:55:07.655,-5.058022368638726
2025-03-24 18:55:07.655,-2.77705094228646
2025-03-24 18:55:07.655,2.6706045443694406
2025-03-24 18:55:07.663,4.516563379530579
2025-03-24 18:55:07.663,0.5414281552120199
2025-03-24 18:55:07.663,-3.9760488240561
2025-03-24 18:55:07.664,-2.933579569860714
2025-03-24 18:55:07.664,2.5786790780479665
2025-03-24 18:55:07.673,5.2695503959545436
2025-03-24 18:55:07.673,0.9259064193303308
2025-03-24 18:55:07.673,-5.605542459152447
2025-03-24 18:55:07.673,-5.968340803924906
2025-03-24 18:55:07.673,1.0117524884805604
2025-03-24 18:55:07.683,7.295009626288745
2025-03-24 18:55:07.683,5.391283877473837
2025-03-24 18:55:07.683,-2.411373664104591
2025-03-24 18:55:07.683,-7.045893208056301
2025-03-24 18:55:07.693,-3.670422955623252
2025-03-24 18:55:07.693,3.1816760615723303
2025-03-24 18:55:07.693,5.69257895246549
2025-03-24 18:55:07.693,1.6631171980593196
2025-03-24 18:55:07.693,-3.9236076568104203
2025-03-24 18:55:07.702,-4.954982806966842
2025-03-24 18:55:07.703,-0.37945446600567734
2025-03-24 18:55:07.703,5.184923845332937
2025-03-24 18:55:07.703,5.9555842064280125
2025-03-24 18:55:07.703,0.4529420490157959
2025-03-24 18:55:07.712,-6.540228151616286
2025-03-24 18:55:07.713,-7.944003525344093
2025-03-24 18:55:07.713,-1.617363588056197
2025-03-24 18:55:07.713,6.622638124002097
2025-03-24 18:55:07.713,8.705310193360797
2025-03-24 18:55:07.722,2.9832466124435966
2025-03-24 18:55:07.723,-4.39755044769271
2025-03-24 18:55:07.723,-6.8128891877819004
2025-03-24 18:55:07.723,-3.7367962085399777
2025-03-24 18:55:07.723,0.6428169159899249
2025-03-24 18:55:07.733,3.0114767767846353
2025-03-24 18:55:07.733,3.201846825627756
2025-03-24 18:55:07.733,2.2744909466710657
2025-03-24 18:55:07.733,0.795202069060422
2025-03-24 18:55:07.733,-0.8832702493344073
2025-03-24 18:55:07.742,-2.2778932078865624
2025-03-24 18:55:07.742,-3.1141485911677713
2025-03-24 18:55:07.743,-2.969832302599633
2025-03-24 18:55:07.743,-0.7602588345909718
2025-03-24 18:55:07.743,3.623222879700987
2025-03-24 18:55:07.751,6.966217824760393
2025-03-24 18:55:07.751,4.708749093324574
2025-03-24 18:55:07.751,-2.951570144662506
2025-03-24 18:55:07.752,-9.057592176097142
2025-03-24 18:55:07.752,-6.878863911492547
2025-03-24 18:55:07.761,1.8072594375432236
2025-03-24 18:55:07.761,8.184247183659863
2025-03-24 18:55:07.761,6.3395079454634065
2025-03-24 18:55:07.761,-0.6567192943685296
2025-03-24 18:55:07.761,-5.321273651459763
2025-03-24 18:55:07.772,-4.161307693772878
2025-03-24 18:55:07.773,0.0023054533910862873
2025-03-24 18:55:07.773,2.538565349102251
2025-03-24 18:55:07.773,1.772526937925933
2025-03-24 18:55:07.773,-0.4181434001402444
2025-03-24 18:55:07.781,-1.2223176742889463
2025-03-24 18:55:07.781,0.22324702790606746
2025-03-24 18:55:07.781,1.9667291981679353
2025-03-24 18:55:07.781,1.3164896860981237
2025-03-24 18:55:07.782,-1.7555167012736705
2025-03-24 18:55:07.791,-3.8435390676131496
2025-03-24 18:55:07.791,-1.8740795041738314
2025-03-24 18:55:07.791,2.644436938859849
2025-03-24 18:55:07.792,4.790782383005301
2025-03-24 18:55:07.792,2.0853387067912026
2025-03-24 18:55:07.801,-2.442655905997122
2025-03-24 18:55:07.801,-4.067349563225503
2025-03-24 18:55:07.801,-1.8924118772987328
2025-03-24 18:55:07.801,0.9902801280212865
2025-03-24 18:55:07.814,2.003182839539432
2025-03-24 18:55:07.814,1.6215945982948539
2025-03-24 18:55:07.815,1.2010648117252936
2025-03-24 18:55:07.815,0.41973884724777355
2025-03-24 18:55:07.815,-1.5107242511772045
2025-03-24 18:55:07.821,-3.22244383678146
2025-03-24 18:55:07.821,-2.123851838852475
2025-03-24 18:55:07.821,1.635309332472663
2025-03-24 18:55:07.821,4.131446405797438
2025-03-24 18:55:07.821,2.204732614732826
2025-03-24 18:55:07.830,-2.0143933356912194
2025-03-24 18:55:07.831,-3.3187032895483357
2025-03-24 18:55:07.831,-0.24396210330200896
2025-03-24 18:55:07.831,2.6905269080024574
2025-03-24 18:55:07.831,1.0063133350830735
2025-03-24 18:55:07.840,-3.2269773248253237
2025-03-24 18:55:07.841,-3.635180651280537
2025-03-24 18:55:07.841,1.7391332060739078
2025-03-24 18:55:07.841,6.8065006244028625
2025-03-24 18:55:07.841,4.507557039712854
2025-03-24 18:55:07.850,-3.8332827704186827
2025-03-24 18:55:07.850,-9.0319206484894
2025-03-24 18:55:07.851,-4.642708395239838
2025-03-24 18:55:07.851,4.948227383241148
2025-03-24 18:55:07.851,9.099600588537628
2025-03-24 18:55:07.860,3.295580296235472
2025-03-24 18:55:07.861,-5.4022923409558485
2025-03-24 18:55:07.861,-6.866363633001289
2025-03-24 18:55:07.861,-0.25332120200742625
2025-03-24 18:55:07.861,5.371367204397408
2025-03-24 18:55:07.870,3.0221788913410874
2025-03-24 18:55:07.871,-3.33872139986216
2025-03-24 18:55:07.871,-4.682720803013465
2025-03-24 18:55:07.871,0.7496716797324786
2025-03-24 18:55:07.871,5.4350621217334725
2025-03-24 18:55:07.879,3.115739248391725
2025-03-24 18:55:07.879,-2.915874809194475
2025-03-24 18:55:07.879,-4.774125371361743
2025-03-24 18:55:07.880,-0.6636540426008988
2025-03-24 18:55:07.880,3.342689795461375
2025-03-24 18:55:07.889,2.02891064941017
2025-03-24 18:55:07.889,-2.159282178016639
2025-03-24 18:55:07.889,-3.001558464285362
2025-03-24 18:55:07.889,0.89200450617132
2025-03-24 18:55:07.889,4.354116825691295
2025-03-24 18:55:07.899,2.619099760923261
2025-03-24 18:55:07.899,-2.5002727831656597
2025-03-24 18:55:07.899,-5.012720923389031
2025-03-24 18:55:07.899,-2.1663604140817094
2025-03-24 18:55:07.909,2.5609904981944425
2025-03-24 18:55:07.909,4.042258257646161
2025-03-24 18:55:07.909,1.410719526766399
2025-03-24 18:55:07.909,-1.7314645819125527
2025-03-24 18:55:07.909,-2.168607883139478
2025-03-24 18:55:07.919,-0.4594524561422425
2025-03-24 18:55:07.919,0.7983787211228286
2025-03-24 18:55:07.919,0.5101234367647443
2025-03-24 18:55:07.919,-0.31833124820225317
2025-03-24 18:55:07.919,-0.571108416880234
2025-03-24 18:55:07.929,-0.08756522772069936
2025-03-24 18:55:07.929,0.8613102771699356
2025-03-24 18:55:07.929,1.6755157116819521
2025-03-24 18:55:07.929,1.1431704428636422
2025-03-24 18:55:07.929,-1.3277076512577966
2025-03-24 18:55:07.939,-3.833186016112644
2025-03-24 18:55:07.939,-3.0115839637082167
2025-03-24 18:55:07.939,1.7108494091730795
2025-03-24 18:55:07.939,5.94185360829516
2025-03-24 18:55:07.939,4.495779900760462
2025-03-24 18:55:07.948,-2.0156275653683737
2025-03-24 18:55:07.949,-6.823889664738809
2025-03-24 18:55:07.949,-4.579771477674946
2025-03-24 18:55:07.949,2.159657252478267
2025-03-24 18:55:07.949,5.97395549465759
2025-03-24 18:55:07.958,3.3732468209347566
2025-03-24 18:55:07.958,-1.7815457610677452
2025-03-24 18:55:07.959,-3.8367549024298344
2025-03-24 18:55:07.959,-1.9096871317938593
2025-03-24 18:55:07.959,0.568308084180385
2025-03-24 18:55:07.968,1.200048983886037
2025-03-24 18:55:07.969,0.9757933512869903
2025-03-24 18:55:07.969,1.2961720073468221
2025-03-24 18:55:07.969,1.209176746651903
2025-03-24 18:55:07.969,-0.654893268906555
2025-03-24 18:55:07.978,-2.8624359983365704
2025-03-24 18:55:07.979,-2.4761506197495655
2025-03-24 18:55:07.979,0.5588819270025635
2025-03-24 18:55:07.979,2.854771998652919
2025-03-24 18:55:07.979,2.095878485702111
2025-03-24 18:55:07.987,-0.12845135235172805
2025-03-24 18:55:07.987,-1.1529700168072607
2025-03-24 18:55:07.987,-0.8407208814439412
2025-03-24 18:55:07.987,-0.6523943629499213
2025-03-24 18:55:07.997,-0.7250361043929672
2025-03-24 18:55:07.997,-0.0922680544770622
2025-03-24 18:55:07.997,0.9806528668374271
2025-03-24 18:55:07.997,1.1531013384874453
2025-03-24 18:55:07.997,0.3826489247917671
2025-03-24 18:55:07.997,0.018237764977010847
2025-03-24 18:55:08.007,0.21816952209034668
2025-03-24 18:55:08.007,-0.5205897469054417
2025-03-24 18:55:08.007,-2.2864883058301326
2025-03-24 18:55:08.007,-2.398638262808429
2025-03-24 18:55:08.017,0.8439206680629999
2025-03-24 18:55:08.017,4.490470238301981
2025-03-24 18:55:08.017,3.8072428337422433
2025-03-24 18:55:08.017,-1.2373293409029749
2025-03-24 18:55:08.017,-5.033479337267071
2025-03-24 18:55:08.027,-3.1215260670774585
2025-03-24 18:55:08.027,1.9248576942033344
2025-03-24 18:55:08.027,3.5797786918075505
2025-03-24 18:55:08.027,-0.11983779620922563
2025-03-24 18:55:08.027,-3.6694756747655655
2025-03-24 18:55:08.036,-1.2252493814591934
2025-03-24 18:55:08.037,4.966503362643732
2025-03-24 18:55:08.037,6.4182509649001
2025-03-24 18:55:08.037,-0.6187098399852352
2025-03-24 18:55:08.037,-9.050099288757313
2025-03-24 18:55:08.046,-8.684334117648534
2025-03-24 18:55:08.046,1.152319699477492
2025-03-24 18:55:08.047,10.185530805555533
2025-03-24 18:55:08.047,8.998615808747942
2025-03-24 18:55:08.047,-0.5088322903936514
2025-03-24 18:55:08.056,-8.172462921206769
2025-03-24 18:55:08.057,-7.226506133644357
2025-03-24 18:55:08.057,-0.49172647854945073
2025-03-24 18:55:08.057,4.549182214758513
2025-03-24 18:55:08.057,4.227981342401557
2025-03-24 18:55:08.065,1.0356099303197568
2025-03-24 18:55:08.065,-0.9887863646556235
2025-03-24 18:55:08.065,-0.9908993294682347
2025-03-24 18:55:08.065,-0.8927652147514827
2025-03-24 18:55:08.065,-1.639473212564082
2025-03-24 18:55:08.075,-1.6245535783948477
2025-03-24 18:55:08.075,0.5875261866919551
2025-03-24 18:55:08.075,3.2100824193457784
2025-03-24 18:55:08.075,2.780255906920119
2025-03-24 18:55:08.075,-1.001536139866244
2025-03-24 18:55:08.085,-3.9011473915676183
2025-03-24 18:55:08.085,-2.1379667709773478
2025-03-24 18:55:08.085,2.38648900359853
2025-03-24 18:55:08.085,4.0090156168950335
2025-03-24 18:55:08.085,0.4670335969802629
2025-03-24 18:55:08.095,-3.9908235030211365
2025-03-24 18:55:08.095,-3.8213021804686975
2025-03-24 18:55:08.095,0.9061928607209312
2025-03-24 18:55:08.095,4.697322098044217
2025-03-24 18:55:08.095,3.397442813509914
2025-03-24 18:55:08.105,-1.1492802442856533
2025-03-24 18:55:08.105,-3.8876138144842063
2025-03-24 18:55:08.105,-2.5767957687088137
2025-03-24 18:55:08.105,0.3825196943930045
2025-03-24 18:55:08.115,1.672680985054936
2025-03-24 18:55:08.115,1.0178591980280665
2025-03-24 18:55:08.115,0.6512064781332596
2025-03-24 18:55:08.115,1.5570933849063309
2025-03-24 18:55:08.115,1.6773681732653722
2025-03-24 18:55:08.125,-1.1985164423699393
2025-03-24 18:55:08.125,-5.27617168964129
2025-03-24 18:55:08.125,-5.378262178158225
2025-03-24 18:55:08.125,0.8493545029111909
2025-03-24 18:55:08.125,8.355034990223333
2025-03-24 18:55:08.134,8.842794180761038
2025-03-24 18:55:08.135,0.344991916970985
2025-03-24 18:55:08.135,-9.296713703183487
2025-03-24 18:55:08.135,-10.332478380716289
2025-03-24 18:55:08.135,-1.7404529006499783
2025-03-24 18:55:08.144,7.730659711888906
2025-03-24 18:55:08.145,9.075618258902695
2025-03-24 18:55:08.145,2.1635044290949885
2025-03-24 18:55:08.145,-5.088448879010863
2025-03-24 18:55:08.145,-5.684425340181608
2025-03-24 18:55:08.154,-0.672116657976069
2025-03-24 18:55:08.155,2.996547439256719
2025-03-24 18:55:08.155,1.2010607284646007
2025-03-24 18:55:08.155,-2.3606563914631877
2025-03-24 18:55:08.155,-1.4751619325167888
2025-03-24 18:55:08.164,3.4596824565045075
2025-03-24 18:55:08.165,5.187211027105969
2025-03-24 18:55:08.165,-0.32369252789579384
2025-03-24 18:55:08.165,-7.134145011810412
2025-03-24 18:55:08.165,-6.264485253731338
2025-03-24 18:55:08.174,2.2825506225025984
2025-03-24 18:55:08.174,8.753288391445437
2025-03-24 18:55:08.175,5.541250016098114
2025-03-24 18:55:08.175,-3.5923123974456685
2025-03-24 18:55:08.175,-8.30850395580072
2025-03-24 18:55:08.185,-3.8577059665915914
2025-03-24 18:55:08.185,4.107121393076203
2025-03-24 18:55:08.185,6.734669019358703
2025-03-24 18:55:08.185,1.907321816127093
2025-03-24 18:55:08.185,-4.234314084208004
2025-03-24 18:55:08.194,-4.905382817486417
2025-03-24 18:55:08.195,-0.15007339320151952
2025-03-24 18:55:08.195,4.073081872571888
2025-03-24 18:55:08.195,3.27814330610746
2025-03-24 18:55:08.195,-0.8595386109519798
2025-03-24 18:55:08.203,-3.48426848455313
2025-03-24 18:55:08.203,-2.375574961100659
2025-03-24 18:55:08.203,0.6156032689334863
2025-03-24 18:55:08.204,2.6644729121785695
2025-03-24 18:55:08.204,2.5504108885073666
2025-03-24 18:55:08.213,0.6466295504841306
2025-03-24 18:55:08.213,-1.7524911226877515
2025-03-24 18:55:08.213,-2.9525210904512034
2025-03-24 18:55:08.213,-2.0351216109780657
2025-03-24 18:55:08.223,0.22196430380089405
2025-03-24 18:55:08.223,2.1977441440866228
2025-03-24 18:55:08.223,2.884016787383508
2025-03-24 18:55:08.223,2.0237462553826133
2025-03-24 18:55:08.224,-0.23443819055440793
2025-03-24 18:55:08.233,-2.7923634091816734
2025-03-24 18:55:08.233,-3.6167845579714366
2025-03-24 18:55:08.233,-1.6933866834806375
2025-03-24 18:55:08.233,1.4445514203141587
2025-03-24 18:55:08.233,3.2159579327463397
2025-03-24 18:55:08.242,2.6327163729673067
2025-03-24 18:55:08.243,0.6642647426359409
2025-03-24 18:55:08.243,-1.335854189067214
2025-03-24 18:55:08.243,-2.524928427174439
2025-03-24 18:55:08.243,-2.333472762296569
2025-03-24 18:55:08.253,-0.5260017813210056
2025-03-24 18:55:08.253,2.0556832592270458
2025-03-24 18:55:08.253,3.279643282934911
2025-03-24 18:55:08.253,1.328052081036991
2025-03-24 18:55:08.253,-2.615531589888755
2025-03-24 18:55:08.263,-4.182521447304145
2025-03-24 18:55:08.263,-0.4746474709982898
2025-03-24 18:55:08.263,5.046944595040265
2025-03-24 18:55:08.263,5.202508047260668
2025-03-24 18:55:08.263,-1.7920865069145981
2025-03-24 18:55:08.272,-8.372204452835966
2025-03-24 18:55:08.273,-5.873968236845557
2025-03-24 18:55:08.273,4.181953569676209
2025-03-24 18:55:08.273,10.637057684602848
2025-03-24 18:55:08.273,5.670970932943414
2025-03-24 18:55:08.281,-5.502023906315263
2025-03-24 18:55:08.281,-10.51510889224405
2025-03-24 18:55:08.281,-4.287926448966414
2025-03-24 18:55:08.281,5.518748851690762
2025-03-24 18:55:08.282,8.11627019968621
2025-03-24 18:55:08.291,1.979790431973223
2025-03-24 18:55:08.291,-4.664614204644063
2025-03-24 18:55:08.291,-4.582063883268106
2025-03-24 18:55:08.292,0.40378307468027214
2025-03-24 18:55:08.292,3.2380335390768438
2025-03-24 18:55:08.301,1.12014306307932
2025-03-24 18:55:08.301,-1.8530035354054177
2025-03-24 18:55:08.301,-1.2925461439051251
2025-03-24 18:55:08.302,1.443237097894344
2025-03-24 18:55:08.302,1.838920633850005
2025-03-24 18:55:08.311,-0.8869760323982535
2025-03-24 18:55:08.311,-2.627616506427466
2025-03-24 18:55:08.311,-0.5159706973377903
2025-03-24 18:55:08.311,2.6493294157067315
2025-03-24 18:55:08.312,2.257401846006939
2025-03-24 18:55:08.321,-1.4193236195941592
2025-03-24 18:55:08.321,-3.3611823507629714
2025-03-24 18:55:08.321,-0.6929769042872647
2025-03-24 18:55:08.322,3.237301140334479
2025-03-24 18:55:08.331,3.1032348523757918
2025-03-24 18:55:08.331,-1.440172671989395
2025-03-24 18:55:08.331,-4.913217351293325
2025-03-24 18:55:08.331,-2.484084336344217
2025-03-24 18:55:08.331,3.77247120159008
2025-03-24 18:55:08.341,6.575066467934279
2025-03-24 18:55:08.341,1.8991585354407503
2025-03-24 18:55:08.341,-5.656318711254476
2025-03-24 18:55:08.341,-7.683328545451943
2025-03-24 18:55:08.341,-1.6621777256646018
2025-03-24 18:55:08.351,6.108227659428557
2025-03-24 18:55:08.351,7.6435945804409755
2025-03-24 18:55:08.351,1.8258259373318122
2025-03-24 18:55:08.351,-5.005985055825882
2025-03-24 18:55:08.351,-6.229009904561668
2025-03-24 18:55:08.361,-1.679148135395789
2025-03-24 18:55:08.361,3.0668712647040133
2025-03-24 18:55:08.361,3.498277918329104
2025-03-24 18:55:08.361,0.8136063576572501
2025-03-24 18:55:08.361,-0.8864615614102246
2025-03-24 18:55:08.369,-0.3411321679344419
2025-03-24 18:55:08.369,0.13122699358437212
2025-03-24 18:55:08.369,-0.9796842001309337
2025-03-24 18:55:08.370,-1.9448980006079521
2025-03-24 18:55:08.370,-0.6312836797944222
2025-03-24 18:55:08.379,2.051414081059827
2025-03-24 18:55:08.379,3.0305001894736487
2025-03-24 18:55:08.379,0.8447721077891418
2025-03-24 18:55:08.379,-2.497877711666661
2025-03-24 18:55:08.380,-3.5375123184593726
2025-03-24 18:55:08.389,-0.9579643444390024
2025-03-24 18:55:08.389,2.8618920988608165
2025-03-24 18:55:08.389,4.000845938253157
2025-03-24 18:55:08.389,0.9973220545068466
2025-03-24 18:55:08.390,-3.320490563024254
2025-03-24 18:55:08.399,-4.456295309696575
2025-03-24 18:55:08.399,-0.9794505162331613
2025-03-24 18:55:08.399,3.662684047162636
2025-03-24 18:55:08.399,4.561740723273971
2025-03-24 18:55:08.409,0.6525663886837955
2025-03-24 18:55:08.409,-3.8370910174179116
2025-03-24 18:55:08.409,-3.8153737329387187
2025-03-24 18:55:08.409,0.7194085371512624
2025-03-24 18:55:08.409,4.132387773260758
2025-03-24 18:55:08.419,1.770873030983159
2025-03-24 18:55:08.419,-3.5792581605168072
2025-03-24 18:55:08.419,-4.4508080482564365
2025-03-24 18:55:08.419,1.3694525523222412
2025-03-24 18:55:08.419,6.815722043833027
2025-03-24 18:55:08.429,4.215812920612283
2025-03-24 18:55:08.429,-4.186175989214386
2025-03-24 18:55:08.429,-8.443433462832855
2025-03-24 18:55:08.429,-3.3736468171567218
2025-03-24 18:55:08.429,5.119479705582279
2025-03-24 18:55:08.439,7.6175257757111865
2025-03-24 18:55:08.439,2.2864465230751883
2025-03-24 18:55:08.439,-4.063198135171727
2025-03-24 18:55:08.439,-4.8739488050448845
2025-03-24 18:55:08.439,-0.9820088289691944
2025-03-24 18:55:08.449,2.0011152559841565
2025-03-24 18:55:08.449,1.3356326398347085
2025-03-24 18:55:08.449,-0.3888033249206694
2025-03-24 18:55:08.449,-0.1080257222731677
2025-03-24 18:55:08.449,1.3951883154472853
2025-03-24 18:55:08.459,1.4555709621640325
2025-03-24 18:55:08.459,-0.3353013921334364
2025-03-24 18:55:08.459,-2.0428482558290333
2025-03-24 18:55:08.459,-2.2469285117149465
2025-03-24 18:55:08.459,-1.0839580628678593
2025-03-24 18:55:08.469,0.7943624051361189
2025-03-24 18:55:08.469,2.5824270916555263
2025-03-24 18:55:08.469,3.031517123457985
2025-03-24 18:55:08.469,1.291980124002846
2025-03-24 18:55:08.469,-1.7811783051925405
2025-03-24 18:55:08.479,-3.9046483879953793
2025-03-24 18:55:08.479,-3.220932332087343
2025-03-24 18:55:08.479,0.02236854096727854
2025-03-24 18:55:08.479,3.37664351342932
2025-03-24 18:55:08.479,4.05869733191418
2025-03-24 18:55:08.488,1.5366383653262956
2025-03-24 18:55:08.489,-1.889032484995848
2025-03-24 18:55:08.489,-3.484038977491915
2025-03-24 18:55:08.489,-2.544392504842462
2025-03-24 18:55:08.489,-0.12065157526410836
2025-03-24 18:55:08.498,2.4688788978784135
2025-03-24 18:55:08.499,3.764694951934926
2025-03-24 18:55:08.499,2.1697150132996974
2025-03-24 18:55:08.499,-2.0822903934129675
2025-03-24 18:55:08.499,-5.41450441344486
2025-03-24 18:55:08.508,-3.767072350582876
2025-03-24 18:55:08.509,2.202855674439559
2025-03-24 18:55:08.509,6.566590019038738
2025-03-24 18:55:08.509,4.397982381288364
2025-03-24 18:55:08.509,-2.2224872084794436
2025-03-24 18:55:08.518,-6.2708812724087455
2025-03-24 18:55:08.519,-3.773568329200573
2025-03-24 18:55:08.519,1.9748771334007889
2025-03-24 18:55:08.519,4.7292692738127675
2025-03-24 18:55:08.519,2.3439620640192858
2025-03-24 18:55:08.527,-1.6951482408532745
2025-03-24 18:55:08.527,-2.982124519407817
2025-03-24 18:55:08.527,-0.9048768040568261
2025-03-24 18:55:08.528,1.5677832326880536
2025-03-24 18:55:08.528,1.7300612344313453
2025-03-24 18:55:08.537,-0.09195649396152505
2025-03-24 18:55:08.537,-1.4750059699437668
2025-03-24 18:55:08.537,-0.9453351541999838
2025-03-24 18:55:08.538,0.4719078471021833
2025-03-24 18:55:08.538,0.9075813360897494
2025-03-24 18:55:08.547,0.2503760492778223
2025-03-24 18:55:08.547,0.03875845479239634
2025-03-24 18:55:08.547,0.7233637697429258
2025-03-24 18:55:08.548,0.6055724225120638
2025-03-24 18:55:08.557,-1.3868748782294034
2025-03-24 18:55:08.557,-3.1499575186025677
2025-03-24 18:55:08.557,-1.6377723628934915
2025-03-24 18:55:08.557,2.5938945083711284
2025-03-24 18:55:08.557,5.116734596711415
2025-03-24 18:55:08.567,2.6921327864386826
2025-03-24 18:55:08.567,-2.6351024654876607
2025-03-24 18:55:08.567,-5.581550108550902
2025-03-24 18:55:08.567,-3.3327966676472993
2025-03-24 18:55:08.567,1.6531810602666854
2025-03-24 18:55:08.576,4.548203998014825
2025-03-24 18:55:08.577,3.1506245085609876
2025-03-24 18:55:08.577,-0.4557621413641364
2025-03-24 18:55:08.577,-2.7657520316997832
2025-03-24 18:55:08.577,-2.4031624882814664
2025-03-24 18:55:08.587,-0.5668625686587814
2025-03-24 18:55:08.587,1.0552027071371204
2025-03-24 18:55:08.587,1.7496047154259173
2025-03-24 18:55:08.587,1.4574306235314922
2025-03-24 18:55:08.587,0.22219316231882932
2025-03-24 18:55:08.597,-1.4619269066853944
2025-03-24 18:55:08.597,-2.3171614260606574
2025-03-24 18:55:08.597,-1.1791495042224178
2025-03-24 18:55:08.597,1.4344330011911108
2025-03-24 18:55:08.597,3.1277550144022577
2025-03-24 18:55:08.607,1.8524400052480157
2025-03-24 18:55:08.607,-1.4856626287677026
2025-03-24 18:55:08.607,-3.4951648325813296
2025-03-24 18:55:08.607,-2.014272433872056
2025-03-24 18:55:08.607,1.2878239671008582
2025-03-24 18:55:08.616,2.8925637332090366
2025-03-24 18:55:08.617,1.554140128218052
2025-03-24 18:55:08.617,-0.6714132353954133
2025-03-24 18:55:08.617,-1.4082277187161603
2025-03-24 18:55:08.617,-0.6718895001501903
2025-03-24 18:55:08.625,-0.03338679007857522
2025-03-24 18:55:08.625,-0.10936184330190635
2025-03-24 18:55:08.625,-0.10531672574462977
2025-03-24 18:55:08.626,0.41338808141071465
2025-03-24 18:55:08.626,0.6921087916777013
2025-03-24 18:55:08.636,0.22441702238091044
2025-03-24 18:55:08.637,-0.2160151417171861
2025-03-24 18:55:08.637,-0.014817980252576718
2025-03-24 18:55:08.637,-0.05235382566158874
2025-03-24 18:55:08.637,-0.9727187973724116
2025-03-24 18:55:08.645,-1.1710834368010217
2025-03-24 18:55:08.645,0.955396972177343
2025-03-24 18:55:08.645,3.241792839987518
2025-03-24 18:55:08.646,1.6375700532006947
2025-03-24 18:55:08.646,-3.366379334593061
2025-03-24 18:55:08.656,-5.663388270045343
2025-03-24 18:55:08.657,-1.1760363302548122
2025-03-24 18:55:08.657,5.805956237761525
2025-03-24 18:55:08.657,7.065689009486234
2025-03-24 18:55:08.657,0.5836212870128467
2025-03-24 18:55:08.665,-6.662678614647398
2025-03-24 18:55:08.665,-6.840275432831324
2025-03-24 18:55:08.665,-0.23180642697695708
2025-03-24 18:55:08.666,5.640183962523471
2025-03-24 18:55:08.666,5.014911351621244
2025-03-24 18:55:08.675,-0.11013655554897145
2025-03-24 18:55:08.675,-3.5014956779811257
2025-03-24 18:55:08.675,-2.354900188434126
2025-03-24 18:55:08.676,0.46511776296214236
2025-03-24 18:55:08.676,1.2721171629509596
2025-03-24 18:55:08.685,0.14265498685550743
2025-03-24 18:55:08.685,-0.4631168957549098
2025-03-24 18:55:08.686,0.23944116356478917
2025-03-24 18:55:08.686,0.798250246341747
2025-03-24 18:55:08.697,0.21375191499350377
2025-03-24 18:55:08.697,-0.8331401636722612
2025-03-24 18:55:08.697,-1.2240358555312592
2025-03-24 18:55:08.697,-0.4335076108320413
2025-03-24 18:55:08.697,1.267180534698722
2025-03-24 18:55:08.697,2.450265914733924
2025-03-24 18:55:08.705,1.246492583763189
2025-03-24 18:55:08.705,-2.0921171462837727
2025-03-24 18:55:08.706,-4.233013015327539
2025-03-24 18:55:08.706,-2.2193776196902055
2025-03-24 18:55:08.706,2.4976486365816712
2025-03-24 18:55:08.715,5.220902997070161
2025-03-24 18:55:08.715,3.25065656932018
2025-03-24 18:55:08.715,-1.409867331781197
2025-03-24 18:55:08.716,-4.701316522261361
2025-03-24 18:55:08.725,-4.439932204494132
2025-03-24 18:55:08.725,-1.19508045926943
2025-03-24 18:55:08.725,3.0573424964801554
2025-03-24 18:55:08.725,5.70956416561751
2025-03-24 18:55:08.725,4.23026323181537
2025-03-24 18:55:08.735,-1.3653456799328811
2025-03-24 18:55:08.735,-6.659606659496549
2025-03-24 18:55:08.735,-6.06517255465134
2025-03-24 18:55:08.735,0.6263580001920613
2025-03-24 18:55:08.736,6.692801801549297
2025-03-24 18:55:08.745,5.575521934881061
2025-03-24 18:55:08.745,-1.2214778621722264
2025-03-24 18:55:08.745,-5.637531015074719
2025-03-24 18:55:08.745,-2.8137888826925233
2025-03-24 18:55:08.745,2.9435534386807793
2025-03-24 18:55:08.755,3.834359991703689
2025-03-24 18:55:08.755,-1.170168504934322
2025-03-24 18:55:08.755,-4.936533812337858
2025-03-24 18:55:08.755,-1.739023987655137
2025-03-24 18:55:08.755,4.837509429805589
2025-03-24 18:55:08.765,6.245192932955908
2025-03-24 18:55:08.765,-0.07843221859712518
2025-03-24 18:55:08.765,-7.197540435386201
2025-03-24 18:55:08.765,-6.775312822725956
2025-03-24 18:55:08.765,1.1848237469236462
2025-03-24 18:55:08.774,8.197659622163988
2025-03-24 18:55:08.775,6.7045812868850145
2025-03-24 18:55:08.775,-1.5490512824723597
2025-03-24 18:55:08.775,-7.614497067876119
2025-03-24 18:55:08.775,-5.547938599861665
2025-03-24 18:55:08.785,1.2915366270227422
2025-03-24 18:55:08.785,5.108822008565985
2025-03-24 18:55:08.785,2.9691374345076347
2025-03-24 18:55:08.785,-1.011917021491269
2025-03-24 18:55:08.785,-1.8731824369794092
2025-03-24 18:55:08.795,0.4330648172654434
2025-03-24 18:55:08.795,1.9810674247802686
2025-03-24 18:55:08.795,0.01174917948230178
2025-03-24 18:55:08.795,-3.6897021749624517
2025-03-24 18:55:08.795,-4.443734043220477
2025-03-24 18:55:08.803,-0.008246124993657622
2025-03-24 18:55:08.803,5.843966308306696
2025-03-24 18:55:08.804,6.572525541929505
2025-03-24 18:55:08.804,0.5410635044626928
2025-03-24 18:55:08.804,-6.172032678636272
2025-03-24 18:55:08.815,-6.4047235169682
2025-03-24 18:55:08.815,-0.3575344680154074
2025-03-24 18:55:08.815,4.8271254734157285
2025-03-24 18:55:08.815,3.8434536229860434
2025-03-24 18:55:08.815,-0.7929040737991901
2025-03-24 18:55:08.823,-2.7814459898270028
2025-03-24 18:55:08.823,-0.31651078341992706
2025-03-24 18:55:08.823,2.2565950393407
2025-03-24 18:55:08.824,1.0108378507655464
2025-03-24 18:55:08.833,-2.232303528441553
2025-03-24 18:55:08.833,-2.9354008922523893
2025-03-24 18:55:08.833,-0.23459107849974556
2025-03-24 18:55:08.834,2.41519359442789
2025-03-24 18:55:08.834,2.2814810467640876
2025-03-24 18:55:08.834,0.39428834815663955
2025-03-24 18:55:08.843,-0.7356865363709619
2025-03-24 18:55:08.843,-0.45681357686852575
2025-03-24 18:55:08.843,-0.1847123640245188
2025-03-24 18:55:08.843,-1.088952869111017
2025-03-24 18:55:08.853,-2.187942342249911
2025-03-24 18:55:08.853,-1.145397782855404
2025-03-24 18:55:08.853,2.354754129110285
2025-03-24 18:55:08.853,4.702844568444732
2025-03-24 18:55:08.853,2.099945152924403
2025-03-24 18:55:08.863,-3.5477859645798877
2025-03-24 18:55:08.863,-5.565317415740422
2025-03-24 18:55:08.863,-0.9945293124366343
2025-03-24 18:55:08.863,4.739961707851217
2025-03-24 18:55:08.863,4.454728024961377
2025-03-24 18:55:08.873,-1.4163785804581066
2025-03-24 18:55:08.873,-5.448515096848269
2025-03-24 18:55:08.873,-2.760791557033943
2025-03-24 18:55:08.873,3.201145735934609
2025-03-24 18:55:08.873,5.385874427833444
2025-03-24 18:55:08.883,1.5952401387529194
2025-03-24 18:55:08.883,-3.5565056024438313
2025-03-24 18:55:08.883,-4.513699162683648
2025-03-24 18:55:08.883,-0.8677941415204409
2025-03-24 18:55:08.883,2.9522585500777434
2025-03-24 18:55:08.893,3.03655896795154
2025-03-24 18:55:08.893,0.008645811807394155
2025-03-24 18:55:08.893,-2.260645583132725
2025-03-24 18:55:08.893,-1.275241087618487
2025-03-24 18:55:08.893,1.341773927220323
2025-03-24 18:55:08.903,1.9895972866114031
2025-03-24 18:55:08.903,-0.38675751511708
2025-03-24 18:55:08.903,-2.8531239918258557
2025-03-24 18:55:08.903,-2.063254277774781
2025-03-24 18:55:08.903,1.443025033363967
2025-03-24 18:55:08.913,3.6663174721675778
2025-03-24 18:55:08.913,1.9854153985900393
2025-03-24 18:55:08.913,-1.5952138034613546
2025-03-24 18:55:08.913,-3.0106891559361064
2025-03-24 18:55:08.913,-1.222894019864356
2025-03-24 18:55:08.923,0.9105888930228562
2025-03-24 18:55:08.923,0.9134987443247363
2025-03-24 18:55:08.923,-0.14444137877681848
2025-03-24 18:55:08.923,0.09505832913509309
2025-03-24 18:55:08.923,1.428142210487721
2025-03-24 18:55:08.931,1.4859385479957807
2025-03-24 18:55:08.931,-0.5430132070254949
2025-03-24 18:55:08.932,-2.584997727876134
2025-03-24 18:55:08.932,-2.3873893964671438
2025-03-24 18:55:08.932,-0.08439018642463064
2025-03-24 18:55:08.941,2.3575737334340894
2025-03-24 18:55:08.941,3.0262203802752765
2025-03-24 18:55:08.941,1.1897220394634995
2025-03-24 18:55:08.942,-1.9606745598353073
2025-03-24 18:55:08.942,-3.4670744696634372
2025-03-24 18:55:08.951,-1.3588389642510261
2025-03-24 18:55:08.951,2.3025087878635238
2025-03-24 18:55:08.951,3.189415811295891
2025-03-24 18:55:08.952,0.21663008653072638
2025-03-24 18:55:08.952,-2.8412668888319135
2025-03-24 18:55:08.961,-2.268505621962863
2025-03-24 18:55:08.961,0.9675508728266271
2025-03-24 18:55:08.961,2.881427076268728
2025-03-24 18:55:08.962,1.4839936817402495
2025-03-24 18:55:08.962,-1.296508862817794
2025-03-24 18:55:08.971,-2.311163480946877
2025-03-24 18:55:08.971,-0.7962281161076938
2025-03-24 18:55:08.972,1.0672251585538737
2025-03-24 18:55:08.972,1.0317685740134337
2025-03-24 18:55:08.972,-0.3726692835662669
2025-03-24 18:55:08.981,-0.7036875556315769
2025-03-24 18:55:08.981,0.7754295095775859
2025-03-24 18:55:08.981,1.7747029777841228
2025-03-24 18:55:08.982,0.22585136422937646
2025-03-24 18:55:08.982,-2.3256515463122724
2025-03-24 18:55:08.991,-2.4095156126517296
2025-03-24 18:55:08.991,0.5181749862614197
2025-03-24 18:55:08.992,2.927431839619015
2025-03-24 18:55:08.992,1.7330072340196634
2025-03-24 18:55:08.992,-1.5554745989310912
2025-03-24 18:55:09.001,-2.7227350615662775
2025-03-24 18:55:09.001,-0.28476840903017975
2025-03-24 18:55:09.001,2.6363274247672868
2025-03-24 18:55:09.002,2.283952439976603
2025-03-24 18:55:09.011,-1.046933921289753
2025-03-24 18:55:09.011,-3.350438519715542
2025-03-24 18:55:09.011,-1.7389944286231622
2025-03-24 18:55:09.011,2.030309575679633
2025-03-24 18:55:09.011,3.5059723639443634
2025-03-24 18:55:09.021,0.7941463592835251
2025-03-24 18:55:09.021,-3.0050706121924726
2025-03-24 18:55:09.021,-3.2738362187837153
2025-03-24 18:55:09.021,0.5603811217757318
2025-03-24 18:55:09.022,4.068379667862626
2025-03-24 18:55:09.031,2.9705247584605408
2025-03-24 18:55:09.031,-1.6963717175416435
2025-03-24 18:55:09.031,-4.786834687071422
2025-03-24 18:55:09.031,-3.0092662323151393
2025-03-24 18:55:09.032,1.7363613097693489
2025-03-24 18:55:09.041,4.905872428698443
2025-03-24 18:55:09.041,3.7699791908142455
2025-03-24 18:55:09.041,-0.6719092234835554
2025-03-24 18:55:09.041,-4.707221235933803
2025-03-24 18:55:09.041,-4.715449306754294
2025-03-24 18:55:09.050,-0.479466448402493
2025-03-24 18:55:09.051,4.056569893087781
2025-03-24 18:55:09.051,4.603431316560875
2025-03-24 18:55:09.051,1.129866188584172
2025-03-24 18:55:09.051,-2.5322383399169666
2025-03-24 18:55:09.061,-3.313845279989676
2025-03-24 18:55:09.061,-1.5394492862158502
2025-03-24 18:55:09.061,0.7714528330840084
2025-03-24 18:55:09.061,2.180885967846335
2025-03-24 18:55:09.061,2.0112663945850637
2025-03-24 18:55:09.071,0.13867878741476197
2025-03-24 18:55:09.071,-2.2554399424865026
2025-03-24 18:55:09.071,-2.836691941534893
2025-03-24 18:55:09.071,-0.4008116004513185
2025-03-24 18:55:09.071,3.1721559510385595
2025-03-24 18:55:09.079,4.258452803532073
2025-03-24 18:55:09.079,1.1993047721205479
2025-03-24 18:55:09.080,-3.631496229328137
2025-03-24 18:55:09.080,-5.812886656087928
2025-03-24 18:55:09.080,-3.043432055913218
2025-03-24 18:55:09.091,2.6147488316723866
2025-03-24 18:55:09.091,6.489069999148297
2025-03-24 18:55:09.091,5.244281015547206
2025-03-24 18:55:09.091,-0.3755034662426101
2025-03-24 18:55:09.091,-5.9284774129731455
2025-03-24 18:55:09.101,-6.601071898030684
2025-03-24 18:55:09.101,-1.5221620711156716
2025-03-24 18:55:09.101,4.705678521967701
2025-03-24 18:55:09.101,6.0660968635493715
2025-03-24 18:55:09.101,1.6245289389170616
2025-03-24 18:55:09.110,-3.266542635474683
2025-03-24 18:55:09.111,-3.42310611831885
2025-03-24 18:55:09.111,-0.031221026273029084
2025-03-24 18:55:09.111,1.6412656785365276
2025-03-24 18:55:09.111,-0.28857416733063157
2025-03-24 18:55:09.121,-2.084392140488715
2025-03-24 18:55:09.121,-0.13882396485540435
2025-03-24 18:55:09.121,3.59398062918227
2025-03-24 18:55:09.121,3.872333480273343
2025-03-24 18:55:09.121,-0.896640529079707
2025-03-24 18:55:09.131,-5.893831007441034
2025-03-24 18:55:09.131,-5.006204811259156
2025-03-24 18:55:09.131,1.7541317394191551
2025-03-24 18:55:09.131,7.323436024894678
2025-03-24 18:55:09.131,5.188225506074368
2025-03-24 18:55:09.139,-2.7101085446700965
2025-03-24 18:55:09.139,-7.635642423160598
2025-03-24 18:55:09.139,-4.199248433362641
2025-03-24 18:55:09.140,3.2388445683155833
2025-03-24 18:55:09.140,6.145590263902896
2025-03-24 18:55:09.149,2.240140956477867
2025-03-24 18:55:09.149,-2.654676014778228
2025-03-24 18:55:09.149,-2.949713382547919
2025-03-24 18:55:09.150,0.011751081337186775
2025-03-24 18:55:09.150,1.2380522391730304
2025-03-24 18:55:09.159,-0.5518899562375037
2025-03-24 18:55:09.159,-1.85717820056161
2025-03-24 18:55:09.159,-0.007642737129760727
2025-03-24 18:55:09.160,2.966749128583474
2025-03-24 18:55:09.160,3.0457381371514205
2025-03-24 18:55:09.169,-0.5948222085594942
2025-03-24 18:55:09.169,-4.306009616505818
2025-03-24 18:55:09.169,-3.783942933775533
2025-03-24 18:55:09.169,1.1193895438779131
2025-03-24 18:55:09.179,5.544974915056728
2025-03-24 18:55:09.179,4.29573604304828
2025-03-24 18:55:09.179,-2.0844597912535576
2025-03-24 18:55:09.179,-6.908458488013287
2025-03-24 18:55:09.179,-4.4746830355475735
2025-03-24 18:55:09.189,2.982637097639621
2025-03-24 18:55:09.189,7.4166106576940285
2025-03-24 18:55:09.189,4.1743051294660525
2025-03-24 18:55:09.189,-2.8921075873294573
2025-03-24 18:55:09.190,-6.347535520553767
2025-03-24 18:55:09.199,-3.493249382258334
2025-03-24 18:55:09.199,1.7496893175672643
2025-03-24 18:55:09.199,4.195298474652503
2025-03-24 18:55:09.199,2.623754407728182
2025-03-24 18:55:09.199,-0.3573409248802305
2025-03-24 18:55:09.209,-1.9381021068235882
2025-03-24 18:55:09.209,-1.5926424324447381
2025-03-24 18:55:09.209,-0.5755475027050407
2025-03-24 18:55:09.209,0.03353144260783855
2025-03-24 18:55:09.209,0.3524714951732887
2025-03-24 18:55:09.219,0.933339735586387
2025-03-24 18:55:09.219,1.4904244240554512
2025-03-24 18:55:09.219,0.9506674098422365
2025-03-24 18:55:09.219,-0.9838921874124491
2025-03-24 18:55:09.219,-2.6771423521981577
2025-03-24 18:55:09.229,-1.878127248047445
2025-03-24 18:55:09.229,1.2467539263999974
2025-03-24 18:55:09.229,3.369088022614725
2025-03-24 18:55:09.229,1.7556330601139059
2025-03-24 18:55:09.229,-1.8067371568224544
2025-03-24 18:55:09.238,-2.938254347119695
2025-03-24 18:55:09.239,-0.5124762305354094
2025-03-24 18:55:09.239,1.885330063158408
2025-03-24 18:55:09.239,1.1394728764273039
2025-03-24 18:55:09.239,-1.1188777389829332
2025-03-24 18:55:09.249,-1.1589610945699398
2025-03-24 18:55:09.249,1.3581392806067552
2025-03-24 18:55:09.249,2.7538737765986285
2025-03-24 18:55:09.249,0.31116333376963873
2025-03-24 18:55:09.249,-3.7152217125539715
2025-03-24 18:55:09.259,-4.356897862295612
2025-03-24 18:55:09.259,-0.00646725906820117
2025-03-24 18:55:09.259,5.1234141748575075
2025-03-24 18:55:09.259,5.5102475826632284
2025-03-24 18:55:09.259,0.542132532899064
2025-03-24 18:55:09.269,-4.926937936672413
2025-03-24 18:55:09.269,-5.853305171884158
2025-03-24 18:55:09.269,-1.708846383275223
2025-03-24 18:55:09.269,3.6499909398607935
2025-03-24 18:55:09.269,5.493341215064911
2025-03-24 18:55:09.277,2.1159189940580583
2025-03-24 18:55:09.277,-3.142594784083174
2025-03-24 18:55:09.277,-4.40935439682758
2025-03-24 18:55:09.278,0.06820930447544832
2025-03-24 18:55:09.278,4.558985708910184
2025-03-24 18:55:09.287,2.327124533842753
2025-03-24 18:55:09.287,-4.658691675642304
2025-03-24 18:55:09.287,-6.812680493575798
2025-03-24 18:55:09.288,0.41423256130082453
2025-03-24 18:55:09.288,9.041028648591292
2025-03-24 18:55:09.297,7.852101221100981
2025-03-24 18:55:09.297,-2.8260464925225888
2025-03-24 18:55:09.297,-10.733099605550771
2025-03-24 18:55:09.298,-6.730682517822921
2025-03-24 18:55:09.307,4.140007460683823
2025-03-24 18:55:09.307,9.385230994005695
2025-03-24 18:55:09.307,4.12134156345714
2025-03-24 18:55:09.307,-4.371127374138371
2025-03-24 18:55:09.307,-6.528486927096415
2025-03-24 18:55:09.317,-1.2979559554800089
2025-03-24 18:55:09.317,4.281336169383314
2025-03-24 18:55:09.317,4.060584971020278
2025-03-24 18:55:09.317,-0.888982429622492
2025-03-24 18:55:09.317,-4.588399264341536
2025-03-24 18:55:09.327,-3.049635738265601
2025-03-24 18:55:09.327,1.9601208285174048
2025-03-24 18:55:09.327,5.311709962065683
2025-03-24 18:55:09.327,3.6365068749980014
2025-03-24 18:55:09.328,-1.7767886881812716
2025-03-24 18:55:09.337,-6.1498290149572945
2025-03-24 18:55:09.337,-5.1797804664931695
2025-03-24 18:55:09.337,0.9164310649334608
2025-03-24 18:55:09.337,6.771415206357981
2025-03-24 18:55:09.337,6.484911819522553
2025-03-24 18:55:09.347,-0.1137005516323546
2025-03-24 18:55:09.347,-6.633257498166364
2025-03-24 18:55:09.347,-6.648832493466295
2025-03-24 18:55:09.347,-0.5231011116652582
2025-03-24 18:55:09.347,5.353259395338384
2025-03-24 18:55:09.355,5.650394721540166
2025-03-24 18:55:09.355,1.1340221038559206
2025-03-24 18:55:09.355,-3.267672780805304
2025-03-24 18:55:09.356,-3.981804892501522
2025-03-24 18:55:09.356,-1.6177615768730274
2025-03-24 18:55:09.367,0.9664637728687043
2025-03-24 18:55:09.367,2.088681601885921
2025-03-24 18:55:09.367,2.0645311097144923
2025-03-24 18:55:09.367,1.3778487775434667
2025-03-24 18:55:09.367,-0.2961444775780179
2025-03-24 18:55:09.375,-2.648363955211828
2025-03-24 18:55:09.375,-3.680855192042174
2025-03-24 18:55:09.375,-1.5300341290228743
2025-03-24 18:55:09.376,2.8584228887542316
2025-03-24 18:55:09.376,5.793025421848274
2025-03-24 18:55:09.385,3.976391457226338
2025-03-24 18:55:09.385,-2.0917102261153904
2025-03-24 18:55:09.386,-7.547602113611981
2025-03-24 18:55:09.386,-6.830986980292668
2025-03-24 18:55:09.395,0.5986070543480074
2025-03-24 18:55:09.395,8.345526305037106
2025-03-24 18:55:09.395,8.707413605471316
2025-03-24 18:55:09.395,0.9377398409876974
2025-03-24 18:55:09.396,-7.4770936330937925
2025-03-24 18:55:09.405,-8.624890047775637
2025-03-24 18:55:09.405,-2.147845566834138
2025-03-24 18:55:09.405,5.287506716617063
2025-03-24 18:55:09.405,7.21029536308884
2025-03-24 18:55:09.406,2.9129389769478053
2025-03-24 18:55:09.415,-3.131167795155913
2025-03-24 18:55:09.415,-5.767247811204827
2025-03-24 18:55:09.415,-3.23674164160486
2025-03-24 18:55:09.415,1.8243052510679956
2025-03-24 18:55:09.416,4.853267608784975
2025-03-24 18:55:09.425,3.3623680318102007
2025-03-24 18:55:09.425,-0.9858671554152239
2025-03-24 18:55:09.425,-4.164538087266698
2025-03-24 18:55:09.425,-3.5504791501812734
2025-03-24 18:55:09.426,-0.016335353105551342
2025-03-24 18:55:09.435,3.2132169533089665
2025-03-24 18:55:09.435,3.5173222503212176
2025-03-24 18:55:09.435,1.097776506219172
2025-03-24 18:55:09.435,-1.491041584092624
2025-03-24 18:55:09.435,-2.2379709084185184
2025-03-24 18:55:09.445,-1.7165695132816898
2025-03-24 18:55:09.445,-1.4267140424464961
2025-03-24 18:55:09.445,-0.867814490701523
2025-03-24 18:55:09.445,1.614209371465333
2025-03-24 18:55:09.445,4.888099885662485
2025-03-24 18:55:09.453,4.66999235320559
2025-03-24 18:55:09.453,-0.9427478939219841
2025-03-24 18:55:09.454,-7.214599334306061
2025-03-24 18:55:09.454,-7.026271839005293
2025-03-24 18:55:09.454,0.3558343438226126
2025-03-24 18:55:09.463,7.35796739412011
2025-03-24 18:55:09.463,6.557664378175658
2025-03-24 18:55:09.463,-0.5836037247453069
2025-03-24 18:55:09.464,-5.747854875952099
2025-03-24 18:55:09.473,-3.8712039914895935
2025-03-24 18:55:09.473,1.4943796976436095
2025-03-24 18:55:09.473,3.63429246343905
2025-03-24 18:55:09.473,0.9919496759020672
2025-03-24 18:55:09.474,-2.1458747072720366
2025-03-24 18:55:09.483,-2.0253115218082725
2025-03-24 18:55:09.483,0.391901960697312
2025-03-24 18:55:09.483,1.9406898543377076
2025-03-24 18:55:09.484,1.4040681969927291
2025-03-24 18:55:09.484,-0.1819360732907165
2025-03-24 18:55:09.493,-1.533456182074776
2025-03-24 18:55:09.493,-1.745006125092091
2025-03-24 18:55:09.494,-0.2677053843972508
2025-03-24 18:55:09.494,1.9379384209061035
2025-03-24 18:55:09.494,2.3311411926871273
2025-03-24 18:55:09.494,-0.1612800870622215
2025-03-24 18:55:09.503,-2.8771961261037537
2025-03-24 18:55:09.503,-2.354671253464804
2025-03-24 18:55:09.503,0.9496212609988504
2025-03-24 18:55:09.504,3.127683623550081
2025-03-24 18:55:09.513,1.942670853455051
2025-03-24 18:55:09.513,-0.7709305865705771
2025-03-24 18:55:09.513,-2.219624165942293
2025-03-24 18:55:09.513,-1.921714010974385
2025-03-24 18:55:09.514,-0.8285891487756857
2025-03-24 18:55:09.523,0.7832830780637948
2025-03-24 18:55:09.523,2.6286533191723156
2025-03-24 18:55:09.523,2.9364233776515514
2025-03-24 18:55:09.523,0.24674470181048297
2025-03-24 18:55:09.524,-3.4428811670376134
2025-03-24 18:55:09.533,-3.9364896952813737
2025-03-24 18:55:09.533,-0.21478411706390138
2025-03-24 18:55:09.533,3.5184930429898995
2025-03-24 18:55:09.533,2.8526769478844893
2025-03-24 18:55:09.533,-1.0387401260453286
2025-03-24 18:55:09.543,-2.8052255314051786
2025-03-24 18:55:09.543,-0.07153830702023606
2025-03-24 18:55:09.543,3.090539730501513
2025-03-24 18:55:09.543,1.5717901380271846
2025-03-24 18:55:09.543,-3.2016030342727717
2025-03-24 18:55:09.553,-4.431127547256657
2025-03-24 18:55:09.553,0.5119519119592943
2025-03-24 18:55:09.553,5.411711684650854
2025-03-24 18:55:09.553,3.2713440099417017
2025-03-24 18:55:09.553,-3.479941476240088
2025-03-24 18:55:09.563,-5.631524249698861
2025-03-24 18:55:09.563,0.20326325245236782
2025-03-24 18:55:09.563,6.483491721897019
2025-03-24 18:55:09.563,4.502286986146851
2025-03-24 18:55:09.563,-3.9491000507899745
2025-03-24 18:55:09.573,-8.476474876724248
2025-03-24 18:55:09.573,-3.1262473678030553
2025-03-24 18:55:09.573,6.078833967397997
2025-03-24 18:55:09.573,8.516945682017104
2025-03-24 18:55:09.573,1.8091223173117181
2025-03-24 18:55:09.583,-5.84444955879465
2025-03-24 18:55:09.583,-6.153255092871879
2025-03-24 18:55:09.583,-0.3503076816742805
2025-03-24 18:55:09.583,3.7333088116273974
2025-03-24 18:55:09.583,2.1390156547737567
2025-03-24 18:55:09.593,-1.1949544100740663
2025-03-24 18:55:09.593,-1.07836379342498
2025-03-24 18:55:09.593,1.6865940818364686
2025-03-24 18:55:09.593,2.2062319236421493
2025-03-24 18:55:09.593,-0.9656379324093364
2025-03-24 18:55:09.603,-3.6080539300819345
2025-03-24 18:55:09.603,-1.8798045596219697
2025-03-24 18:55:09.603,2.1174719624543736
2025-03-24 18:55:09.603,3.149661702350537
2025-03-24 18:55:09.603,0.07824140786421102
2025-03-24 18:55:09.613,-2.6088538621064155
2025-03-24 18:55:09.613,-1.1008639224289496
2025-03-24 18:55:09.613,2.3705788710985245
2025-03-24 18:55:09.613,2.597722790746094
2025-03-24 18:55:09.613,-1.2790689978794516
2025-03-24 18:55:09.621,-4.284565376897591
2025-03-24 18:55:09.621,-2.1273298227790653
2025-03-24 18:55:09.622,2.9493950364953396
2025-03-24 18:55:09.622,4.810330229294537
2025-03-24 18:55:09.622,1.2048139534429803
2025-03-24 18:55:09.631,-3.4056831502742617
2025-03-24 18:55:09.631,-3.6096760921130677
2025-03-24 18:55:09.632,0.1746162480150958
2025-03-24 18:55:09.632,2.7112188690290737
2025-03-24 18:55:09.632,1.0852402133273398
2025-03-24 18:55:09.641,-1.7529366237271993
2025-03-24 18:55:09.641,-1.4871248199901705
2025-03-24 18:55:09.641,1.5780308178306857
2025-03-24 18:55:09.642,3.1046548168381247
2025-03-24 18:55:09.651,0.615788034147237
2025-03-24 18:55:09.651,-3.2761725047056296
2025-03-24 18:55:09.651,-4.024660517332677
2025-03-24 18:55:09.651,-0.41287393864466826
2025-03-24 18:55:09.652,3.9559586101292954
2025-03-24 18:55:09.661,4.292285518345419
2025-03-24 18:55:09.661,-0.08973983986050293
2025-03-24 18:55:09.661,-4.336116911059403
2025-03-24 18:55:09.662,-3.214333520143525
2025-03-24 18:55:09.662,2.0942208005680207
2025-03-24 18:55:09.671,4.666837417089959
2025-03-24 18:55:09.671,0.6770907386197055
2025-03-24 18:55:09.671,-4.982640853957846
2025-03-24 18:55:09.671,-4.752348176709193
2025-03-24 18:55:09.672,1.6028150491466635
2025-03-24 18:55:09.681,6.707741256437957
2025-03-24 18:55:09.681,4.9555428125172245
2025-03-24 18:55:09.681,-1.38299076978555
2025-03-24 18:55:09.681,-6.085742915800537
2025-03-24 18:55:09.682,-5.8106614878866205
2025-03-24 18:55:09.691,-1.5832136448379093
2025-03-24 18:55:09.691,3.6848581936470017
2025-03-24 18:55:09.691,6.7599623538201445
2025-03-24 18:55:09.691,5.062572477622261
2025-03-24 18:55:09.691,-0.9053746019354659
2025-03-24 18:55:09.701,-6.4483414821711715
2025-03-24 18:55:09.701,-6.465254522855727
2025-03-24 18:55:09.701,-0.9990944921613496
2025-03-24 18:55:09.701,4.437731704111958
2025-03-24 18:55:09.702,4.8447397055056145
2025-03-24 18:55:09.711,1.0997765404585738
2025-03-24 18:55:09.711,-1.704494008154538
2025-03-24 18:55:09.711,-0.8487570729132667
2025-03-24 18:55:09.711,0.8339230948183773
2025-03-24 18:55:09.711,-0.5614859849848659
2025-03-24 18:55:09.721,-3.8020359059719198
2025-03-24 18:55:09.721,-3.5732887900814716
2025-03-24 18:55:09.721,1.8107002822850813
2025-03-24 18:55:09.721,6.751635141953309
2025-03-24 18:55:09.721,4.934089932923035
2025-03-24 18:55:09.731,-2.114404305949921
2025-03-24 18:55:09.731,-6.470701988403983
2025-03-24 18:55:09.731,-3.7663191534446687
2025-03-24 18:55:09.731,1.7902071755639528
2025-03-24 18:55:09.731,3.6646524175376376
2025-03-24 18:55:09.739,1.1961282489843932
2025-03-24 18:55:09.739,-1.1147348035016247
2025-03-24 18:55:09.740,-0.598971324989593
2025-03-24 18:55:09.740,0.7463391675443811
2025-03-24 18:55:09.740,0.3024290554678746
2025-03-24 18:55:09.749,-1.2340180950994468
2025-03-24 18:55:09.749,-1.267453513212066
2025-03-24 18:55:09.750,0.7259347605280275
2025-03-24 18:55:09.750,2.199449502721576
2025-03-24 18:55:09.750,0.7771678042470973
2025-03-24 18:55:09.759,-2.252060619032908
2025-03-24 18:55:09.759,-2.971355191157375
2025-03-24 18:55:09.760,0.13483523573521594
2025-03-24 18:55:09.760,3.651821794964757
2025-03-24 18:55:09.760,3.272555090131805
2025-03-24 18:55:09.769,-0.6510164572109123
2025-03-24 18:55:09.769,-3.6250139504052457
2025-03-24 18:55:09.769,-2.7276766412137388
2025-03-24 18:55:09.770,0.2835334542215454
2025-03-24 18:55:09.779,1.9655693188036083
2025-03-24 18:55:09.779,1.4542559751708954
2025-03-24 18:55:09.779,0.4852952935914975
2025-03-24 18:55:09.780,0.22610050763825557
2025-03-24 18:55:09.780,-0.05039307963031357
2025-03-24 18:55:09.789,-1.0022643586855093
2025-03-24 18:55:09.789,-1.6218029309695159
2025-03-24 18:55:09.790,-0.6816606837372985
2025-03-24 18:55:09.790,1.1018717742512356
2025-03-24 18:55:09.790,1.6749101699625903
2025-03-24 18:55:09.799,0.3828550221854776
2025-03-24 18:55:09.799,-0.997643992244239
2025-03-24 18:55:09.799,-0.6240656664955251
2025-03-24 18:55:09.800,0.7130528616385016
2025-03-24 18:55:09.800,0.6187373269777511
2025-03-24 18:55:09.809,-1.1447795101455007
2025-03-24 18:55:09.809,-1.8055093042008723
2025-03-24 18:55:09.809,0.35307866733410403
2025-03-24 18:55:09.809,2.841044398907449
2025-03-24 18:55:09.809,2.069015571971696
2025-03-24 18:55:09.819,-1.4141673700346584
2025-03-24 18:55:09.819,-3.417651461354571
2025-03-24 18:55:09.819,-1.6775388258800659
2025-03-24 18:55:09.819,1.5529517542406992
2025-03-24 18:55:09.820,2.866506347928723
2025-03-24 18:55:09.829,1.5159328756448576
2025-03-24 18:55:09.829,-0.7957399627805204
2025-03-24 18:55:09.829,-2.158350444800567
2025-03-24 18:55:09.830,-1.6889791162776937
2025-03-24 18:55:09.830,0.11140179419720798
2025-03-24 18:55:09.839,1.5400928890334686
2025-03-24 18:55:09.839,1.2721955865142525
2025-03-24 18:55:09.839,0.06899866756764803
2025-03-24 18:55:09.839,-0.2657970537799701
2025-03-24 18:55:09.840,0.27433215667259475
2025-03-24 18:55:09.849,-0.16277676119930148
2025-03-24 18:55:09.849,-1.9012929140514327
2025-03-24 18:55:09.849,-2.287850508717125
2025-03-24 18:55:09.849,0.6220164567674309
2025-03-24 18:55:09.849,4.195769641696885
2025-03-24 18:55:09.859,3.6377641197004125
2025-03-24 18:55:09.859,-1.5076648786624707
2025-03-24 18:55:09.859,-5.7060782281636975
2025-03-24 18:55:09.859,-3.8156475688777682
2025-03-24 18:55:09.859,2.3783565419817916
2025-03-24 18:55:09.867,6.048813834985184
2025-03-24 18:55:09.867,3.273245855611632
2025-03-24 18:55:09.868,-2.73625233472105
2025-03-24 18:55:09.868,-5.563560141766315
2025-03-24 18:55:09.868,-2.511902938391538
2025-03-24 18:55:09.877,2.8815644879111426
2025-03-24 18:55:09.878,4.795938462798759
2025-03-24 18:55:09.878,1.3498394164858103
2025-03-24 18:55:09.878,-3.3506559093278607
2025-03-24 18:55:09.878,-3.8796739922667443
2025-03-24 18:55:09.887,0.1669619373014361
2025-03-24 18:55:09.887,3.8174717434368652
2025-03-24 18:55:09.888,2.8825199425736914
2025-03-24 18:55:09.888,-1.1833954219518468
2025-03-24 18:55:09.897,-3.594511529307246
2025-03-24 18:55:09.897,-2.1106258658759014
2025-03-24 18:55:09.897,1.0323723116854204
2025-03-24 18:55:09.898,2.5506808505875145
2025-03-24 18:55:09.898,1.684585942171735
2025-03-24 18:55:09.907,-0.0133249471528782
2025-03-24 18:55:09.907,-1.0495845726867177
2025-03-24 18:55:09.907,-1.188457856483407
2025-03-24 18:55:09.908,-0.9153298124329595
2025-03-24 18:55:09.908,-0.5918272458638225
