timestamp,bandpass_and_notch
2025-03-26 20:01:06.516,-0.3546505371663202
2025-03-26 20:01:06.516,10.340990336653835
2025-03-26 20:01:06.516,6.480646330946895
2025-03-26 20:01:06.516,-16.105739292979763
2025-03-26 20:01:06.525,-41.75219391968136
2025-03-26 20:01:06.525,-42.060795483846434
2025-03-26 20:01:06.525,-5.352925836591153
2025-03-26 20:01:06.525,41.15623248799538
2025-03-26 20:01:06.526,51.93002999351942
2025-03-26 20:01:06.533,12.59650484387515
2025-03-26 20:01:06.534,-39.37902916527399
2025-03-26 20:01:06.534,-52.18754395056688
2025-03-26 20:01:06.534,-14.299855613580666
2025-03-26 20:01:06.543,35.82321734865616
2025-03-26 20:01:06.543,52.475384489823064
2025-03-26 20:01:06.543,26.861574501619646
2025-03-26 20:01:06.543,-12.154726707495394
2025-03-26 20:01:06.543,-32.21185214594298
2025-03-26 20:01:06.555,-25.30778167004727
2025-03-26 20:01:06.555,-5.6994152121965795
2025-03-26 20:01:06.555,9.88136471354158
2025-03-26 20:01:06.555,15.325547777604175
2025-03-26 20:01:06.561,13.25401068964366
2025-03-26 20:01:06.561,7.51469564733911
2025-03-26 20:01:06.561,0.044426330972268085
2025-03-26 20:01:06.561,-7.648402329323256
2025-03-26 20:01:06.561,-13.089730052677197
2025-03-26 20:01:06.569,-13.56941564509101
2025-03-26 20:01:06.569,-7.869664477423694
2025-03-26 20:01:06.569,2.1985582896888483
2025-03-26 20:01:06.569,11.443844208314177
2025-03-26 20:01:06.579,13.756809436058315
2025-03-26 20:01:06.579,7.12845957603602
2025-03-26 20:01:06.579,-3.4282702937970044
2025-03-26 20:01:06.579,-9.68774444528543
2025-03-26 20:01:06.579,-7.912358018608532
2025-03-26 20:01:06.579,-1.852812099276676
2025-03-26 20:01:06.589,2.322042221136109
2025-03-26 20:01:06.589,2.6039468948109272
2025-03-26 20:01:06.589,1.6222072832318613
2025-03-26 20:01:06.589,1.9332348408528137
2025-03-26 20:01:06.599,2.90574816632116
2025-03-26 20:01:06.599,2.4398346837020624
2025-03-26 20:01:06.599,0.19655383599963439
2025-03-26 20:01:06.599,-2.0089595710312533
2025-03-26 20:01:06.599,-2.587056993871895
2025-03-26 20:01:06.609,-1.86441768621109
2025-03-26 20:01:06.609,-1.092930567211905
2025-03-26 20:01:06.609,-0.5360620489502008
2025-03-26 20:01:06.609,0.534944896013044
2025-03-26 20:01:06.609,2.0291684286519676
2025-03-26 20:01:06.617,2.4411441502550333
2025-03-26 20:01:06.617,0.8988412782761989
2025-03-26 20:01:06.618,-1.110373311455571
2025-03-26 20:01:06.618,-1.470866901282795
2025-03-26 20:01:06.627,-0.4231764347387216
2025-03-26 20:01:06.627,-0.11009007602162688
2025-03-26 20:01:06.627,-1.1731286943629293
2025-03-26 20:01:06.628,-1.7033536356287833
2025-03-26 20:01:06.628,-0.2387532933177715
2025-03-26 20:01:06.636,1.8236491034602484
2025-03-26 20:01:06.636,2.080832499209574
2025-03-26 20:01:06.636,0.4922116957107175
2025-03-26 20:01:06.636,-0.6030242713250727
2025-03-26 20:01:06.636,0.19045632571482624
2025-03-26 20:01:06.645,1.3265594976515818
2025-03-26 20:01:06.645,0.44501594909772085
2025-03-26 20:01:06.646,-2.220152194745983
2025-03-26 20:01:06.646,-3.7495734415080246
2025-03-26 20:01:06.655,-1.9878102652822964
2025-03-26 20:01:06.655,1.7851806207393222
2025-03-26 20:01:06.655,4.1849074161040845
2025-03-26 20:01:06.655,3.3415465568475344
2025-03-26 20:01:06.655,0.5521938419718537
2025-03-26 20:01:06.665,-1.6418337998890729
2025-03-26 20:01:06.665,-2.2275517528359305
2025-03-26 20:01:06.665,-2.004372004877263
2025-03-26 20:01:06.665,-1.6833632711345752
2025-03-26 20:01:06.665,-0.8302713525821044
2025-03-26 20:01:06.673,1.0427578100187207
2025-03-26 20:01:06.673,3.0710848352583606
2025-03-26 20:01:06.673,3.3720622177970707
2025-03-26 20:01:06.673,0.9439656874353417
2025-03-26 20:01:06.673,-2.7652065243508748
2025-03-26 20:01:06.685,-4.484717469530495
2025-03-26 20:01:06.685,-2.082151971260022
2025-03-26 20:01:06.685,2.683296434913926
2025-03-26 20:01:06.685,5.079675678045613
2025-03-26 20:01:06.685,2.145718855531312
2025-03-26 20:01:06.693,-3.5448011751242716
2025-03-26 20:01:06.693,-6.012395940220683
2025-03-26 20:01:06.693,-2.306907953435611
2025-03-26 20:01:06.693,4.023930478556321
2025-03-26 20:01:06.703,6.674250797757872
2025-03-26 20:01:06.703,3.238265686170912
2025-03-26 20:01:06.703,-2.7001540715898336
2025-03-26 20:01:06.703,-5.755181503352374
2025-03-26 20:01:06.703,-3.986586412315299
2025-03-26 20:01:06.711,0.14627908997916206
2025-03-26 20:01:06.711,3.044888239346742
2025-03-26 20:01:06.711,3.2511786229096398
2025-03-26 20:01:06.711,1.7277924845402521
2025-03-26 20:01:06.721,0.0445440173884306
2025-03-26 20:01:06.721,-1.006023835589662
2025-03-26 20:01:06.721,-1.4781293259252068
2025-03-26 20:01:06.722,-1.6853241731196704
2025-03-26 20:01:06.722,-1.554046433026296
2025-03-26 20:01:06.731,-0.5094763131267113
2025-03-26 20:01:06.731,1.5375109913079121
2025-03-26 20:01:06.731,3.124858441283341
2025-03-26 20:01:06.731,2.249129877226572
2025-03-26 20:01:06.731,-0.9178051586357141
2025-03-26 20:01:06.741,-3.3269012121323063
2025-03-26 20:01:06.741,-2.302809173083692
2025-03-26 20:01:06.741,0.9826334339279881
2025-03-26 20:01:06.741,2.7211409646929354
2025-03-26 20:01:06.741,1.152917205199897
2025-03-26 20:01:06.749,-1.457790591743175
2025-03-26 20:01:06.749,-2.007554478131449
2025-03-26 20:01:06.750,-0.29340341203453124
2025-03-26 20:01:06.750,1.4010587149673102
2025-03-26 20:01:06.760,1.4407975859149167
2025-03-26 20:01:06.760,0.3355153008114292
2025-03-26 20:01:06.760,-0.5324655202712525
2025-03-26 20:01:06.760,-0.6426581124784361
2025-03-26 20:01:06.760,-0.5515553561507618
2025-03-26 20:01:06.769,-0.7623642748706684
2025-03-26 20:01:06.769,-0.8099417806669921
2025-03-26 20:01:06.769,0.16836837690097584
2025-03-26 20:01:06.769,1.928873370324022
2025-03-26 20:01:06.769,2.7178549299375665
2025-03-26 20:01:06.779,0.9751713209306027
2025-03-26 20:01:06.779,-2.4884962455762283
2025-03-26 20:01:06.779,-4.538561525018273
2025-03-26 20:01:06.779,-2.6168463863344273
2025-03-26 20:01:06.779,2.2152979798867385
2025-03-26 20:01:06.787,5.661117230245436
2025-03-26 20:01:06.787,4.222147158070629
2025-03-26 20:01:06.787,-1.1288921710798192
2025-03-26 20:01:06.787,-5.6294905527059464
2025-03-26 20:01:06.797,-5.2276723431649526
2025-03-26 20:01:06.797,-0.3947416909653721
2025-03-26 20:01:06.797,4.479597507967804
2025-03-26 20:01:06.797,5.308629090016323
2025-03-26 20:01:06.797,1.8321887239078858
2025-03-26 20:01:06.807,-2.7068676793529356
2025-03-26 20:01:06.807,-4.698365198671292
2025-03-26 20:01:06.807,-2.890912144532155
2025-03-26 20:01:06.807,1.0607474923006528
2025-03-26 20:01:06.807,3.961000731579969
2025-03-26 20:01:06.815,3.438760228953794
2025-03-26 20:01:06.815,-0.05459211149917531
2025-03-26 20:01:06.816,-3.4017737127160688
2025-03-26 20:01:06.816,-3.525409007942044
2025-03-26 20:01:06.825,-0.33537906573599857
2025-03-26 20:01:06.825,3.086743534594792
2025-03-26 20:01:06.825,3.4266158976735217
2025-03-26 20:01:06.825,0.3761776529336885
2025-03-26 20:01:06.826,-3.01321536099518
2025-03-26 20:01:06.835,-3.320261175169076
2025-03-26 20:01:06.835,-0.24751456351630913
2025-03-26 20:01:06.835,2.996418282427521
2025-03-26 20:01:06.835,3.0529053592942827
2025-03-26 20:01:06.835,-0.0026593919444029557
2025-03-26 20:01:06.845,-2.829217864240905
2025-03-26 20:01:06.845,-2.5108594293204547
2025-03-26 20:01:06.845,0.3902003488219854
2025-03-26 20:01:06.845,2.6279730134049446
2025-03-26 20:01:06.846,1.8372852214717352
2025-03-26 20:01:06.853,-0.9693961527516084
2025-03-26 20:01:06.854,-2.5762011971332077
2025-03-26 20:01:06.854,-1.1621609119488678
2025-03-26 20:01:06.854,1.6466156774729086
2025-03-26 20:01:06.863,2.653092705328878
2025-03-26 20:01:06.863,0.7263394837602927
2025-03-26 20:01:06.864,-2.0348889352635404
2025-03-26 20:01:06.864,-2.7681682603082716
2025-03-26 20:01:06.864,-0.8740834931791618
2025-03-26 20:01:06.873,1.6818828813464912
2025-03-26 20:01:06.873,2.6259917793926673
2025-03-26 20:01:06.873,1.4365135683382728
2025-03-26 20:01:06.873,-0.6371863922212805
2025-03-26 20:01:06.873,-1.9412378335737335
2025-03-26 20:01:06.883,-1.6397374906980322
2025-03-26 20:01:06.883,-0.183357124539106
2025-03-26 20:01:06.883,1.031667554396181
2025-03-26 20:01:06.883,0.8944145760797468
2025-03-26 20:01:06.883,-0.15330852032736653
2025-03-26 20:01:06.891,-0.5254292700487516
2025-03-26 20:01:06.891,0.44211171854799436
2025-03-26 20:01:06.891,1.415802802027547
2025-03-26 20:01:06.891,0.7258178050997436
2025-03-26 20:01:06.901,-1.3122705222976525
2025-03-26 20:01:06.901,-2.577595450169544
2025-03-26 20:01:06.901,-1.5796610440830983
2025-03-26 20:01:06.901,0.9627956981186843
2025-03-26 20:01:06.901,2.9776377948055384
2025-03-26 20:01:06.911,2.8543472267300545
2025-03-26 20:01:06.911,0.46874854426841295
2025-03-26 20:01:06.911,-2.691043479388794
2025-03-26 20:01:06.911,-4.131732868789155
2025-03-26 20:01:06.911,-2.1222432086748677
2025-03-26 20:01:06.919,2.183253400716427
2025-03-26 20:01:06.919,4.914400889350592
2025-03-26 20:01:06.919,3.051995921323787
2025-03-26 20:01:06.920,-1.9228908536337717
2025-03-26 20:01:06.920,-4.973746299447336
2025-03-26 20:01:06.929,-2.8632354507859135
2025-03-26 20:01:06.929,2.046339287167053
2025-03-26 20:01:06.929,4.374130662794378
2025-03-26 20:01:06.929,1.886545320125243
2025-03-26 20:01:06.939,-2.1640129283299174
2025-03-26 20:01:06.939,-3.2193234544358242
2025-03-26 20:01:06.939,-0.7243435104732261
2025-03-26 20:01:06.939,1.827305078115673
2025-03-26 20:01:06.939,1.5897699122238775
2025-03-26 20:01:06.947,-0.36757362168157925
2025-03-26 20:01:06.947,-1.038182403791842
2025-03-26 20:01:06.947,0.30657975873721444
2025-03-26 20:01:06.948,1.3161998529697172
2025-03-26 20:01:06.957,0.08748498116746198
2025-03-26 20:01:06.957,-1.948885643760299
2025-03-26 20:01:06.957,-1.8556929571384513
2025-03-26 20:01:06.957,0.7276951465419748
2025-03-26 20:01:06.957,2.8415366333386003
2025-03-26 20:01:06.966,1.8472197222739046
2025-03-26 20:01:06.966,-1.2852900004258625
2025-03-26 20:01:06.966,-3.091224076156569
2025-03-26 20:01:06.967,-1.5546105970908208
2025-03-26 20:01:06.967,1.7274737304767869
2025-03-26 20:01:06.975,3.270416615045965
2025-03-26 20:01:06.975,1.2993227239917404
2025-03-26 20:01:06.975,-2.3125332895768205
2025-03-26 20:01:06.975,-3.706586215547859
2025-03-26 20:01:06.985,-1.0421592470209016
2025-03-26 20:01:06.985,3.1149039510452874
2025-03-26 20:01:06.985,4.143865289319694
2025-03-26 20:01:06.985,0.5637508408029197
2025-03-26 20:01:06.985,-3.864333340277363
2025-03-26 20:01:06.995,-4.160132913073383
2025-03-26 20:01:06.995,0.09670903201382297
2025-03-26 20:01:06.995,4.176783012504064
2025-03-26 20:01:06.995,3.642560947204927
2025-03-26 20:01:06.995,-0.661929172448112
2025-03-26 20:01:07.005,-3.876845167985565
2025-03-26 20:01:07.005,-2.795753504608751
2025-03-26 20:01:07.005,0.8703717240617157
2025-03-26 20:01:07.005,3.0096579364752563
2025-03-26 20:01:07.005,1.8603483929500935
2025-03-26 20:01:07.013,-0.5862272819758635
2025-03-26 20:01:07.013,-1.578505634623784
2025-03-26 20:01:07.013,-0.844743443272987
2025-03-26 20:01:07.013,-0.16274571184061182
2025-03-26 20:01:07.023,-0.39220773602792974
2025-03-26 20:01:07.023,-0.35080141813148163
2025-03-26 20:01:07.023,0.9830902924415297
2025-03-26 20:01:07.023,2.3753841798841955
2025-03-26 20:01:07.023,1.6476715146692584
2025-03-26 20:01:07.033,-1.2286446283640429
2025-03-26 20:01:07.033,-3.515750121749199
2025-03-26 20:01:07.033,-2.6511194146125763
2025-03-26 20:01:07.033,0.7365960538353398
2025-03-26 20:01:07.033,3.3696164425054103
2025-03-26 20:01:07.043,2.8201055208205705
2025-03-26 20:01:07.043,-0.032992216935855245
2025-03-26 20:01:07.043,-2.2199393868918413
2025-03-26 20:01:07.043,-1.9469566796073314
2025-03-26 20:01:07.043,-0.21234261034822902
2025-03-26 20:01:07.051,0.7782792798897822
2025-03-26 20:01:07.051,0.3064893647083043
2025-03-26 20:01:07.052,-0.27905872971671836
2025-03-26 20:01:07.052,0.3186616059198129
2025-03-26 20:01:07.061,1.400095295198805
2025-03-26 20:01:07.062,1.1800123622403593
2025-03-26 20:01:07.062,-0.6636086140374808
2025-03-26 20:01:07.062,-2.3039507811513475
2025-03-26 20:01:07.062,-1.8826705481805979
2025-03-26 20:01:07.062,0.2975845579434253
2025-03-26 20:01:07.071,2.113652434175874
2025-03-26 20:01:07.071,1.9176797355105222
2025-03-26 20:01:07.071,0.1523024153403948
2025-03-26 20:01:07.071,-1.320744246300847
2025-03-26 20:01:07.081,-1.248762612317119
2025-03-26 20:01:07.081,-0.1292966410386667
2025-03-26 20:01:07.081,0.629191037664333
2025-03-26 20:01:07.081,0.37103231336855597
2025-03-26 20:01:07.081,-0.2718384393267588
2025-03-26 20:01:07.089,-0.4013231872782219
2025-03-26 20:01:07.089,0.05261842738390929
2025-03-26 20:01:07.089,0.4895363265555968
2025-03-26 20:01:07.089,0.5162249044652296
2025-03-26 20:01:07.099,0.2422654629219298
2025-03-26 20:01:07.099,-0.1135345717165191
2025-03-26 20:01:07.099,-0.4806024268119621
2025-03-26 20:01:07.099,-0.7918221711623747
2025-03-26 20:01:07.099,-0.8113145928218207
2025-03-26 20:01:07.109,-0.22568838343554168
2025-03-26 20:01:07.109,0.9265619490522008
2025-03-26 20:01:07.109,1.846472189788403
2025-03-26 20:01:07.109,1.4241011976784024
2025-03-26 20:01:07.109,-0.44733697271742007
2025-03-26 20:01:07.117,-2.274544779125147
2025-03-26 20:01:07.117,-2.2665823069147972
2025-03-26 20:01:07.117,-0.29655067250351996
2025-03-26 20:01:07.118,1.7944285918685543
2025-03-26 20:01:07.127,2.0644418159146123
2025-03-26 20:01:07.127,0.5380125804003355
2025-03-26 20:01:07.127,-0.8983344490643072
2025-03-26 20:01:07.127,-0.7902753594326997
2025-03-26 20:01:07.127,0.16625535980348638
2025-03-26 20:01:07.136,0.2563583906490137
2025-03-26 20:01:07.136,-0.7770603378174893
2025-03-26 20:01:07.136,-1.3517478308620117
2025-03-26 20:01:07.136,-0.2630808824734741
2025-03-26 20:01:07.136,1.5983767806101579
2025-03-26 20:01:07.145,2.257941447805809
2025-03-26 20:01:07.145,0.9164835751755029
2025-03-26 20:01:07.145,-1.2874063455088427
2025-03-26 20:01:07.145,-2.5109797247762873
2025-03-26 20:01:07.155,-1.7996292183033737
2025-03-26 20:01:07.155,0.2908734755324275
2025-03-26 20:01:07.155,2.144801372119265
2025-03-26 20:01:07.155,2.2737601869083237
2025-03-26 20:01:07.155,0.5992716597645581
2025-03-26 20:01:07.165,-1.3568632219950232
2025-03-26 20:01:07.165,-1.8984732253757537
2025-03-26 20:01:07.165,-0.8284323862268388
2025-03-26 20:01:07.165,0.5197123455841499
2025-03-26 20:01:07.165,0.8649441539513957
2025-03-26 20:01:07.173,0.2788102757360967
2025-03-26 20:01:07.173,-0.18484023851857828
2025-03-26 20:01:07.174,0.12462125056525987
2025-03-26 20:01:07.174,0.7486021075078073
2025-03-26 20:01:07.183,0.741323750380978
2025-03-26 20:01:07.183,-0.2905965943151555
2025-03-26 20:01:07.183,-1.7285860543692633
2025-03-26 20:01:07.183,-2.2250452427713285
2025-03-26 20:01:07.184,-0.6988651704108036
2025-03-26 20:01:07.193,2.2574164046898026
2025-03-26 20:01:07.193,4.075738329753819
2025-03-26 20:01:07.193,2.381909599450659
2025-03-26 20:01:07.193,-2.0304842728315666
2025-03-26 20:01:07.193,-5.189433378436712
2025-03-26 20:01:07.201,-3.8046020842849364
2025-03-26 20:01:07.202,1.0292985977467282
2025-03-26 20:01:07.202,4.745277652415747
2025-03-26 20:01:07.202,4.067697729864121
2025-03-26 20:01:07.202,0.23537807951444117
2025-03-26 20:01:07.211,-2.8444100760937596
2025-03-26 20:01:07.211,-2.9272418036158103
2025-03-26 20:01:07.211,-1.0982617981514506
2025-03-26 20:01:07.211,0.4373871142611386
2025-03-26 20:01:07.221,0.9408352870924169
2025-03-26 20:01:07.221,1.0960557470273893
2025-03-26 20:01:07.221,1.308865574177067
2025-03-26 20:01:07.221,1.0491112798166504
2025-03-26 20:01:07.221,-0.14409258724729948
2025-03-26 20:01:07.232,-1.69490367466913
2025-03-26 20:01:07.232,-2.355641855705352
2025-03-26 20:01:07.232,-1.3430281615622706
2025-03-26 20:01:07.232,0.8950089068820518
2025-03-26 20:01:07.241,2.755399450025969
2025-03-26 20:01:07.241,2.526366036158077
2025-03-26 20:01:07.241,0.06491273361327338
2025-03-26 20:01:07.241,-2.5171666102426875
2025-03-26 20:01:07.241,-2.656627781918802
2025-03-26 20:01:07.241,-0.19599693844171784
2025-03-26 20:01:07.249,2.1833732823715035
2025-03-26 20:01:07.249,1.8863326791062867
2025-03-26 20:01:07.249,-0.6215881205582431
2025-03-26 20:01:07.249,-2.346031264248455
2025-03-26 20:01:07.259,-1.1986376621236339
2025-03-26 20:01:07.259,1.657655166280501
2025-03-26 20:01:07.259,3.139327543026645
2025-03-26 20:01:07.259,1.5388948809469691
2025-03-26 20:01:07.259,-1.8452960365463265
2025-03-26 20:01:07.267,-4.063073527258455
2025-03-26 20:01:07.267,-3.085888220469565
2025-03-26 20:01:07.268,0.6316847230997868
2025-03-26 20:01:07.268,4.415544978067591
2025-03-26 20:01:07.277,5.140140583883534
2025-03-26 20:01:07.277,1.6274987347969496
2025-03-26 20:01:07.277,-3.853861507861296
2025-03-26 20:01:07.278,-6.742673826906786
2025-03-26 20:01:07.278,-4.013282076769176
2025-03-26 20:01:07.287,2.4927193815865674
2025-03-26 20:01:07.287,7.145497261137681
2025-03-26 20:01:07.287,5.714091731069628
2025-03-26 20:01:07.287,-0.5310892696904927
2025-03-26 20:01:07.287,-6.103223312620475
2025-03-26 20:01:07.295,-6.435881111276055
2025-03-26 20:01:07.295,-1.6721551036281765
2025-03-26 20:01:07.295,4.007610556180104
2025-03-26 20:01:07.296,6.181772870113237
2025-03-26 20:01:07.305,3.5594805239704046
2025-03-26 20:01:07.305,-1.499039211605675
2025-03-26 20:01:07.305,-5.127698676416579
2025-03-26 20:01:07.305,-4.784524904446954
2025-03-26 20:01:07.305,-0.8529112054790272
2025-03-26 20:01:07.315,3.702712418844997
2025-03-26 20:01:07.315,5.32933552213386
2025-03-26 20:01:07.315,2.5655838767536494
2025-03-26 20:01:07.315,-2.409176861567947
2025-03-26 20:01:07.316,-5.250048487986769
2025-03-26 20:01:07.328,-3.3790938948226743
2025-03-26 20:01:07.328,1.4080431269742644
2025-03-26 20:01:07.328,4.679467723148237
2025-03-26 20:01:07.328,3.630049805156899
2025-03-26 20:01:07.329,-0.5908088657923714
2025-03-26 20:01:07.333,-4.208521642912252
2025-03-26 20:01:07.334,-3.9689037668767013
2025-03-26 20:01:07.334,0.19098503852625526
2025-03-26 20:01:07.334,4.584250742678077
2025-03-26 20:01:07.343,4.57849967388493
2025-03-26 20:01:07.343,-0.567431454058099
2025-03-26 20:01:07.343,-5.865819063525041
2025-03-26 20:01:07.343,-5.265941837411328
2025-03-26 20:01:07.343,1.32683840782793
2025-03-26 20:01:07.353,7.153931406258838
2025-03-26 20:01:07.353,5.854930427624206
2025-03-26 20:01:07.353,-1.3380666327592645
2025-03-26 20:01:07.353,-7.07692159858659
2025-03-26 20:01:07.353,-6.051580389650293
2025-03-26 20:01:07.361,-0.05389167934276312
2025-03-26 20:01:07.361,5.0241487429810245
2025-03-26 20:01:07.362,5.417846480421457
2025-03-26 20:01:07.362,1.9989040627040062
2025-03-26 20:01:07.362,-1.9166460979197797
2025-03-26 20:01:07.371,-3.7253724822083103
2025-03-26 20:01:07.371,-2.8897770755617502
2025-03-26 20:01:07.371,-0.5863230079338455
2025-03-26 20:01:07.371,1.3806420198452942
2025-03-26 20:01:07.381,1.879942066903051
2025-03-26 20:01:07.381,1.2618703226696424
2025-03-26 20:01:07.381,0.719469692217692
2025-03-26 20:01:07.381,0.621933581231539
2025-03-26 20:01:07.381,-0.007597862078727008
2025-03-26 20:01:07.389,-1.7880246672917257
2025-03-26 20:01:07.389,-3.29623627740762
2025-03-26 20:01:07.389,-2.2461234423546883
2025-03-26 20:01:07.390,1.451300486256343
2025-03-26 20:01:07.390,4.763865815279823
2025-03-26 20:01:07.401,4.371989443956686
2025-03-26 20:01:07.401,0.15632760263742995
2025-03-26 20:01:07.401,-4.502930557788697
2025-03-26 20:01:07.401,-5.708997568920525
2025-03-26 20:01:07.401,-2.3126939060879246
2025-03-26 20:01:07.410,3.1028175625000753
2025-03-26 20:01:07.410,6.090474383996394
2025-03-26 20:01:07.410,3.949162582871535
2025-03-26 20:01:07.410,-1.6164097726796818
2025-03-26 20:01:07.419,-5.641250191622602
2025-03-26 20:01:07.419,-4.470215862599469
2025-03-26 20:01:07.420,0.6458640761707388
2025-03-26 20:01:07.420,4.785447516658031
2025-03-26 20:01:07.420,4.1933164891540455
2025-03-26 20:01:07.431,-0.2140321189108192
2025-03-26 20:01:07.431,-4.006957783957368
2025-03-26 20:01:07.432,-3.678428959473055
2025-03-26 20:01:07.432,0.07581420426285543
2025-03-26 20:01:07.432,3.345803796187498
2025-03-26 20:01:07.439,3.0802989370574285
2025-03-26 20:01:07.439,0.01401777667445775
2025-03-26 20:01:07.439,-2.47978787342492
2025-03-26 20:01:07.439,-2.1641137121251863
2025-03-26 20:01:07.439,-0.06817074724606267
2025-03-26 20:01:07.447,1.251168211311814
2025-03-26 20:01:07.447,0.8362043408260585
2025-03-26 20:01:07.447,-0.05986032401894416
2025-03-26 20:01:07.448,-0.10619282122202223
2025-03-26 20:01:07.448,0.45082151246704233
2025-03-26 20:01:07.457,0.5082484962094209
2025-03-26 20:01:07.457,-0.2759068248326441
2025-03-26 20:01:07.457,-1.0961025385461896
2025-03-26 20:01:07.457,-1.0224560530312294
2025-03-26 20:01:07.467,-0.08639817712773248
2025-03-26 20:01:07.467,0.7670058127446946
2025-03-26 20:01:07.467,0.805006148016499
2025-03-26 20:01:07.467,0.39799185194848863
2025-03-26 20:01:07.467,0.43618370611377993
2025-03-26 20:01:07.477,0.8256224761480208
2025-03-26 20:01:07.477,0.23742741526808503
2025-03-26 20:01:07.477,-1.9063351656002423
2025-03-26 20:01:07.477,-3.639451616074374
2025-03-26 20:01:07.477,-2.0937491687987966
2025-03-26 20:01:07.485,2.5859607227504338
2025-03-26 20:01:07.485,6.253171311098368
2025-03-26 20:01:07.486,4.787573629927844
2025-03-26 20:01:07.486,-1.3571833472820338
2025-03-26 20:01:07.495,-7.2397262582357405
2025-03-26 20:01:07.495,-7.716339254928969
2025-03-26 20:01:07.495,-1.7453602100255252
2025-03-26 20:01:07.495,6.394608434505977
2025-03-26 20:01:07.495,9.906318288632859
2025-03-26 20:01:07.503,5.117069494993707
2025-03-26 20:01:07.503,-4.386457820398705
2025-03-26 20:01:07.504,-10.155294438450507
2025-03-26 20:01:07.504,-6.905172531474609
2025-03-26 20:01:07.504,1.99292498723845
2025-03-26 20:01:07.513,8.049318509923962
2025-03-26 20:01:07.513,6.406086992465585
2025-03-26 20:01:07.513,-0.018388233930629938
2025-03-26 20:01:07.513,-4.729314806292043
2025-03-26 20:01:07.523,-4.341032494824882
2025-03-26 20:01:07.523,-0.7164726374903907
2025-03-26 20:01:07.523,2.0983877285504176
2025-03-26 20:01:07.523,1.969330811778045
2025-03-26 20:01:07.524,0.08772455392274389
2025-03-26 20:01:07.532,-0.9432100117468957
2025-03-26 20:01:07.532,-0.12741549612643083
2025-03-26 20:01:07.532,0.9921951997493152
2025-03-26 20:01:07.532,0.5119891656988812
2025-03-26 20:01:07.532,-1.1727838550724579
2025-03-26 20:01:07.542,-1.684905413509224
2025-03-26 20:01:07.542,0.17081708820152436
2025-03-26 20:01:07.542,2.4130473956965712
2025-03-26 20:01:07.542,2.0161981457530764
2025-03-26 20:01:07.551,-1.150987747845941
2025-03-26 20:01:07.551,-3.663123527078351
2025-03-26 20:01:07.552,-2.3874860805893614
2025-03-26 20:01:07.552,1.693234478534888
2025-03-26 20:01:07.552,4.375721647876033
2025-03-26 20:01:07.561,2.8499215656683177
2025-03-26 20:01:07.561,-1.310726235353991
2025-03-26 20:01:07.562,-4.01708587069453
2025-03-26 20:01:07.562,-2.9881611607788288
2025-03-26 20:01:07.562,0.29187631166157446
2025-03-26 20:01:07.571,2.6320189647417354
2025-03-26 20:01:07.571,2.4020119016176604
2025-03-26 20:01:07.571,0.5818878931962165
2025-03-26 20:01:07.571,-0.8392964728369938
2025-03-26 20:01:07.571,-0.9666956322517197
2025-03-26 20:01:07.581,-0.5417995094561917
2025-03-26 20:01:07.581,-0.6631748979585322
2025-03-26 20:01:07.581,-1.1928990966133945
2025-03-26 20:01:07.581,-0.7595330961185095
2025-03-26 20:01:07.581,1.3441409100487014
2025-03-26 20:01:07.589,3.510920821401273
2025-03-26 20:01:07.589,2.9424694602225054
2025-03-26 20:01:07.589,-0.9669577889284398
2025-03-26 20:01:07.590,-4.948240767530064
2025-03-26 20:01:07.599,-4.7770655943878255
2025-03-26 20:01:07.599,-0.11444446097217029
2025-03-26 20:01:07.599,4.63340698833024
2025-03-26 20:01:07.599,4.984906720986396
2025-03-26 20:01:07.599,1.151533965469334
2025-03-26 20:01:07.607,-2.7360297386648287
2025-03-26 20:01:07.607,-3.508060141404308
2025-03-26 20:01:07.607,-1.6990942724476934
2025-03-26 20:01:07.608,0.4031054670136239
2025-03-26 20:01:07.608,1.6140353775816532
2025-03-26 20:01:07.617,1.8955798033589322
2025-03-26 20:01:07.617,1.1119426034728734
2025-03-26 20:01:07.618,-0.5671675257191704
2025-03-26 20:01:07.618,-1.7828140903687546
2025-03-26 20:01:07.618,-1.25291293614875
2025-03-26 20:01:07.628,0.3182490756527811
2025-03-26 20:01:07.628,1.0708640939115877
2025-03-26 20:01:07.628,0.5456268047024381
2025-03-26 20:01:07.628,-0.041749590115697593
2025-03-26 20:01:07.637,0.011598737927403985
2025-03-26 20:01:07.637,0.015121520277830022
2025-03-26 20:01:07.638,-0.4908984918892465
2025-03-26 20:01:07.638,-0.7066180285745193
2025-03-26 20:01:07.638,0.02392735370339371
2025-03-26 20:01:07.647,0.8644835539167264
2025-03-26 20:01:07.647,0.6410653775217502
2025-03-26 20:01:07.647,-0.3082262627461761
2025-03-26 20:01:07.647,-0.6527848316154439
2025-03-26 20:01:07.648,-0.13032693338586526
2025-03-26 20:01:07.655,0.2021846182654522
2025-03-26 20:01:07.656,-0.15873253605948576
2025-03-26 20:01:07.656,-0.31950689775717966
2025-03-26 20:01:07.656,0.42706118494134265
2025-03-26 20:01:07.665,1.1603642241791685
2025-03-26 20:01:07.666,0.48353936525482266
2025-03-26 20:01:07.666,-1.233916925130796
2025-03-26 20:01:07.666,-1.9018301977270577
2025-03-26 20:01:07.666,-0.3628889901190124
2025-03-26 20:01:07.675,1.84592149959254
2025-03-26 20:01:07.675,2.180355161445249
2025-03-26 20:01:07.675,0.16145429980773393
2025-03-26 20:01:07.676,-2.056098850215399
2025-03-26 20:01:07.676,-2.1512188947974122
2025-03-26 20:01:07.683,-0.06276967135777159
2025-03-26 20:01:07.684,2.105227394510934
2025-03-26 20:01:07.684,2.1778402280988196
2025-03-26 20:01:07.684,-0.07665763294294609
2025-03-26 20:01:07.684,-2.5874928040404086
2025-03-26 20:01:07.693,-2.668577635290955
2025-03-26 20:01:07.693,0.3049411923387511
2025-03-26 20:01:07.693,3.697003060260264
2025-03-26 20:01:07.694,3.8032737482858954
2025-03-26 20:01:07.705,-0.14394267224933094
2025-03-26 20:01:07.705,-4.613690173413445
2025-03-26 20:01:07.705,-5.149738684761239
2025-03-26 20:01:07.705,-0.9854928170095005
2025-03-26 20:01:07.705,4.180542460757496
2025-03-26 20:01:07.705,5.848771373304363
2025-03-26 20:01:07.713,2.787952619872082
2025-03-26 20:01:07.713,-2.2380211273947133
2025-03-26 20:01:07.713,-5.172675077211617
2025-03-26 20:01:07.713,-4.0419721296781645
2025-03-26 20:01:07.723,-0.20525464381428382
2025-03-26 20:01:07.723,3.176880487273731
2025-03-26 20:01:07.723,3.8098054628333706
2025-03-26 20:01:07.723,1.8093792299100142
2025-03-26 20:01:07.723,-0.8655168961114124
2025-03-26 20:01:07.731,-2.26786880993069
2025-03-26 20:01:07.731,-1.8846793616061435
2025-03-26 20:01:07.731,-0.5787261366532784
2025-03-26 20:01:07.731,0.49380542607833056
2025-03-26 20:01:07.741,0.8044852419555237
2025-03-26 20:01:07.741,0.5889105538205136
2025-03-26 20:01:07.741,0.3812508005504607
2025-03-26 20:01:07.741,0.43542465938482644
2025-03-26 20:01:07.741,0.504679314175074
2025-03-26 20:01:07.750,0.15418465381537627
2025-03-26 20:01:07.750,-0.729044709548795
2025-03-26 20:01:07.750,-1.6931773040844265
2025-03-26 20:01:07.750,-1.8817767809813422
2025-03-26 20:01:07.750,-0.5874854403541631
2025-03-26 20:01:07.759,1.895466806320627
2025-03-26 20:01:07.759,3.829571861630282
2025-03-26 20:01:07.759,3.065930646405329
2025-03-26 20:01:07.759,-0.6935618078086209
2025-03-26 20:01:07.769,-4.715398833062302
2025-03-26 20:01:07.769,-5.223897412885262
2025-03-26 20:01:07.769,-1.2247680104289684
2025-03-26 20:01:07.769,3.9853610590004482
2025-03-26 20:01:07.769,5.766363097853659
2025-03-26 20:01:07.779,2.6508002053750523
2025-03-26 20:01:07.779,-2.334630255729652
2025-03-26 20:01:07.779,-4.757271824254212
2025-03-26 20:01:07.780,-2.918361674064214
2025-03-26 20:01:07.780,0.969297705921651
2025-03-26 20:01:07.788,3.2740066990256684
2025-03-26 20:01:07.788,2.3236252786260403
2025-03-26 20:01:07.788,-0.4742260899943955
2025-03-26 20:01:07.789,-2.3348465702205483
2025-03-26 20:01:07.797,-1.6832387016810586
2025-03-26 20:01:07.797,0.6133173340201334
2025-03-26 20:01:07.798,2.212371330168651
2025-03-26 20:01:07.798,1.5424414049163622
2025-03-26 20:01:07.798,-0.7148102480167031
2025-03-26 20:01:07.807,-2.352094819262659
2025-03-26 20:01:07.807,-1.839913312079605
2025-03-26 20:01:07.807,0.254778727229935
2025-03-26 20:01:07.807,1.996126038397084
2025-03-26 20:01:07.808,2.0317995750454707
2025-03-26 20:01:07.817,0.6760170352526028
2025-03-26 20:01:07.817,-0.8158984737570754
2025-03-26 20:01:07.817,-1.5943341118949543
2025-03-26 20:01:07.817,-1.5637884589660633
2025-03-26 20:01:07.817,-0.8338411875997455
2025-03-26 20:01:07.827,0.4677809552181267
2025-03-26 20:01:07.827,1.7940005899751226
2025-03-26 20:01:07.827,2.172674315249135
2025-03-26 20:01:07.827,1.0229817376181745
2025-03-26 20:01:07.827,-1.044889249803866
2025-03-26 20:01:07.835,-2.5000059417599116
2025-03-26 20:01:07.836,-2.209336740427532
2025-03-26 20:01:07.836,-0.4734057456431083
2025-03-26 20:01:07.836,1.4103438522496001
2025-03-26 20:01:07.845,2.398047321496159
2025-03-26 20:01:07.845,2.1607997061115713
2025-03-26 20:01:07.845,0.7208777377565169
2025-03-26 20:01:07.845,-1.4671183145004678
2025-03-26 20:01:07.845,-3.080393309853274
2025-03-26 20:01:07.855,-2.603189880878955
2025-03-26 20:01:07.855,-0.030644605981900414
2025-03-26 20:01:07.855,2.6155894697279196
2025-03-26 20:01:07.855,3.1127180970673134
2025-03-26 20:01:07.855,1.2484577462152773
2025-03-26 20:01:07.865,-1.1802148001854442
2025-03-26 20:01:07.865,-2.333758934098992
2025-03-26 20:01:07.865,-1.772824004920752
2025-03-26 20:01:07.865,-0.22317812946854926
2025-03-26 20:01:07.865,1.2324537818765888
2025-03-26 20:01:07.873,1.667792005328824
2025-03-26 20:01:07.874,0.8502227771266406
2025-03-26 20:01:07.874,-0.419457961764011
2025-03-26 20:01:07.874,-1.0059606954399642
2025-03-26 20:01:07.883,-0.641525849047345
2025-03-26 20:01:07.883,-0.04160664937051908
2025-03-26 20:01:07.884,0.14564700964552268
2025-03-26 20:01:07.884,0.005913839005600226
2025-03-26 20:01:07.884,-0.04290321050295243
2025-03-26 20:01:07.893,0.1792899206071195
2025-03-26 20:01:07.893,0.5572033031049828
2025-03-26 20:01:07.893,0.7819758802752689
2025-03-26 20:01:07.893,0.4154414514143308
2025-03-26 20:01:07.893,-0.666112281262786
2025-03-26 20:01:07.905,-1.6890079346766746
2025-03-26 20:01:07.905,-1.4225584893868273
2025-03-26 20:01:07.905,0.2978946127384149
2025-03-26 20:01:07.905,1.9352775100229769
2025-03-26 20:01:07.906,1.8388751006007709
2025-03-26 20:01:07.914,0.25024901527308036
2025-03-26 20:01:07.914,-1.0548071814549793
2025-03-26 20:01:07.914,-1.09244332112845
2025-03-26 20:01:07.914,-0.6730680129393367
2025-03-26 20:01:07.921,-0.6977091462058265
2025-03-26 20:01:07.921,-0.5268581638082346
2025-03-26 20:01:07.921,0.8201012768531406
2025-03-26 20:01:07.922,2.4565474036352013
2025-03-26 20:01:07.922,2.208996774836374
2025-03-26 20:01:07.931,-0.414779580220332
2025-03-26 20:01:07.931,-3.1474263918122034
2025-03-26 20:01:07.931,-3.3846243248578767
2025-03-26 20:01:07.931,-0.8701266344735566
2025-03-26 20:01:07.931,2.35693958838235
2025-03-26 20:01:07.941,3.904326769269639
2025-03-26 20:01:07.941,2.6358629531052826
2025-03-26 20:01:07.941,-0.7034930455032131
2025-03-26 20:01:07.941,-3.7176292251006107
2025-03-26 20:01:07.941,-3.8378476218186623
2025-03-26 20:01:07.950,-0.6964031611583944
2025-03-26 20:01:07.950,2.9403415849082335
2025-03-26 20:01:07.950,3.625079464252157
2025-03-26 20:01:07.950,0.9966636913337417
2025-03-26 20:01:07.959,-1.8058920969321859
2025-03-26 20:01:07.959,-1.9949706819622461
2025-03-26 20:01:07.959,-0.31457986592603965
2025-03-26 20:01:07.960,0.5957186641141764
2025-03-26 20:01:07.960,-0.0049381148437308425
2025-03-26 20:01:07.969,-0.4491448806372583
2025-03-26 20:01:07.969,0.33510072844891076
2025-03-26 20:01:07.969,1.1516113266776133
2025-03-26 20:01:07.969,0.5568929464759053
2025-03-26 20:01:07.969,-0.7953561805165348
2025-03-26 20:01:07.979,-1.0922615435423124
2025-03-26 20:01:07.979,-0.025280051007917984
2025-03-26 20:01:07.980,0.835069207308489
2025-03-26 20:01:07.980,0.3404919252121916
2025-03-26 20:01:07.980,-0.6844523694684952
2025-03-26 20:01:07.989,-0.6805692304012738
2025-03-26 20:01:07.989,0.4853720063691999
2025-03-26 20:01:07.989,1.2876934110912455
2025-03-26 20:01:07.989,0.4908407390924003
2025-03-26 20:01:07.990,-1.1538538123235835
2025-03-26 20:01:07.997,-1.6565542526721893
2025-03-26 20:01:07.998,-0.22155237489866705
2025-03-26 20:01:07.998,1.6249284758330902
2025-03-26 20:01:07.998,1.7330318936753268
2025-03-26 20:01:08.009,-0.11948141905866479
2025-03-26 20:01:08.009,-1.8923169987274109
2025-03-26 20:01:08.009,-1.6039983588564457
2025-03-26 20:01:08.009,0.39702738564629503
2025-03-26 20:01:08.009,1.8825717684389787
2025-03-26 20:01:08.017,1.3369476316988802
2025-03-26 20:01:08.017,-0.4466391385083059
2025-03-26 20:01:08.017,-1.5071922131952071
2025-03-26 20:01:08.017,-0.9405311110541347
2025-03-26 20:01:08.017,0.3673132538518315
2025-03-26 20:01:08.025,0.9467388857255674
2025-03-26 20:01:08.025,0.3384046705160083
2025-03-26 20:01:08.025,-0.5299201475666229
2025-03-26 20:01:08.026,-0.486029592965145
2025-03-26 20:01:08.035,0.4612063437012829
2025-03-26 20:01:08.035,1.0624223161271242
2025-03-26 20:01:08.035,0.3106442900517764
2025-03-26 20:01:08.035,-1.2038768969495388
2025-03-26 20:01:08.035,-1.7322798328775462
2025-03-26 20:01:08.045,-0.34085297526739816
2025-03-26 20:01:08.045,1.7207475809456645
2025-03-26 20:01:08.045,2.1272048417786396
2025-03-26 20:01:08.045,0.18686342056750152
2025-03-26 20:01:08.045,-2.063368169525919
2025-03-26 20:01:08.054,-2.056005160994826
2025-03-26 20:01:08.054,0.263834509654032
2025-03-26 20:01:08.054,2.3052056688884357
2025-03-26 20:01:08.054,1.8261807269610597
2025-03-26 20:01:08.054,-0.575730798557833
2025-03-26 20:01:08.065,-2.33294706425466
2025-03-26 20:01:08.065,-1.8024789280092917
2025-03-26 20:01:08.065,0.275068656637959
2025-03-26 20:01:08.065,1.9577169064720474
2025-03-26 20:01:08.065,2.028220916355724
2025-03-26 20:01:08.073,0.6648507068816696
2025-03-26 20:01:08.073,-1.1343309098566887
2025-03-26 20:01:08.073,-2.289160633276379
2025-03-26 20:01:08.073,-2.010357394463452
2025-03-26 20:01:08.083,-0.1277018735838954
2025-03-26 20:01:08.083,2.38274808899102
2025-03-26 20:01:08.083,3.453273877038395
2025-03-26 20:01:08.083,1.5501967413770614
2025-03-26 20:01:08.083,-2.209430421255459
2025-03-26 20:01:08.091,-4.3592664847583995
2025-03-26 20:01:08.092,-2.497725375651217
2025-03-26 20:01:08.092,1.7860767865908058
2025-03-26 20:01:08.092,4.262827394673174
2025-03-26 20:01:08.103,2.5387592186537487
2025-03-26 20:01:08.103,-1.3905615282410464
2025-03-26 20:01:08.103,-3.4382784503961696
2025-03-26 20:01:08.104,-1.8811898713766355
2025-03-26 20:01:08.104,1.1285186791177704
2025-03-26 20:01:08.104,2.401029202817723
2025-03-26 20:01:08.111,1.166836938185148
2025-03-26 20:01:08.111,-0.7413681526172708
2025-03-26 20:01:08.112,-1.4268451615373647
2025-03-26 20:01:08.112,-0.7494534434673146
2025-03-26 20:01:08.124,0.2149533810768176
2025-03-26 20:01:08.124,0.6302737196076698
2025-03-26 20:01:08.124,0.45513548719900987
2025-03-26 20:01:08.124,0.07891745882156026
2025-03-26 20:01:08.124,-0.0908893477913672
2025-03-26 20:01:08.129,0.08216602136706697
2025-03-26 20:01:08.129,0.21616284310402425
2025-03-26 20:01:08.129,-0.24474141939048216
2025-03-26 20:01:08.130,-1.0573004838552547
2025-03-26 20:01:08.139,-1.0327105917172401
2025-03-26 20:01:08.139,0.4490412054542496
2025-03-26 20:01:08.139,2.1160638530931273
2025-03-26 20:01:08.139,1.9160326943862476
2025-03-26 20:01:08.139,-0.42445561408522864
2025-03-26 20:01:08.149,-2.6814657206172385
2025-03-26 20:01:08.149,-2.444309079465241
2025-03-26 20:01:08.149,0.15758525250102817
2025-03-26 20:01:08.149,2.5364222068136213
2025-03-26 20:01:08.149,2.4401432586379896
2025-03-26 20:01:08.157,0.2182943002012217
2025-03-26 20:01:08.157,-1.8414022150565352
2025-03-26 20:01:08.158,-1.9907346093498024
2025-03-26 20:01:08.158,-0.4969278837626765
2025-03-26 20:01:08.167,1.0345988397099
2025-03-26 20:01:08.167,1.3229818299997373
2025-03-26 20:01:08.167,0.4135103637726888
2025-03-26 20:01:08.167,-0.6088723419904086
2025-03-26 20:01:08.167,-0.723837612867062
2025-03-26 20:01:08.176,0.07003864701175543
2025-03-26 20:01:08.176,0.7736698162425032
2025-03-26 20:01:08.176,0.4503035899040326
2025-03-26 20:01:08.176,-0.6596585857718434
2025-03-26 20:01:08.176,-1.2835057002179675
2025-03-26 20:01:08.186,-0.5428189289988283
2025-03-26 20:01:08.186,0.9556785941613252
2025-03-26 20:01:08.186,1.6958032009705375
2025-03-26 20:01:08.186,0.8538771351950051
2025-03-26 20:01:08.186,-0.8222468052822747
2025-03-26 20:01:08.195,-1.7452542694066784
2025-03-26 20:01:08.195,-1.0844308728916232
2025-03-26 20:01:08.196,0.4191552460518478
2025-03-26 20:01:08.196,1.3156035154722368
2025-03-26 20:01:08.205,0.9802895909071488
2025-03-26 20:01:08.205,0.04636724593011218
2025-03-26 20:01:08.205,-0.5301625018470013
2025-03-26 20:01:08.205,-0.46019548697861173
2025-03-26 20:01:08.206,-0.19820685324371812
2025-03-26 20:01:08.213,-0.27653083501013836
2025-03-26 20:01:08.213,-0.5807530372571219
2025-03-26 20:01:08.214,-0.3459682173030651
2025-03-26 20:01:08.214,0.8285562510796323
2025-03-26 20:01:08.225,1.9985090073721417
2025-03-26 20:01:08.225,1.5233136044568154
2025-03-26 20:01:08.225,-0.8785948036239131
2025-03-26 20:01:08.225,-3.1459662625173626
2025-03-26 20:01:08.225,-2.737566674660813
2025-03-26 20:01:08.232,0.3846083082666342
2025-03-26 20:01:08.232,3.315500962191342
2025-03-26 20:01:08.232,3.2231340311919623
2025-03-26 20:01:08.232,0.3662283172044307
2025-03-26 20:01:08.244,-2.421524319624932
2025-03-26 20:01:08.244,-2.8499435004519063
2025-03-26 20:01:08.244,-1.0851988006914444
2025-03-26 20:01:08.244,1.1256704056083222
2025-03-26 20:01:08.244,2.233880344647364
2025-03-26 20:01:08.251,1.6617860871823549
2025-03-26 20:01:08.251,-0.16562081675779095
2025-03-26 20:01:08.251,-1.8767662004389924
2025-03-26 20:01:08.251,-1.9133499994696548
2025-03-26 20:01:08.251,-0.13606604985494775
2025-03-26 20:01:08.261,1.6403625025458182
2025-03-26 20:01:08.261,1.5582398552934702
2025-03-26 20:01:08.261,-0.046989222333052305
2025-03-26 20:01:08.261,-1.1702279374030524
2025-03-26 20:01:08.261,-0.7416152584547357
2025-03-26 20:01:08.269,0.26856669732143373
2025-03-26 20:01:08.269,0.4822297856711391
2025-03-26 20:01:08.270,-0.07420519645475124
2025-03-26 20:01:08.270,-0.3332640862957071
2025-03-26 20:01:08.279,0.16206881497185194
2025-03-26 20:01:08.279,0.6957427961310532
2025-03-26 20:01:08.279,0.4413278046558926
2025-03-26 20:01:08.279,-0.4803179988112723
2025-03-26 20:01:08.279,-1.1908955074622012
2025-03-26 20:01:08.289,-0.9360262713540727
2025-03-26 20:01:08.289,0.3038376832892938
2025-03-26 20:01:08.289,1.657013422320033
2025-03-26 20:01:08.289,1.802176200644535
2025-03-26 20:01:08.289,0.1969504933715695
2025-03-26 20:01:08.298,-1.9392252742588876
2025-03-26 20:01:08.298,-2.4952822015642826
2025-03-26 20:01:08.298,-0.7278404273855958
2025-03-26 20:01:08.298,1.7352979013484855
2025-03-26 20:01:08.307,2.5539126081458132
2025-03-26 20:01:08.307,1.1100764285004643
2025-03-26 20:01:08.307,-1.0676554049271278
2025-03-26 20:01:08.308,-2.0772841205014814
2025-03-26 20:01:08.308,-1.3357845346116772
2025-03-26 20:01:08.317,0.3470962295792755
2025-03-26 20:01:08.317,1.6471412330033057
2025-03-26 20:01:08.318,1.5330853478240254
2025-03-26 20:01:08.318,-0.03508824263236829
2025-03-26 20:01:08.318,-1.7499891315680174
2025-03-26 20:01:08.330,-1.8352477908577025
2025-03-26 20:01:08.330,0.10452030640353316
2025-03-26 20:01:08.331,2.2785321813000694
2025-03-26 20:01:08.331,2.3104885343830275
2025-03-26 20:01:08.331,-0.14553351673531056
2025-03-26 20:01:08.338,-2.710937340867
2025-03-26 20:01:08.338,-2.66475615046991
2025-03-26 20:01:08.338,0.014957681592034533
2025-03-26 20:01:08.339,2.539111584605247
2025-03-26 20:01:08.345,2.420400548958099
2025-03-26 20:01:08.345,0.13395580447325361
2025-03-26 20:01:08.345,-1.7444863763766414
2025-03-26 20:01:08.346,-1.5893774825153393
2025-03-26 20:01:08.346,-0.19662923434108792
2025-03-26 20:01:08.354,0.7297579778785933
2025-03-26 20:01:08.354,0.6869254492606317
2025-03-26 20:01:08.354,0.3692010034965115
2025-03-26 20:01:08.354,0.16185825188726566
2025-03-26 20:01:08.354,-0.24613815427828667
2025-03-26 20:01:08.364,-0.7784757679987357
2025-03-26 20:01:08.364,-0.6812079988255433
2025-03-26 20:01:08.364,0.24328633325469973
2025-03-26 20:01:08.364,1.0302252568055736
2025-03-26 20:01:08.364,0.7793165475502533
2025-03-26 20:01:08.373,-0.1637432810368409
2025-03-26 20:01:08.373,-0.8103987639013269
2025-03-26 20:01:08.373,-0.7607201772686084
2025-03-26 20:01:08.373,-0.2620924709004604
2025-03-26 20:01:08.383,0.43042391646337946
2025-03-26 20:01:08.383,1.0066733516410442
2025-03-26 20:01:08.383,0.815388768016637
2025-03-26 20:01:08.383,-0.3986476038926251
2025-03-26 20:01:08.383,-1.55193701479245
2025-03-26 20:01:08.391,-1.0913972566530918
2025-03-26 20:01:08.392,0.839320677366921
2025-03-26 20:01:08.392,2.033079918427961
2025-03-26 20:01:08.392,0.8002391083795118
2025-03-26 20:01:08.401,-1.5898995313748336
2025-03-26 20:01:08.401,-2.1138454542335756
2025-03-26 20:01:08.401,0.1782521089078266
2025-03-26 20:01:08.401,2.55086747515164
2025-03-26 20:01:08.401,1.7559660264515624
2025-03-26 20:01:08.411,-1.643720296409002
2025-03-26 20:01:08.411,-3.535453114931623
2025-03-26 20:01:08.411,-1.2531235196350934
2025-03-26 20:01:08.411,2.8973206241936076
2025-03-26 20:01:08.411,4.191611045138066
2025-03-26 20:01:08.421,1.0310942374491532
2025-03-26 20:01:08.421,-3.2640725420018257
2025-03-26 20:01:08.422,-4.288706759338641
2025-03-26 20:01:08.422,-1.2216807513585086
2025-03-26 20:01:08.422,2.740797921811817
2025-03-26 20:01:08.430,3.914548589887322
2025-03-26 20:01:08.430,1.5328415455558744
2025-03-26 20:01:08.430,-1.9190490358663002
2025-03-26 20:01:08.430,-3.2170741736637853
2025-03-26 20:01:08.439,-1.4372498191123142
2025-03-26 20:01:08.440,1.2662662318245586
2025-03-26 20:01:08.440,2.103763137064029
2025-03-26 20:01:08.440,0.7105838463186516
2025-03-26 20:01:08.440,-0.8222991853354076
2025-03-26 20:01:08.455,-0.7915579576042511
2025-03-26 20:01:08.455,0.24938915517132942
2025-03-26 20:01:08.455,0.708747697758619
2025-03-26 20:01:08.455,0.07995693788979683
2025-03-26 20:01:08.455,-0.8137410857119767
2025-03-26 20:01:08.458,-1.095524976295978
2025-03-26 20:01:08.458,-0.5456945649372267
2025-03-26 20:01:08.458,0.6354207828818313
2025-03-26 20:01:08.458,1.8203484199594795
2025-03-26 20:01:08.467,1.8189645875677816
2025-03-26 20:01:08.467,-0.03535301904550563
2025-03-26 20:01:08.467,-2.3778215063898345
2025-03-26 20:01:08.467,-2.693636341185061
2025-03-26 20:01:08.467,-0.39761934368833574
2025-03-26 20:01:08.477,2.108416520065596
2025-03-26 20:01:08.477,2.3133335298824034
2025-03-26 20:01:08.477,0.5341609341831794
2025-03-26 20:01:08.477,-0.99014852286592
2025-03-26 20:01:08.477,-1.0757688191821042
2025-03-26 20:01:08.487,-0.4505837580582302
2025-03-26 20:01:08.487,-0.08530059084457475
2025-03-26 20:01:08.487,0.008723226067056701
2025-03-26 20:01:08.487,0.1607249736447816
2025-03-26 20:01:08.487,0.28451781774695406
2025-03-26 20:01:08.496,0.24988320732482294
2025-03-26 20:01:08.496,0.2761317241495053
2025-03-26 20:01:08.496,0.38148941057701286
2025-03-26 20:01:08.496,0.06470860004596844
2025-03-26 20:01:08.496,-0.777803237889607
2025-03-26 20:01:08.506,-1.1721834762560457
2025-03-26 20:01:08.506,-0.23397458653745054
2025-03-26 20:01:08.506,1.234964121117497
2025-03-26 20:01:08.506,1.3804586231988545
2025-03-26 20:01:08.506,-0.2202347570297647
2025-03-26 20:01:08.515,-1.6313341934689214
2025-03-26 20:01:08.515,-0.8819262353847137
2025-03-26 20:01:08.515,1.2704443601633586
2025-03-26 20:01:08.515,2.0064988423076437
2025-03-26 20:01:08.525,0.06945354506651945
2025-03-26 20:01:08.525,-2.332620369191685
2025-03-26 20:01:08.525,-2.1429884236466554
2025-03-26 20:01:08.525,0.5715647984919591
2025-03-26 20:01:08.525,2.5710180363345843
2025-03-26 20:01:08.534,1.5656728241146223
2025-03-26 20:01:08.534,-0.9311391599873686
2025-03-26 20:01:08.534,-1.7888904545789197
2025-03-26 20:01:08.534,-0.3060177921031828
2025-03-26 20:01:08.534,1.3064397462932702
2025-03-26 20:01:08.544,1.0332035366625218
2025-03-26 20:01:08.544,-0.7359390146209659
2025-03-26 20:01:08.544,-2.053995666150286
2025-03-26 20:01:08.544,-1.4311062562390198
2025-03-26 20:01:08.553,0.9272802372362724
2025-03-26 20:01:08.553,3.0533597421400316
2025-03-26 20:01:08.554,2.6305098127212214
2025-03-26 20:01:08.554,-0.5615600151382075
2025-03-26 20:01:08.554,-3.7124893900879266
2025-03-26 20:01:08.563,-3.511292011096745
2025-03-26 20:01:08.563,0.11553440262108658
2025-03-26 20:01:08.563,3.5864755075639074
2025-03-26 20:01:08.564,3.4866009318652176
2025-03-26 20:01:08.564,0.25063147740313657
2025-03-26 20:01:08.571,-2.613605843930875
2025-03-26 20:01:08.572,-2.5652215652308787
2025-03-26 20:01:08.572,-0.40947810292894726
2025-03-26 20:01:08.572,1.2806733576128875
2025-03-26 20:01:08.581,1.155758460869163
2025-03-26 20:01:08.581,0.05968932188628387
2025-03-26 20:01:08.581,-0.44763060943076693
2025-03-26 20:01:08.582,0.09669041750673152
2025-03-26 20:01:08.582,0.7757395785818618
2025-03-26 20:01:08.591,0.5093029027925337
2025-03-26 20:01:08.591,-0.6761302384633278
2025-03-26 20:01:08.591,-1.5961206868108477
2025-03-26 20:01:08.591,-1.094768607513798
2025-03-26 20:01:08.591,0.6487503028710413
2025-03-26 20:01:08.601,2.047385992347393
2025-03-26 20:01:08.601,1.5979494941077148
2025-03-26 20:01:08.601,-0.46017612582484546
2025-03-26 20:01:08.601,-2.2048187897078555
2025-03-26 20:01:08.601,-1.9092479759226793
2025-03-26 20:01:08.610,0.21712938485839905
2025-03-26 20:01:08.610,2.218909261017151
2025-03-26 20:01:08.610,2.2744133396368014
2025-03-26 20:01:08.610,0.37330004377067033
2025-03-26 20:01:08.619,-1.8099507286140992
2025-03-26 20:01:08.619,-2.545321232267111
2025-03-26 20:01:08.620,-1.425178299174893
2025-03-26 20:01:08.620,0.6268957272844486
2025-03-26 20:01:08.620,2.234544817824506
2025-03-26 20:01:08.630,2.411267563551174
2025-03-26 20:01:08.630,1.0358083817726498
2025-03-26 20:01:08.630,-1.0848983007099946
2025-03-26 20:01:08.630,-2.634902293978186
2025-03-26 20:01:08.630,-2.5372878924669098
2025-03-26 20:01:08.638,-0.6461016171161869
2025-03-26 20:01:08.638,1.9788231332512005
2025-03-26 20:01:08.638,3.485781923011798
2025-03-26 20:01:08.638,2.4220059536072363
2025-03-26 20:01:08.638,-0.8266319400336747
2025-03-26 20:01:08.647,-3.7329561481011497
2025-03-26 20:01:08.647,-3.5662052960411454
2025-03-26 20:01:08.648,-0.2701451855142575
2025-03-26 20:01:08.648,3.0725393643561785
2025-03-26 20:01:08.657,3.3745605784092727
2025-03-26 20:01:08.657,0.8124456547589258
2025-03-26 20:01:08.657,-1.7073416978188636
2025-03-26 20:01:08.657,-1.9641016972902887
2025-03-26 20:01:08.657,-0.4744515414077185
2025-03-26 20:01:08.666,0.7113603712825844
2025-03-26 20:01:08.666,0.4320836577023762
2025-03-26 20:01:08.666,-0.6144347483313046
2025-03-26 20:01:08.666,-0.9054714482302771
2025-03-26 20:01:08.666,0.20261088304680475
2025-03-26 20:01:08.676,1.7255614991403108
2025-03-26 20:01:08.676,1.934183166230212
2025-03-26 20:01:08.676,0.1636436351786115
2025-03-26 20:01:08.676,-2.1755638978074505
2025-03-26 20:01:08.686,-2.753538409757227
2025-03-26 20:01:08.686,-0.8221721196707298
2025-03-26 20:01:08.686,1.7628173743241673
2025-03-26 20:01:08.686,2.514627422346622
2025-03-26 20:01:08.686,1.0628739172537482
2025-03-26 20:01:08.695,-0.702583124794608
2025-03-26 20:01:08.695,-1.1356651727979112
2025-03-26 20:01:08.695,-0.6389156847883276
2025-03-26 20:01:08.696,-0.5349883060485229
2025-03-26 20:01:08.696,-0.8393020981227883
2025-03-26 20:01:08.705,-0.2675470943065256
2025-03-26 20:01:08.705,1.4696048181353665
2025-03-26 20:01:08.705,2.5814914762675683
2025-03-26 20:01:08.705,1.2769959114442455
2025-03-26 20:01:08.705,-1.6671282980198774
2025-03-26 20:01:08.730,-3.415547797730551
2025-03-26 20:01:08.730,-2.1477716311605604
2025-03-26 20:01:08.730,0.9995268687437405
2025-03-26 20:01:08.730,3.1990034324826624
2025-03-26 20:01:08.730,2.724842518702618
2025-03-26 20:01:08.731,0.24830128727787076
2025-03-26 20:01:08.731,-2.2143514161483235
2025-03-26 20:01:08.731,-2.974808138425011
2025-03-26 20:01:08.731,-1.5058076488588736
2025-03-26 20:01:08.732,1.2491061082230352
2025-03-26 20:01:08.732,3.019651222203309
2025-03-26 20:01:08.732,1.8781888715561261
2025-03-26 20:01:08.732,-1.2951338642612535
2025-03-26 20:01:08.732,-2.9672148339890043
2025-03-26 20:01:08.742,-0.8938558822997175
2025-03-26 20:01:08.742,2.6158352699987875
2025-03-26 20:01:08.742,3.0065811422768047
2025-03-26 20:01:08.742,-0.7637532191825371
2025-03-26 20:01:08.751,-4.4197373784480245
2025-03-26 20:01:08.751,-3.355504336968264
2025-03-26 20:01:08.751,1.727116055632413
2025-03-26 20:01:08.751,5.609793581495868
2025-03-26 20:01:08.752,4.378405350761352
2025-03-26 20:01:08.761,-0.9216668694238579
2025-03-26 20:01:08.762,-5.891753895557503
2025-03-26 20:01:08.762,-6.4839212171347045
2025-03-26 20:01:08.762,-1.6497607199212485
2025-03-26 20:01:08.762,5.522619886913036
2025-03-26 20:01:08.770,9.070944004089982
2025-03-26 20:01:08.770,4.884849878006603
2025-03-26 20:01:08.770,-4.35951293678675
2025-03-26 20:01:08.770,-10.357665217967465
2025-03-26 20:01:08.780,-7.15156646082206
2025-03-26 20:01:08.780,2.310170295100527
2025-03-26 20:01:08.780,8.995158422324625
2025-03-26 20:01:08.780,7.1907530554342625
2025-03-26 20:01:08.780,-0.13865589865606598
2025-03-26 20:01:08.789,-5.529577522942735
2025-03-26 20:01:08.789,-5.045662175436413
2025-03-26 20:01:08.789,-1.0895891254369408
2025-03-26 20:01:08.789,1.79495007380781
2025-03-26 20:01:08.789,1.9898272653647888
2025-03-26 20:01:08.798,1.116232388834863
2025-03-26 20:01:08.798,0.7622891041433458
2025-03-26 20:01:08.798,0.5936238223586644
2025-03-26 20:01:08.798,-0.32812803497656073
2025-03-26 20:01:08.809,-1.7093264558508852
2025-03-26 20:01:08.809,-2.2063472118361673
2025-03-26 20:01:08.810,-0.9794128323859852
2025-03-26 20:01:08.810,1.3294787575571978
2025-03-26 20:01:08.810,2.9693793193093345
2025-03-26 20:01:08.817,2.401711772967335
2025-03-26 20:01:08.817,-0.27527041319150125
2025-03-26 20:01:08.817,-2.9726106346029635
2025-03-26 20:01:08.818,-3.1829257652510132
2025-03-26 20:01:08.818,-0.543231405764514
2025-03-26 20:01:08.827,2.378938784826909
2025-03-26 20:01:08.827,2.6512223406405915
2025-03-26 20:01:08.827,0.34689345748268785
2025-03-26 20:01:08.827,-1.569181859935413
2025-03-26 20:01:08.827,-0.9684600694468861
2025-03-26 20:01:08.836,0.8809014633419774
2025-03-26 20:01:08.836,1.1828938938962754
2025-03-26 20:01:08.836,-0.7171627590318373
2025-03-26 20:01:08.836,-2.529259856824705
2025-03-26 20:01:08.845,-1.798735817757856
2025-03-26 20:01:08.845,1.2045469160232476
2025-03-26 20:01:08.846,3.6667285443772393
2025-03-26 20:01:08.846,3.102495584820092
2025-03-26 20:01:08.846,-0.15254371389178462
2025-03-26 20:01:08.855,-3.2986379401358397
2025-03-26 20:01:08.855,-3.7986686277949446
2025-03-26 20:01:08.855,-1.6515173959968326
2025-03-26 20:01:08.855,1.0671617102215438
2025-03-26 20:01:08.855,2.617758761173327
2025-03-26 20:01:08.864,2.913788697331698
2025-03-26 20:01:08.864,2.3497203132118765
2025-03-26 20:01:08.864,0.4837751866196756
2025-03-26 20:01:08.864,-2.8361361283219084
2025-03-26 20:01:08.873,-5.503607317617352
2025-03-26 20:01:08.873,-4.22980103898208
2025-03-26 20:01:08.873,1.3830173910529908
2025-03-26 20:01:08.874,6.9129655546518745
2025-03-26 20:01:08.874,6.9263415795494065
2025-03-26 20:01:08.884,0.8837865241045317
2025-03-26 20:01:08.884,-5.880458229770045
2025-03-26 20:01:08.884,-7.478239399705102
2025-03-26 20:01:08.884,-2.998916698921406
2025-03-26 20:01:08.884,3.32130671415937
2025-03-26 20:01:08.884,6.27230285349919
2025-03-26 20:01:08.893,3.7988920988704145
2025-03-26 20:01:08.893,-1.5615959974753726
2025-03-26 20:01:08.893,-4.704514528842334
2025-03-26 20:01:08.894,-2.669126467374826
2025-03-26 20:01:08.903,1.980315929278921
2025-03-26 20:01:08.904,3.671617796835901
2025-03-26 20:01:08.904,0.41700451201836136
2025-03-26 20:01:08.904,-3.549833157898535
2025-03-26 20:01:08.904,-3.028030226950068
2025-03-26 20:01:08.912,1.481457241409264
2025-03-26 20:01:08.912,4.43360308624745
2025-03-26 20:01:08.912,2.29372750865593
2025-03-26 20:01:08.912,-2.2738377227559785
2025-03-26 20:01:08.921,-4.047428555632203
2025-03-26 20:01:08.922,-1.4522812231618256
2025-03-26 20:01:08.922,2.2279334295216615
2025-03-26 20:01:08.922,3.1068214171817194
2025-03-26 20:01:08.922,0.7949307792522133
2025-03-26 20:01:08.931,-1.882148660503167
2025-03-26 20:01:08.931,-2.3250129347698487
2025-03-26 20:01:08.931,-0.5833799742356048
2025-03-26 20:01:08.931,1.3889358522257855
2025-03-26 20:01:08.932,1.9430260262952115
2025-03-26 20:01:08.941,0.8503830768685845
2025-03-26 20:01:08.941,-0.9398343641107723
2025-03-26 20:01:08.941,-1.9309155076057551
2025-03-26 20:01:08.941,-1.0680881803083395
2025-03-26 20:01:08.942,1.0209364801041132
2025-03-26 20:01:08.950,2.1182577612661744
2025-03-26 20:01:08.950,0.7042355487422989
2025-03-26 20:01:08.950,-1.8664193551562769
2025-03-26 20:01:08.950,-2.4697016585254796
2025-03-26 20:01:08.959,0.035322816127777684
2025-03-26 20:01:08.960,2.9799820671477377
2025-03-26 20:01:08.960,2.8073517146511113
2025-03-26 20:01:08.960,-0.5210704317369559
2025-03-26 20:01:08.960,-3.306849313580708
2025-03-26 20:01:08.970,-2.5726291308496676
2025-03-26 20:01:08.970,0.4773119667790079
2025-03-26 20:01:08.970,2.3130745931946817
2025-03-26 20:01:08.970,1.4931151570079115
2025-03-26 20:01:08.970,-0.18286094844784187
2025-03-26 20:01:08.979,-0.6702239721260437
2025-03-26 20:01:08.979,-0.13165855575379223
2025-03-26 20:01:08.979,0.15993997640836097
2025-03-26 20:01:08.979,-0.15403049145947123
2025-03-26 20:01:08.979,-0.6629309281527112
2025-03-26 20:01:08.988,-1.1268731171019284
2025-03-26 20:01:08.988,-1.0325266876318775
2025-03-26 20:01:08.988,0.5755149811048361
2025-03-26 20:01:08.988,3.201151416894955
2025-03-26 20:01:08.988,3.8896641453439833
2025-03-26 20:01:08.997,0.3637785742015044
2025-03-26 20:01:08.997,-4.987498307817089
2025-03-26 20:01:08.998,-6.549795071848942
2025-03-26 20:01:08.998,-1.87676841232462
2025-03-26 20:01:09.007,4.851353852636052
2025-03-26 20:01:09.007,7.132057940512017
2025-03-26 20:01:09.007,3.156645219948971
2025-03-26 20:01:09.007,-2.7744809743824104
2025-03-26 20:01:09.007,-5.361447905690198
2025-03-26 20:01:09.016,-3.356051796701027
2025-03-26 20:01:09.016,0.4370501253215683
2025-03-26 20:01:09.016,2.6631997118880255
2025-03-26 20:01:09.016,2.2276307203214354
2025-03-26 20:01:09.025,0.45547497716440366
2025-03-26 20:01:09.026,-0.686700953382413
2025-03-26 20:01:09.026,-0.4912521432515497
2025-03-26 20:01:09.026,0.14717773557782926
2025-03-26 20:01:09.026,0.11484776909450992
2025-03-26 20:01:09.034,-0.5475938130531613
2025-03-26 20:01:09.034,-0.9181751820092595
2025-03-26 20:01:09.034,-0.5144487655491872
2025-03-26 20:01:09.034,0.23059591493519932
2025-03-26 20:01:09.034,0.7540449468239699
2025-03-26 20:01:09.044,0.965091627869168
2025-03-26 20:01:09.044,0.8783468560470403
2025-03-26 20:01:09.044,0.2951522788884195
2025-03-26 20:01:09.044,-0.7345850761389044
2025-03-26 20:01:09.053,-1.57059658381145
2025-03-26 20:01:09.053,-1.5113945875167365
2025-03-26 20:01:09.053,-0.46290178671235727
2025-03-26 20:01:09.053,1.0420156649234562
2025-03-26 20:01:09.053,2.1884080870583933
2025-03-26 20:01:09.062,2.1742994511646034
2025-03-26 20:01:09.062,0.6147503545344356
2025-03-26 20:01:09.062,-1.8770888292975791
2025-03-26 20:01:09.062,-3.5397931727464433
2025-03-26 20:01:09.062,-2.564553717757353
2025-03-26 20:01:09.071,0.8939122928224342
2025-03-26 20:01:09.071,4.005288959188229
2025-03-26 20:01:09.072,3.65411522533911
2025-03-26 20:01:09.072,-0.029053475578650984
2025-03-26 20:01:09.081,-3.3992294089716357
2025-03-26 20:01:09.081,-3.2524136780826955
2025-03-26 20:01:09.081,-0.38002957842447915
2025-03-26 20:01:09.081,1.7633153446358167
2025-03-26 20:01:09.082,1.4693130033327206
2025-03-26 20:01:09.090,0.40447127036099917
2025-03-26 20:01:09.090,0.5506712682881935
2025-03-26 20:01:09.090,1.1301787812161548
2025-03-26 20:01:09.090,0.016973575874242926
2025-03-26 20:01:09.099,-2.5512515769376303
2025-03-26 20:01:09.099,-3.5677495822463694
2025-03-26 20:01:09.099,-1.0382019698341733
2025-03-26 20:01:09.100,3.093589571259559
2025-03-26 20:01:09.100,4.822191472053676
2025-03-26 20:01:09.108,2.4435494759624463
2025-03-26 20:01:09.108,-1.8459304195405488
2025-03-26 20:01:09.108,-4.503824075718744
2025-03-26 20:01:09.108,-3.8013710370828377
2025-03-26 20:01:09.108,-0.5044449394584006
2025-03-26 20:01:09.118,3.1668089858254675
2025-03-26 20:01:09.118,4.672024378321586
2025-03-26 20:01:09.118,2.6201686516166083
2025-03-26 20:01:09.118,-1.6406613591923542
2025-03-26 20:01:09.118,-4.52814980449261
2025-03-26 20:01:09.128,-3.4722747373926515
2025-03-26 20:01:09.128,0.38040786233801416
2025-03-26 20:01:09.128,3.3341221875316895
2025-03-26 20:01:09.128,2.987176869152432
2025-03-26 20:01:09.128,0.39141056387539347
2025-03-26 20:01:09.138,-1.6696874842480582
2025-03-26 20:01:09.138,-1.8008456545257783
2025-03-26 20:01:09.138,-0.7581065061432304
2025-03-26 20:01:09.138,0.26911866360049447
2025-03-26 20:01:09.147,0.8663976599183795
2025-03-26 20:01:09.147,0.9091235625834159
2025-03-26 20:01:09.147,0.2193007398538542
2025-03-26 20:01:09.147,-0.7548523415788778
2025-03-26 20:01:09.148,-0.8912541380963958
2025-03-26 20:01:09.157,0.21861180864504332
2025-03-26 20:01:09.157,1.355530394319899
2025-03-26 20:01:09.157,0.9245115273575005
2025-03-26 20:01:09.157,-0.937948305797074
2025-03-26 20:01:09.157,-2.169793404666808
2025-03-26 20:01:09.167,-1.091700408857089
2025-03-26 20:01:09.167,1.399541690011211
2025-03-26 20:01:09.167,2.573966810454184
2025-03-26 20:01:09.167,0.9817896813291666
2025-03-26 20:01:09.167,-1.6808796681438585
2025-03-26 20:01:09.175,-2.3802447536070814
2025-03-26 20:01:09.176,-0.29512788357110104
2025-03-26 20:01:09.176,2.1413046198839862
2025-03-26 20:01:09.176,2.071995946774621
2025-03-26 20:01:09.186,-0.4757973513365971
2025-03-26 20:01:09.186,-2.712620082325529
2025-03-26 20:01:09.186,-2.234271423215756
2025-03-26 20:01:09.186,0.5399598192842536
2025-03-26 20:01:09.186,2.9718016702320553
2025-03-26 20:01:09.195,2.7938547466213954
2025-03-26 20:01:09.195,0.14322043970796958
2025-03-26 20:01:09.195,-2.627330752840291
2025-03-26 20:01:09.195,-3.1014621830674702
2025-03-26 20:01:09.195,-0.9692079385412226
2025-03-26 20:01:09.204,1.7797051081822424
2025-03-26 20:01:09.204,2.769370282481943
2025-03-26 20:01:09.204,1.386619143624972
2025-03-26 20:01:09.204,-0.8508571666064503
2025-03-26 20:01:09.214,-1.9087280291097555
2025-03-26 20:01:09.214,-1.1207869713240395
2025-03-26 20:01:09.214,0.40278926544678806
2025-03-26 20:01:09.214,0.9852317103337404
2025-03-26 20:01:09.214,0.05931896475629016
2025-03-26 20:01:09.223,-1.1023504619776834
2025-03-26 20:01:09.223,-0.6026772062381345
2025-03-26 20:01:09.224,1.6155018792072262
2025-03-26 20:01:09.224,2.9709174513189334
2025-03-26 20:01:09.224,1.017428614981066
2025-03-26 20:01:09.232,-3.019243457644321
2025-03-26 20:01:09.232,-4.831910964963851
2025-03-26 20:01:09.232,-1.8870461433077688
2025-03-26 20:01:09.232,3.1990940923178703
2025-03-26 20:01:09.243,5.273274989574537
2025-03-26 20:01:09.243,2.403209898217729
2025-03-26 20:01:09.244,-2.145119557837377
2025-03-26 20:01:09.244,-3.91747214513272
2025-03-26 20:01:09.244,-2.0445153422128377
2025-03-26 20:01:09.244,0.7514164147586053
2025-03-26 20:01:09.252,1.8482530580511056
2025-03-26 20:01:09.252,1.09146311212606
2025-03-26 20:01:09.252,-0.09854387045062021
2025-03-26 20:01:09.252,-0.5827526366516563
2025-03-26 20:01:09.265,-0.1943321338198498
2025-03-26 20:01:09.265,0.4879616544954664
2025-03-26 20:01:09.265,0.581308587427948
2025-03-26 20:01:09.265,-0.2880396756847787
2025-03-26 20:01:09.265,-1.2302587336159176
2025-03-26 20:01:09.270,-0.8680448178397686
2025-03-26 20:01:09.270,0.6257731233490447
2025-03-26 20:01:09.270,1.2751221983890526
2025-03-26 20:01:09.270,0.056752159952460995
2025-03-26 20:01:09.270,-1.1907917644800738
2025-03-26 20:01:09.280,-0.22476051582555942
2025-03-26 20:01:09.280,1.9644936840148273
2025-03-26 20:01:09.280,2.0440886637326736
2025-03-26 20:01:09.280,-0.9944886424154095
2025-03-26 20:01:09.289,-3.928119023068936
2025-03-26 20:01:09.289,-3.0486449788419763
2025-03-26 20:01:09.290,1.2080296064340768
2025-03-26 20:01:09.290,4.588799729679535
2025-03-26 20:01:09.290,3.7460311856342554
2025-03-26 20:01:09.298,-0.32823929572838
2025-03-26 20:01:09.298,-3.6940975370266287
2025-03-26 20:01:09.298,-3.5458046896201734
2025-03-26 20:01:09.298,-0.6262293377954037
2025-03-26 20:01:09.307,1.9721175399582407
2025-03-26 20:01:09.308,2.0907436112076776
2025-03-26 20:01:09.308,0.5291899142454118
2025-03-26 20:01:09.308,-0.3622267690057138
2025-03-26 20:01:09.308,0.2011469971697909
2025-03-26 20:01:09.317,0.6633036130428264
2025-03-26 20:01:09.317,-0.36789490655019697
2025-03-26 20:01:09.317,-1.985172395836944
2025-03-26 20:01:09.317,-2.1186525187480756
2025-03-26 20:01:09.318,-0.1670068315159568
2025-03-26 20:01:09.326,2.2645467850628958
2025-03-26 20:01:09.326,3.032325939962188
2025-03-26 20:01:09.326,1.43011961055039
2025-03-26 20:01:09.326,-1.29000013291588
2025-03-26 20:01:09.326,-2.9910033742413473
2025-03-26 20:01:09.336,-2.366680015728048
2025-03-26 20:01:09.336,0.01105019575729467
2025-03-26 20:01:09.336,2.191197445266671
2025-03-26 20:01:09.336,2.488596081686789
2025-03-26 20:01:09.345,0.8226967515371614
2025-03-26 20:01:09.345,-1.3209129839914115
2025-03-26 20:01:09.345,-2.1375626492788977
2025-03-26 20:01:09.346,-1.0071332095312613
2025-03-26 20:01:09.346,0.909879242352441
2025-03-26 20:01:09.353,1.7416897566920495
2025-03-26 20:01:09.353,0.8049639970650566
2025-03-26 20:01:09.354,-0.7917173972381257
2025-03-26 20:01:09.354,-1.5090333854210216
2025-03-26 20:01:09.363,-0.8518840708700762
2025-03-26 20:01:09.363,0.5599799497852775
2025-03-26 20:01:09.364,1.6488520694637543
2025-03-26 20:01:09.364,1.4349144281498345
2025-03-26 20:01:09.364,-0.20249907125585395
2025-03-26 20:01:09.373,-1.944195221822897
2025-03-26 20:01:09.373,-1.9880366729258114
2025-03-26 20:01:09.373,-0.11223520387050583
2025-03-26 20:01:09.373,1.794039261905101
2025-03-26 20:01:09.373,1.8284843940583846
2025-03-26 20:01:09.383,0.2629939676443544
2025-03-26 20:01:09.383,-1.0216704258568468
2025-03-26 20:01:09.383,-0.9565052400632802
2025-03-26 20:01:09.383,-0.24655937916473375
2025-03-26 20:01:09.383,0.07357085501014475
2025-03-26 20:01:09.391,0.030934158181592883
2025-03-26 20:01:09.392,0.19620760684799554
2025-03-26 20:01:09.392,0.5215113873596435
2025-03-26 20:01:09.392,0.4176414272680702
2025-03-26 20:01:09.401,-0.2522188885964061
2025-03-26 20:01:09.401,-0.8122885885907553
2025-03-26 20:01:09.401,-0.5142949342784849
2025-03-26 20:01:09.401,0.5245511298802334
2025-03-26 20:01:09.402,1.2485922554228075
2025-03-26 20:01:09.410,0.6726961131654037
2025-03-26 20:01:09.410,-0.9208502959266843
2025-03-26 20:01:09.410,-1.950869421371967
2025-03-26 20:01:09.410,-1.0802266672329321
2025-03-26 20:01:09.410,1.1161601753946078
2025-03-26 20:01:09.420,2.474272134270386
2025-03-26 20:01:09.420,1.5654415744412706
2025-03-26 20:01:09.420,-0.7047063705593742
2025-03-26 20:01:09.420,-2.2302391324537516
2025-03-26 20:01:09.420,-1.9623087587524501
2025-03-26 20:01:09.430,-0.49502095697242826
2025-03-26 20:01:09.430,1.0677051681879866
2025-03-26 20:01:09.430,2.008339984775925
2025-03-26 20:01:09.430,1.979059662482599
2025-03-26 20:01:09.440,0.8927749911314709
2025-03-26 20:01:09.440,-0.9286380129711315
2025-03-26 20:01:09.440,-2.7025255926563094
2025-03-26 20:01:09.440,-3.3400554152978374
2025-03-26 20:01:09.440,-1.8421366570466546
2025-03-26 20:01:09.449,1.765217651379048
2025-03-26 20:01:09.450,5.404412583763129
2025-03-26 20:01:09.450,5.605294862659432
2025-03-26 20:01:09.450,0.7248487146136549
2025-03-26 20:01:09.450,-6.075151211998615
2025-03-26 20:01:09.458,-8.538554689715749
2025-03-26 20:01:09.458,-3.5052599607129578
2025-03-26 20:01:09.458,4.985723375854771
2025-03-26 20:01:09.458,9.143449689658889
2025-03-26 20:01:09.459,5.25133783654431
2025-03-26 20:01:09.468,-2.7114410035623164
2025-03-26 20:01:09.468,-7.428079403592759
2025-03-26 20:01:09.468,-5.438042650004965
2025-03-26 20:01:09.468,0.3783098132886101
2025-03-26 20:01:09.478,4.58685366904281
2025-03-26 20:01:09.478,4.343572785168824
2025-03-26 20:01:09.478,0.9974433082080865
2025-03-26 20:01:09.478,-2.0792714059958053
2025-03-26 20:01:09.478,-2.593766967749269
2025-03-26 20:01:09.488,-0.9233548136628349
2025-03-26 20:01:09.488,0.7211118882144727
2025-03-26 20:01:09.488,0.7627746047780354
2025-03-26 20:01:09.488,-0.14836880437855324
2025-03-26 20:01:09.488,-0.32263252284117194
2025-03-26 20:01:09.497,0.5468265786161849
2025-03-26 20:01:09.497,1.0725794974807499
2025-03-26 20:01:09.498,0.32228463721602596
2025-03-26 20:01:09.498,-0.8271803752951525
2025-03-26 20:01:09.498,-1.0600729819535823
2025-03-26 20:01:09.506,-0.43596383198766286
2025-03-26 20:01:09.506,0.09089674339193526
2025-03-26 20:01:09.506,0.3098750630769195
2025-03-26 20:01:09.506,0.6978705590090775
2025-03-26 20:01:09.506,1.0186140320339336
2025-03-26 20:01:09.516,0.3667166735031977
2025-03-26 20:01:09.516,-1.1336645327374393
2025-03-26 20:01:09.516,-1.8513077708120227
2025-03-26 20:01:09.516,-0.5802130641892166
2025-03-26 20:01:09.525,1.6443221063099533
2025-03-26 20:01:09.525,2.431875991196891
2025-03-26 20:01:09.525,0.7168115323418298
2025-03-26 20:01:09.525,-1.9514236571398231
2025-03-26 20:01:09.525,-2.995203510975644
2025-03-26 20:01:09.534,-1.3682951793341607
2025-03-26 20:01:09.534,1.6171035510888627
2025-03-26 20:01:09.534,3.519979039927319
2025-03-26 20:01:09.534,2.5867184909006484
2025-03-26 20:01:09.534,-0.8193056109897872
2025-03-26 20:01:09.545,-3.926106723735493
2025-03-26 20:01:09.545,-3.565509216197536
2025-03-26 20:01:09.545,0.37850876069347283
2025-03-26 20:01:09.545,4.061323424408912
2025-03-26 20:01:09.545,3.531140294343076
2025-03-26 20:01:09.554,-0.6223429330437139
2025-03-26 20:01:09.554,-3.7662711168811382
2025-03-26 20:01:09.554,-2.6261548174171545
2025-03-26 20:01:09.554,1.0766124223063578
2025-03-26 20:01:09.564,3.10080538742971
2025-03-26 20:01:09.564,1.6853619348828552
2025-03-26 20:01:09.564,-1.1315408489578471
2025-03-26 20:01:09.564,-2.4909730120346816
2025-03-26 20:01:09.564,-1.5263116130056809
2025-03-26 20:01:09.573,0.6547260172510009
2025-03-26 20:01:09.573,2.349564541445959
2025-03-26 20:01:09.573,2.2336775726849583
2025-03-26 20:01:09.573,0.1082164055622907
2025-03-26 20:01:09.573,-2.5060113553591337
2025-03-26 20:01:09.583,-3.1563609246761954
2025-03-26 20:01:09.583,-0.8352162962464702
2025-03-26 20:01:09.583,2.4933284576363506
2025-03-26 20:01:09.583,3.5652803809196563
2025-03-26 20:01:09.584,1.2586523741558808
2025-03-26 20:01:09.592,-2.148900432904057
2025-03-26 20:01:09.592,-3.361002099216234
2025-03-26 20:01:09.592,-1.3428721108267643
2025-03-26 20:01:09.592,1.82624808434976
2025-03-26 20:01:09.602,3.0398670674141055
2025-03-26 20:01:09.602,1.1339945673231935
2025-03-26 20:01:09.602,-1.9295477262993195
2025-03-26 20:01:09.602,-2.939223582084867
2025-03-26 20:01:09.602,-0.7493297650152104
2025-03-26 20:01:09.602,2.398953459050563
2025-03-26 20:01:09.612,3.127197251660868
2025-03-26 20:01:09.612,0.4756950452141768
2025-03-26 20:01:09.612,-2.9644195245311353
2025-03-26 20:01:09.612,-3.5969630518510693
2025-03-26 20:01:09.621,-0.5201210573117958
2025-03-26 20:01:09.621,3.395742820623571
2025-03-26 20:01:09.621,4.226700600905618
2025-03-26 20:01:09.622,0.8863286314702343
2025-03-26 20:01:09.622,-3.60168959082673
2025-03-26 20:01:09.630,-4.8374391218674155
2025-03-26 20:01:09.630,-1.3983645910588436
2025-03-26 20:01:09.630,3.508079813116099
2025-03-26 20:01:09.630,5.130500345541962
2025-03-26 20:01:09.640,1.9766357873210127
2025-03-26 20:01:09.640,-2.823305566681114
2025-03-26 20:01:09.640,-4.866917016916571
2025-03-26 20:01:09.640,-2.6549717921096576
2025-03-26 20:01:09.640,1.5182385758420238
2025-03-26 20:01:09.649,4.069534129621702
2025-03-26 20:01:09.649,3.1748060440458943
2025-03-26 20:01:09.649,-0.08286810853660609
2025-03-26 20:01:09.649,-2.899460951198928
2025-03-26 20:01:09.649,-3.1168667206345453
2025-03-26 20:01:09.658,-0.9277880707079709
2025-03-26 20:01:09.658,1.5203086856088706
2025-03-26 20:01:09.658,2.2754987493443943
2025-03-26 20:01:09.658,1.2738260309841054
2025-03-26 20:01:09.667,-0.12950602804884817
2025-03-26 20:01:09.667,-0.8732415256773801
2025-03-26 20:01:09.667,-0.9814503450299555
2025-03-26 20:01:09.668,-0.8811762296069953
2025-03-26 20:01:09.668,-0.5657431456703124
2025-03-26 20:01:09.677,0.2447392876998667
2025-03-26 20:01:09.678,1.2806071675542523
2025-03-26 20:01:09.678,1.5575399071062745
2025-03-26 20:01:09.678,0.4631256010130942
2025-03-26 20:01:09.678,-1.2026097062692154
2025-03-26 20:01:09.687,-1.875917133324637
2025-03-26 20:01:09.687,-0.9322691079838986
2025-03-26 20:01:09.687,0.7368054457346611
2025-03-26 20:01:09.688,1.7716707667688758
2025-03-26 20:01:09.688,1.4840464064052754
2025-03-26 20:01:09.696,0.10579985120407841
2025-03-26 20:01:09.696,-1.4797641829798351
2025-03-26 20:01:09.696,-2.174491776965548
2025-03-26 20:01:09.696,-1.3155933455219595
2025-03-26 20:01:09.696,0.7359947064650556
2025-03-26 20:01:09.706,2.614964176159148
2025-03-26 20:01:09.706,2.770164447775914
2025-03-26 20:01:09.706,0.6735871830752416
2025-03-26 20:01:09.706,-2.434283278124827
2025-03-26 20:01:09.715,-4.087644797964131
2025-03-26 20:01:09.715,-2.4791238786585015
2025-03-26 20:01:09.716,1.5879387868928498
2025-03-26 20:01:09.716,4.762935411075832
2025-03-26 20:01:09.716,3.9842452449324863
2025-03-26 20:01:09.726,-0.32502419075250205
2025-03-26 20:01:09.726,-4.342637626497711
2025-03-26 20:01:09.726,-4.529234602839032
2025-03-26 20:01:09.726,-1.0083128791233702
2025-03-26 20:01:09.726,2.868040570718373
2025-03-26 20:01:09.736,3.9306748224011363
2025-03-26 20:01:09.736,1.8819043934044166
2025-03-26 20:01:09.736,-1.0464872523709778
2025-03-26 20:01:09.736,-2.475517799157587
2025-03-26 20:01:09.736,-1.7783214207432885
2025-03-26 20:01:09.745,-0.12835709148919178
2025-03-26 20:01:09.746,0.8525973112531932
2025-03-26 20:01:09.746,0.6064361127393298
2025-03-26 20:01:09.746,0.044134446406916966
2025-03-26 20:01:09.746,0.2880892499131967
2025-03-26 20:01:09.754,1.04513947289658
2025-03-26 20:01:09.754,0.867107743573626
2025-03-26 20:01:09.754,-0.7265553483246899
2025-03-26 20:01:09.754,-2.180583617682153
2025-03-26 20:01:09.764,-1.6490312017740216
2025-03-26 20:01:09.764,0.6139972497968489
2025-03-26 20:01:09.764,2.3674090746331276
2025-03-26 20:01:09.764,1.8689853052036152
2025-03-26 20:01:09.764,-0.2963989061999678
2025-03-26 20:01:09.773,-2.0043707084215328
2025-03-26 20:01:09.773,-1.7859769546461763
2025-03-26 20:01:09.774,-0.027059340786073263
2025-03-26 20:01:09.774,1.6341724710649603
2025-03-26 20:01:09.774,1.7775986569949576
2025-03-26 20:01:09.783,0.3506137634669442
2025-03-26 20:01:09.783,-1.314399094301094
2025-03-26 20:01:09.783,-1.7558678139700277
2025-03-26 20:01:09.784,-0.7624086328860517
2025-03-26 20:01:09.784,0.658224412238807
2025-03-26 20:01:09.792,1.4944325132614307
2025-03-26 20:01:09.792,1.4223704127398316
2025-03-26 20:01:09.792,0.47283694091733497
2025-03-26 20:01:09.792,-1.1024010315178445
2025-03-26 20:01:09.802,-2.3311022094639524
2025-03-26 20:01:09.802,-1.7742728556223464
2025-03-26 20:01:09.802,0.7666250241853492
2025-03-26 20:01:09.802,3.1391209571249012
2025-03-26 20:01:09.802,2.688105167446312
2025-03-26 20:01:09.811,-0.46523254974773653
2025-03-26 20:01:09.811,-3.1152505904788117
2025-03-26 20:01:09.811,-2.6209790566970756
2025-03-26 20:01:09.811,0.07591928665634046
2025-03-26 20:01:09.812,1.9436898777012357
2025-03-26 20:01:09.821,1.5662537530651286
2025-03-26 20:01:09.821,0.21124119179295212
2025-03-26 20:01:09.821,-0.42510462282288336
2025-03-26 20:01:09.821,-0.24639933098518105
2025-03-26 20:01:09.821,-0.17146566838524377
2025-03-26 20:01:09.830,-0.45010501106518314
2025-03-26 20:01:09.830,-0.461661172321858
2025-03-26 20:01:09.830,0.05030455705204534
2025-03-26 20:01:09.830,0.46867307764253036
2025-03-26 20:01:09.840,0.2815261178691611
2025-03-26 20:01:09.840,-0.11921714559470697
2025-03-26 20:01:09.840,-0.08831861366563636
2025-03-26 20:01:09.840,0.27046317770312905
2025-03-26 20:01:09.840,0.32170801466001003
2025-03-26 20:01:09.850,-0.09479754843634197
2025-03-26 20:01:09.850,-0.4834531525049405
2025-03-26 20:01:09.850,-0.5030735203603739
2025-03-26 20:01:09.850,-0.3078249336089619
2025-03-26 20:01:09.850,0.047363318871903884
2025-03-26 20:01:09.859,0.7367947913174274
2025-03-26 20:01:09.860,1.3142270876133388
2025-03-26 20:01:09.860,0.6837233459025452
2025-03-26 20:01:09.860,-1.2159814299112666
2025-03-26 20:01:09.860,-2.4572241717234657
2025-03-26 20:01:09.869,-1.1433878603828787
2025-03-26 20:01:09.869,1.7960283772667014
2025-03-26 20:01:09.869,3.147986672829983
2025-03-26 20:01:09.870,1.196945478396612
2025-03-26 20:01:09.870,-2.0213657718237856
2025-03-26 20:01:09.878,-3.0618975893219167
2025-03-26 20:01:09.878,-1.0685122091687365
2025-03-26 20:01:09.878,1.5605684784547162
2025-03-26 20:01:09.878,2.2461716593439465
2025-03-26 20:01:09.887,0.8985481249193462
2025-03-26 20:01:09.887,-0.6439166330284153
2025-03-26 20:01:09.887,-0.9939263566680734
2025-03-26 20:01:09.888,-0.4850043543719584
2025-03-26 20:01:09.888,-0.24029784832185744
2025-03-26 20:01:09.896,-0.45524712868413997
2025-03-26 20:01:09.896,-0.19672291486200283
2025-03-26 20:01:09.896,0.9179971348748449
2025-03-26 20:01:09.896,1.6629650285732398
2025-03-26 20:01:09.896,0.7048975595584793
2025-03-26 20:01:09.906,-1.2692715286973195
2025-03-26 20:01:09.906,-2.0529688068394876
2025-03-26 20:01:09.906,-0.679078734868513
2025-03-26 20:01:09.906,1.2451748036648513
2025-03-26 20:01:09.906,1.5106976517094424
2025-03-26 20:01:09.916,0.05435933169737335
2025-03-26 20:01:09.916,-1.1024335762501567
2025-03-26 20:01:09.916,-0.5452378546477711
2025-03-26 20:01:09.916,0.8428938283663818
2025-03-26 20:01:09.925,1.2044585128539107
2025-03-26 20:01:09.925,-0.002921217043563934
2025-03-26 20:01:09.925,-1.5136093202252972
2025-03-26 20:01:09.925,-1.676160412677599
2025-03-26 20:01:09.925,-0.12909450033251213
2025-03-26 20:01:09.934,1.713063937896171
2025-03-26 20:01:09.934,1.9409380572808597
2025-03-26 20:01:09.934,0.2593064746406675
2025-03-26 20:01:09.934,-1.442235086365147
2025-03-26 20:01:09.943,-1.2011067060931726
2025-03-26 20:01:09.944,0.5000214318905727
2025-03-26 20:01:09.944,1.1608400165236723
2025-03-26 20:01:09.944,-0.4790732549948452
2025-03-26 20:01:09.944,-2.414829183040641
2025-03-26 20:01:09.952,-1.5951008262437931
2025-03-26 20:01:09.952,1.9981492057527583
2025-03-26 20:01:09.952,4.64703800214386
2025-03-26 20:01:09.952,2.9124608071797766
2025-03-26 20:01:09.962,-2.1972194191520193
2025-03-26 20:01:09.962,-5.857371556515124
2025-03-26 20:01:09.962,-4.344877908564325
2025-03-26 20:01:09.962,1.0462059870991525
2025-03-26 20:01:09.962,5.292476634297761
2025-03-26 20:01:09.970,4.7295861294144315
2025-03-26 20:01:09.970,0.48124634545569034
2025-03-26 20:01:09.970,-3.2199738884527616
2025-03-26 20:01:09.970,-3.529729135154554
2025-03-26 20:01:09.980,-1.2952144092358004
2025-03-26 20:01:09.980,0.7587377832545715
2025-03-26 20:01:09.980,1.2074929034297683
2025-03-26 20:01:09.980,0.8225230466859191
2025-03-26 20:01:09.980,0.7973878850566196
2025-03-26 20:01:09.989,1.0393314363424824
2025-03-26 20:01:09.990,0.6056390688048326
2025-03-26 20:01:09.990,-0.726982195000421
2025-03-26 20:01:09.990,-1.984119371441215
2025-03-26 20:01:09.990,-2.0151087156813823
2025-03-26 20:01:09.998,-0.625471829666859
2025-03-26 20:01:09.998,1.280313810715344
2025-03-26 20:01:09.998,2.441556110903565
2025-03-26 20:01:09.998,2.125186068367815
2025-03-26 20:01:09.998,0.5086301864861554
2025-03-26 20:01:10.008,-1.5215469007502729
2025-03-26 20:01:10.008,-2.8076016072025953
2025-03-26 20:01:10.008,-2.4248802428995466
2025-03-26 20:01:10.008,-0.3050560020818828
2025-03-26 20:01:10.018,2.3539881073412143
2025-03-26 20:01:10.018,3.582621735609218
2025-03-26 20:01:10.018,2.139488885952571
2025-03-26 20:01:10.018,-1.1090619368733337
2025-03-26 20:01:10.018,-3.5365769483342127
2025-03-26 20:01:10.028,-3.0447522614001343
2025-03-26 20:01:10.028,-0.17793450424912668
2025-03-26 20:01:10.028,2.3765721552543337
2025-03-26 20:01:10.028,2.548145507078528
2025-03-26 20:01:10.028,0.8323511465125686
2025-03-26 20:01:10.038,-0.7006347918355728
2025-03-26 20:01:10.038,-0.9338814822729509
2025-03-26 20:01:10.038,-0.6139399369458859
2025-03-26 20:01:10.038,-0.7359221637092219
2025-03-26 20:01:10.038,-0.9017557430231733
2025-03-26 20:01:10.048,-0.07559986816315806
2025-03-26 20:01:10.048,1.450268051162668
2025-03-26 20:01:10.048,1.970310387279663
2025-03-26 20:01:10.048,0.5456859931096303
2025-03-26 20:01:10.048,-1.4980848919900165
2025-03-26 20:01:10.056,-1.9246563857805772
2025-03-26 20:01:10.056,-0.2772953283358509
2025-03-26 20:01:10.056,1.432466724187372
2025-03-26 20:01:10.056,1.1004493249380367
2025-03-26 20:01:10.068,-0.8067866192583798
2025-03-26 20:01:10.068,-1.728498717401288
2025-03-26 20:01:10.068,-0.21420185199926683
2025-03-26 20:01:10.068,2.134167154804234
2025-03-26 20:01:10.069,2.450745863402725
2025-03-26 20:01:10.076,-0.01750710039492337
2025-03-26 20:01:10.077,-2.899730467502725
2025-03-26 20:01:10.077,-3.17785084635903
2025-03-26 20:01:10.077,-0.41315145384863783
2025-03-26 20:01:10.077,2.734715965902459
2025-03-26 20:01:10.084,3.222565589586338
2025-03-26 20:01:10.084,0.7358556104545809
2025-03-26 20:01:10.084,-2.0262079584387958
2025-03-26 20:01:10.084,-2.2674132460253165
2025-03-26 20:01:10.084,-0.17281050407035703
2025-03-26 20:01:10.093,1.4288713774820618
2025-03-26 20:01:10.094,0.6485263476585204
2025-03-26 20:01:10.094,-1.1058470996430594
2025-03-26 20:01:10.094,-1.1894203460803559
2025-03-26 20:01:10.103,0.647287052019671
2025-03-26 20:01:10.103,2.064494946202922
2025-03-26 20:01:10.103,1.3225108272804622
2025-03-26 20:01:10.103,-0.7142877457282621
2025-03-26 20:01:10.103,-1.9753665408809162
2025-03-26 20:01:10.112,-1.5405791276627971
2025-03-26 20:01:10.112,-0.16652669684405857
2025-03-26 20:01:10.112,0.8957499036288536
2025-03-26 20:01:10.112,1.0980940631256453
2025-03-26 20:01:10.121,0.7970265861731936
2025-03-26 20:01:10.121,0.562233938416561
2025-03-26 20:01:10.122,0.3709511673467458
2025-03-26 20:01:10.122,-0.3396872012149469
2025-03-26 20:01:10.122,-1.6012646254725185
2025-03-26 20:01:10.130,-2.2079719865742016
2025-03-26 20:01:10.130,-0.8613608845062615
2025-03-26 20:01:10.130,1.8103701105666323
2025-03-26 20:01:10.130,3.255142900702712
2025-03-26 20:01:10.130,1.7392613808439858
2025-03-26 20:01:10.140,-1.379850524828243
2025-03-26 20:01:10.140,-2.9653646849222106
2025-03-26 20:01:10.140,-1.6203361707474973
2025-03-26 20:01:10.140,0.8579697361141753
2025-03-26 20:01:10.149,1.7782955099093047
2025-03-26 20:01:10.149,0.6455893566330678
2025-03-26 20:01:10.150,-0.6805532956245715
2025-03-26 20:01:10.150,-0.5713762042741617
2025-03-26 20:01:10.150,0.5111736977566649
2025-03-26 20:01:10.158,0.9287833494153231
2025-03-26 20:01:10.158,-0.0031230959370958794
2025-03-26 20:01:10.158,-1.2621877607379979
2025-03-26 20:01:10.158,-1.356458858998033
2025-03-26 20:01:10.158,-0.0391534928922736
2025-03-26 20:01:10.168,1.3858618183286826
2025-03-26 20:01:10.168,1.5175796325507158
2025-03-26 20:01:10.168,0.35659406071982347
2025-03-26 20:01:10.168,-0.9111489827010855
2025-03-26 20:01:10.178,-1.3104863765305024
2025-03-26 20:01:10.178,-0.7756855508272646
2025-03-26 20:01:10.178,0.24842109237360893
2025-03-26 20:01:10.178,1.1563772862674313
2025-03-26 20:01:10.178,1.1900247081971846
2025-03-26 20:01:10.188,-0.0012229436160995089
2025-03-26 20:01:10.188,-1.4678032536310408
2025-03-26 20:01:10.188,-1.4798269648338038
2025-03-26 20:01:10.188,0.3432900739300967
2025-03-26 20:01:10.188,2.0744308981255033
2025-03-26 20:01:10.196,1.605237722383087
2025-03-26 20:01:10.196,-0.6718566878699748
2025-03-26 20:01:10.196,-2.3153667051783886
2025-03-26 20:01:10.196,-1.740996258584603
2025-03-26 20:01:10.205,0.28017565202155664
2025-03-26 20:01:10.205,1.8882246023680969
2025-03-26 20:01:10.206,1.9615829600919068
2025-03-26 20:01:10.206,0.6473555399708225
2025-03-26 20:01:10.206,-1.0671271161475087
2025-03-26 20:01:10.214,-1.964621054049509
2025-03-26 20:01:10.214,-1.338281182081181
2025-03-26 20:01:10.214,0.3278646027802177
2025-03-26 20:01:10.214,1.5660763915521452
2025-03-26 20:01:10.224,1.28843586680322
2025-03-26 20:01:10.224,-0.04076374495550954
2025-03-26 20:01:10.224,-0.9736538221506073
2025-03-26 20:01:10.224,-0.7515552684279557
2025-03-26 20:01:10.224,0.07833500249344286
2025-03-26 20:01:10.233,0.623862885464861
2025-03-26 20:01:10.233,0.5549734115458478
2025-03-26 20:01:10.233,-0.003923428974356109
2025-03-26 20:01:10.234,-0.7543339606404136
2025-03-26 20:01:10.234,-1.1035661386319637
2025-03-26 20:01:10.243,-0.41632957194491443
2025-03-26 20:01:10.243,1.0532137271608006
2025-03-26 20:01:10.243,1.903243308965016
2025-03-26 20:01:10.243,1.0049212193157318
2025-03-26 20:01:10.243,-0.9472922326077946
2025-03-26 20:01:10.252,-2.0583877831790063
2025-03-26 20:01:10.252,-1.4149151602409438
2025-03-26 20:01:10.252,0.098974066638787
2025-03-26 20:01:10.252,1.1823707869437625
2025-03-26 20:01:10.262,1.436602149522643
2025-03-26 20:01:10.262,1.0933895949397745
2025-03-26 20:01:10.262,0.2826301456261634
2025-03-26 20:01:10.262,-0.8712953331110833
2025-03-26 20:01:10.262,-1.8008840187221296
2025-03-26 20:01:10.270,-1.675848752981169
2025-03-26 20:01:10.270,-0.2030656110575684
2025-03-26 20:01:10.270,1.760484935420995
2025-03-26 20:01:10.270,2.5682680545674033
2025-03-26 20:01:10.270,1.1861619585132657
2025-03-26 20:01:10.280,-1.4721734032300537
2025-03-26 20:01:10.280,-2.9270477170474463
2025-03-26 20:01:10.280,-1.4905997999695262
2025-03-26 20:01:10.280,1.636976619056448
2025-03-26 20:01:10.289,3.1991043780359165
2025-03-26 20:01:10.290,1.2402762493761692
2025-03-26 20:01:10.290,-2.555861122315225
2025-03-26 20:01:10.290,-4.212394989272287
2025-03-26 20:01:10.290,-1.35752784895504
2025-03-26 20:01:10.299,3.9426056459780057
2025-03-26 20:01:10.300,6.400678723883795
2025-03-26 20:01:10.300,2.533895559645898
2025-03-26 20:01:10.300,-4.950740789353494
2025-03-26 20:01:10.300,-8.779037734836967
2025-03-26 20:01:10.313,-4.403034216421711
2025-03-26 20:01:10.313,4.592108168648614
2025-03-26 20:01:10.313,9.612345038720491
2025-03-26 20:01:10.313,5.874910942723095
2025-03-26 20:01:10.313,-2.743501181315689
2025-03-26 20:01:10.318,-8.06230872673307
2025-03-26 20:01:10.318,-5.957323772582085
2025-03-26 20:01:10.318,0.3932636452038882
2025-03-26 20:01:10.318,4.864715446438824
2025-03-26 20:01:10.327,4.5107438654159155
2025-03-26 20:01:10.328,1.1673156785640275
2025-03-26 20:01:10.328,-1.6599308703967581
2025-03-26 20:01:10.328,-2.2840642251199883
2025-03-26 20:01:10.328,-1.4058159544958038
2025-03-26 20:01:10.336,-0.34565038065310344
2025-03-26 20:01:10.336,0.3763366143686136
2025-03-26 20:01:10.336,0.8244167872742701
2025-03-26 20:01:10.336,0.930546967325877
2025-03-26 20:01:10.336,0.5451730039029473
2025-03-26 20:01:10.347,-0.1342255397074336
2025-03-26 20:01:10.347,-0.6308963075547029
2025-03-26 20:01:10.347,-0.6346995181232179
2025-03-26 20:01:10.347,-0.24164315415834214
2025-03-26 20:01:10.356,0.17961462565965725
2025-03-26 20:01:10.356,0.3263879494205692
2025-03-26 20:01:10.356,0.21217523747913947
2025-03-26 20:01:10.356,0.06848228544334901
2025-03-26 20:01:10.356,0.03265833679873005
2025-03-26 20:01:10.366,0.02158510917868499
2025-03-26 20:01:10.366,-0.09682912520820468
2025-03-26 20:01:10.366,-0.2667894965668368
2025-03-26 20:01:10.366,-0.23132385878508643
2025-03-26 20:01:10.366,0.13406160780629678
2025-03-26 20:01:10.374,0.4928767853579513
2025-03-26 20:01:10.374,0.32232512667891133
2025-03-26 20:01:10.374,-0.3703841756925339
2025-03-26 20:01:10.374,-0.8714947146249322
2025-03-26 20:01:10.374,-0.5090501017724791
2025-03-26 20:01:10.384,0.5275041065690448
2025-03-26 20:01:10.384,1.2763445094521302
2025-03-26 20:01:10.384,0.9599134855209206
2025-03-26 20:01:10.384,-0.19601624551018468
2025-03-26 20:01:10.384,-1.2001596961723842
2025-03-26 20:01:10.394,-1.3031261594308323
2025-03-26 20:01:10.394,-0.5830710145486088
2025-03-26 20:01:10.394,0.37757976094020296
2025-03-26 20:01:10.394,1.0502209138120202
2025-03-26 20:01:10.404,1.1734647744269968
2025-03-26 20:01:10.404,0.7353596639701834
2025-03-26 20:01:10.404,-0.09480638916803884
2025-03-26 20:01:10.404,-1.0283870287834314
2025-03-26 20:01:10.404,-1.6024651303282758
2025-03-26 20:01:10.413,-1.2027423416332663
2025-03-26 20:01:10.414,0.38454755559731035
2025-03-26 20:01:10.414,2.194978360824184
2025-03-26 20:01:10.414,2.3687537219111587
2025-03-26 20:01:10.414,0.060467774989646644
2025-03-26 20:01:10.422,-2.8617727187860043
2025-03-26 20:01:10.422,-3.110914429827148
2025-03-26 20:01:10.422,0.15884829219792657
2025-03-26 20:01:10.422,3.60500237253511
2025-03-26 20:01:10.422,3.2268832239495597
2025-03-26 20:01:10.432,-0.6867249963806703
2025-03-26 20:01:10.432,-3.766888128155216
2025-03-26 20:01:10.432,-2.849976567630457
2025-03-26 20:01:10.432,0.6019887601801681
2025-03-26 20:01:10.443,2.923861975190866
2025-03-26 20:01:10.443,2.4863070391166553
2025-03-26 20:01:10.443,0.4212730950094892
2025-03-26 20:01:10.443,-1.5608961059243396
2025-03-26 20:01:10.443,-2.4330359820395464
2025-03-26 20:01:10.451,-1.6345892113011284
2025-03-26 20:01:10.451,0.5403279989082823
2025-03-26 20:01:10.451,2.3360834479034853
2025-03-26 20:01:10.451,1.935947865018045
2025-03-26 20:01:10.451,-0.18153367258072226
2025-03-26 20:01:10.460,-1.5825004512981797
2025-03-26 20:01:10.460,-0.967677332067348
2025-03-26 20:01:10.460,0.2923371460795115
2025-03-26 20:01:10.460,0.3252935544338405
2025-03-26 20:01:10.470,-0.6102220857276459
2025-03-26 20:01:10.470,-0.7254830230523196
2025-03-26 20:01:10.470,0.5553471930578949
2025-03-26 20:01:10.470,1.7092133449497704
2025-03-26 20:01:10.470,1.2214507097761529
2025-03-26 20:01:10.483,-0.43173656231055413
2025-03-26 20:01:10.483,-1.5817151224264983
2025-03-26 20:01:10.483,-1.4450366539655437
2025-03-26 20:01:10.483,-0.5471834928845726
2025-03-26 20:01:10.483,0.44938950221134816
2025-03-26 20:01:10.488,1.2921496614072514
2025-03-26 20:01:10.488,1.5901728460030822
2025-03-26 20:01:10.488,0.7780336689929156
2025-03-26 20:01:10.488,-0.8869726228023839
2025-03-26 20:01:10.498,-1.960349744153593
2025-03-26 20:01:10.498,-1.2483991161548744
2025-03-26 20:01:10.498,0.555354012307147
2025-03-26 20:01:10.498,1.4912475688322713
2025-03-26 20:01:10.498,0.7278470723239567
2025-03-26 20:01:10.508,-0.48238732788374294
2025-03-26 20:01:10.508,-0.6215658682994986
2025-03-26 20:01:10.508,0.13528218459764962
2025-03-26 20:01:10.508,0.5019049353408488
2025-03-26 20:01:10.508,0.036695990418511085
2025-03-26 20:01:10.517,-0.4661752481390676
2025-03-26 20:01:10.518,-0.3893669034840247
2025-03-26 20:01:10.518,-0.08063886145286663
2025-03-26 20:01:10.518,0.03348092107377571
2025-03-26 20:01:10.518,0.20267430084377241
2025-03-26 20:01:10.526,0.6116792608273176
2025-03-26 20:01:10.526,0.6395058711453054
2025-03-26 20:01:10.526,-0.21924132446558509
2025-03-26 20:01:10.526,-1.1432857506916088
2025-03-26 20:01:10.526,-0.8102389830181391
2025-03-26 20:01:10.536,0.5682783696119225
2025-03-26 20:01:10.536,1.1596732993502692
2025-03-26 20:01:10.536,0.00933917541946351
2025-03-26 20:01:10.536,-1.2818955016673328
2025-03-26 20:01:10.546,-0.5432647708513818
2025-03-26 20:01:10.546,1.6636759448139224
2025-03-26 20:01:10.546,2.3094721423219102
2025-03-26 20:01:10.546,-0.0906754681535926
2025-03-26 20:01:10.546,-3.1798336017412523
2025-03-26 20:01:10.555,-3.4638079063234364
2025-03-26 20:01:10.556,-0.35293356709551504
2025-03-26 20:01:10.556,3.4085513690381717
2025-03-26 20:01:10.556,4.589543913790309
2025-03-26 20:01:10.556,2.07574963565732
2025-03-26 20:01:10.566,-2.4170160793336826
2025-03-26 20:01:10.566,-5.349091759059764
2025-03-26 20:01:10.566,-3.9318124061922726
2025-03-26 20:01:10.566,1.0700521727087444
2025-03-26 20:01:10.566,5.329158371227202
2025-03-26 20:01:10.574,4.81001134434956
2025-03-26 20:01:10.574,-0.062313918726937534
2025-03-26 20:01:10.574,-4.6073874713960254
2025-03-26 20:01:10.574,-4.556430982959747
2025-03-26 20:01:10.584,-0.28966141754348723
2025-03-26 20:01:10.584,3.72963051490225
2025-03-26 20:01:10.584,3.593742236614499
2025-03-26 20:01:10.584,-0.11394506795977871
2025-03-26 20:01:10.584,-3.112852826897797
2025-03-26 20:01:10.592,-2.2120528509646435
2025-03-26 20:01:10.592,1.118281297495261
2025-03-26 20:01:10.592,2.6507764017025965
2025-03-26 20:01:10.592,0.6214754863675962
2025-03-26 20:01:10.601,-2.2028792932334578
2025-03-26 20:01:10.602,-2.15367312714439
2025-03-26 20:01:10.602,0.7442296009943938
2025-03-26 20:01:10.602,2.9324188247670193
2025-03-26 20:01:10.602,1.7454335923806061
2025-03-26 20:01:10.611,-1.5013426886848786
2025-03-26 20:01:10.612,-3.269519813753144
2025-03-26 20:01:10.612,-1.8087604496993486
2025-03-26 20:01:10.612,1.382667270112965
2025-03-26 20:01:10.612,3.5097590582845863
2025-03-26 20:01:10.621,2.8310661304155618
2025-03-26 20:01:10.621,-0.4328424392002434
2025-03-26 20:01:10.622,-4.022952767673624
2025-03-26 20:01:10.622,-4.618026879155573
2025-03-26 20:01:10.622,-0.7601341628062622
2025-03-26 20:01:10.630,4.584238350615691
2025-03-26 20:01:10.630,6.031076340251614
2025-03-26 20:01:10.630,1.5904953010761822
2025-03-26 20:01:10.630,-4.491269213035731
2025-03-26 20:01:10.639,-6.065233196399017
2025-03-26 20:01:10.640,-1.827083507719099
2025-03-26 20:01:10.640,3.5512510342486325
2025-03-26 20:01:10.640,4.8711953622214565
2025-03-26 20:01:10.640,1.6221930767385988
2025-03-26 20:01:10.648,-2.457837696383704
2025-03-26 20:01:10.648,-3.6576527019453544
2025-03-26 20:01:10.648,-1.3922492660260224
2025-03-26 20:01:10.648,1.9812962141718604
2025-03-26 20:01:10.648,3.4052154148761913
2025-03-26 20:01:10.658,1.5595233896503158
2025-03-26 20:01:10.658,-1.9738321769261318
2025-03-26 20:01:10.658,-3.8825435340073406
2025-03-26 20:01:10.658,-2.1638512338478253
2025-03-26 20:01:10.667,1.6761719866668536
2025-03-26 20:01:10.667,3.9448663436776465
2025-03-26 20:01:10.668,2.6168891839203847
2025-03-26 20:01:10.668,-0.6395289697384883
2025-03-26 20:01:10.668,-2.6551170321345174
2025-03-26 20:01:10.676,-2.2489568063704577
2025-03-26 20:01:10.676,-0.7625899502892788
2025-03-26 20:01:10.676,0.2860445449415005
2025-03-26 20:01:10.676,0.851262295888092
2025-03-26 20:01:10.686,1.5130772627957587
2025-03-26 20:01:10.686,1.9724451021398421
2025-03-26 20:01:10.686,1.2074456537773839
2025-03-26 20:01:10.686,-0.9496901338274364
2025-03-26 20:01:10.686,-2.9872209245514454
2025-03-26 20:01:10.695,-2.93528154564878
2025-03-26 20:01:10.696,-0.4854991567998001
2025-03-26 20:01:10.696,2.374954070762633
2025-03-26 20:01:10.696,3.191724158408891
2025-03-26 20:01:10.696,1.5289125407741795
2025-03-26 20:01:10.705,-0.7312284311571412
2025-03-26 20:01:10.706,-1.6521079688687483
2025-03-26 20:01:10.706,-1.216009551991426
2025-03-26 20:01:10.706,-0.6754436053216868
2025-03-26 20:01:10.706,-0.6046270543787674
2025-03-26 20:01:10.714,-0.3798774063854424
2025-03-26 20:01:10.714,0.6251479301981345
2025-03-26 20:01:10.714,1.9694004453648348
2025-03-26 20:01:10.714,2.372172059480076
2025-03-26 20:01:10.725,0.9274629912032654
2025-03-26 20:01:10.725,-1.7278976401867152
2025-03-26 20:01:10.725,-3.512981910483506
2025-03-26 20:01:10.726,-2.657612333015164
2025-03-26 20:01:10.726,0.39118967905599716
2025-03-26 20:01:10.726,3.1066175990518277
2025-03-26 20:01:10.737,3.2255422128348012
2025-03-26 20:01:10.737,0.8876785346703477
2025-03-26 20:01:10.737,-1.6956659898767235
2025-03-26 20:01:10.737,-2.5046111220312195
2025-03-26 20:01:10.743,-1.3584873332907696
2025-03-26 20:01:10.744,0.4389608169597724
2025-03-26 20:01:10.744,1.467682696162581
2025-03-26 20:01:10.744,1.1456900284721439
2025-03-26 20:01:10.744,-0.04969672395447132
2025-03-26 20:01:10.752,-0.9827325964647873
2025-03-26 20:01:10.752,-0.7989921554975793
2025-03-26 20:01:10.752,0.2792484761387468
2025-03-26 20:01:10.752,1.1616761049815445
2025-03-26 20:01:10.762,0.9118869453846793
2025-03-26 20:01:10.762,-0.40749811520684315
2025-03-26 20:01:10.762,-1.6995632175991715
2025-03-26 20:01:10.762,-1.6477362177207844
2025-03-26 20:01:10.762,0.04850587587020609
2025-03-26 20:01:10.771,2.067007090581515
2025-03-26 20:01:10.771,2.450187995364382
2025-03-26 20:01:10.771,0.598285613651932
2025-03-26 20:01:10.772,-1.8533006465045259
2025-03-26 20:01:10.772,-2.575619441471068
2025-03-26 20:01:10.781,-0.9841955412188627
2025-03-26 20:01:10.781,1.2392338839088506
2025-03-26 20:01:10.782,2.0258306769727805
2025-03-26 20:01:10.782,0.8624702315398233
2025-03-26 20:01:10.782,-1.0129484400254327
2025-03-26 20:01:10.790,-1.7364119018812934
2025-03-26 20:01:10.790,-0.35606296975859647
2025-03-26 20:01:10.790,1.926780401215002
2025-03-26 20:01:10.790,2.357391183762891
2025-03-26 20:01:10.799,-0.34605607613838424
2025-03-26 20:01:10.799,-3.6777574622892315
2025-03-26 20:01:10.800,-3.5419880518151947
2025-03-26 20:01:10.800,0.7586935936683122
2025-03-26 20:01:10.800,5.0102946670777095
2025-03-26 20:01:10.808,4.551496776556093
2025-03-26 20:01:10.808,-0.4021458694538843
2025-03-26 20:01:10.808,-4.932496320656317
2025-03-26 20:01:10.808,-4.75695085576448
2025-03-26 20:01:10.818,-0.49767126675646767
2025-03-26 20:01:10.818,3.5245044587400765
2025-03-26 20:01:10.818,3.9428794891802212
2025-03-26 20:01:10.818,1.2158128466686473
2025-03-26 20:01:10.818,-1.6875447354991069
2025-03-26 20:01:10.831,-2.518900370467326
2025-03-26 20:01:10.831,-1.3490528613104036
2025-03-26 20:01:10.831,0.3372038993083146
2025-03-26 20:01:10.831,1.2334706241342182
2025-03-26 20:01:10.831,0.976065807528474
2025-03-26 20:01:10.838,0.1235180814906597
2025-03-26 20:01:10.838,-0.4019517916487488
2025-03-26 20:01:10.838,-0.26884757820396143
2025-03-26 20:01:10.838,-0.0701405559820909
2025-03-26 20:01:10.838,-0.3060828656532068
2025-03-26 20:01:10.848,-0.4440146720642492
2025-03-26 20:01:10.848,0.2303556899736057
2025-03-26 20:01:10.848,1.139197838027398
2025-03-26 20:01:10.848,0.8655163685706215
2025-03-26 20:01:10.848,-0.7585104769637463
2025-03-26 20:01:10.856,-1.9728300948599908
2025-03-26 20:01:10.856,-1.118476201535702
2025-03-26 20:01:10.856,1.1612151264251256
2025-03-26 20:01:10.856,2.49410030494692
2025-03-26 20:01:10.856,1.4604381014326662
2025-03-26 20:01:10.866,-0.9159618179684286
2025-03-26 20:01:10.866,-2.4224719787483333
2025-03-26 20:01:10.866,-1.8797417011869797
2025-03-26 20:01:10.866,0.03996054603950788
2025-03-26 20:01:10.866,1.7315410188392097
2025-03-26 20:01:10.876,2.0406314042547757
2025-03-26 20:01:10.876,0.9566471542072439
2025-03-26 20:01:10.876,-0.6340405136309889
2025-03-26 20:01:10.876,-1.681929174582888
2025-03-26 20:01:10.886,-1.593930399972837
2025-03-26 20:01:10.886,-0.4624356241634948
2025-03-26 20:01:10.886,1.0092524805191327
2025-03-26 20:01:10.886,1.7930819148855925
2025-03-26 20:01:10.886,1.1460755623790375
2025-03-26 20:01:10.894,-0.5811707183258219
2025-03-26 20:01:10.894,-1.8338243905698266
2025-03-26 20:01:10.894,-1.2282841147592063
2025-03-26 20:01:10.894,0.7133680561038985
2025-03-26 20:01:10.894,1.8632625782414747
2025-03-26 20:01:10.904,0.9472594058511796
2025-03-26 20:01:10.904,-0.9311230328415304
2025-03-26 20:01:10.904,-1.7629237166984781
2025-03-26 20:01:10.904,-0.9801232977019424
2025-03-26 20:01:10.904,0.393569390056369
2025-03-26 20:01:10.914,1.3593856073631267
2025-03-26 20:01:10.914,1.6847513893292136
2025-03-26 20:01:10.914,1.2206796248700107
2025-03-26 20:01:10.914,-0.33038361286896833
2025-03-26 20:01:10.924,-2.4441800048330893
2025-03-26 20:01:10.924,-3.3568713990242727
2025-03-26 20:01:10.924,-1.58256848081653
2025-03-26 20:01:10.924,2.1207573621403264
2025-03-26 20:01:10.924,4.868068299307587
2025-03-26 20:01:10.933,4.0487296304038
2025-03-26 20:01:10.933,-0.24213949161919346
2025-03-26 20:01:10.933,-4.896083896613241
2025-03-26 20:01:10.933,-6.030672879112281
2025-03-26 20:01:10.942,-2.3173932977565275
2025-03-26 20:01:10.942,3.4242983898720443
2025-03-26 20:01:10.942,6.39210434748867
2025-03-26 20:01:10.942,4.166536025207696
2025-03-26 20:01:10.942,-1.0711448610546865
2025-03-26 20:01:10.951,-4.824683871315062
2025-03-26 20:01:10.952,-4.522321748825636
2025-03-26 20:01:10.952,-1.2730483503773833
2025-03-26 20:01:10.952,2.028212619173622
2025-03-26 20:01:10.952,3.422361856726059
2025-03-26 20:01:10.962,2.725099391537121
2025-03-26 20:01:10.962,0.7725017370361364
2025-03-26 20:01:10.962,-1.347796840373971
2025-03-26 20:01:10.962,-2.6654167267309754
2025-03-26 20:01:10.962,-2.603294861595287
2025-03-26 20:01:10.971,-1.106970255912111
2025-03-26 20:01:10.971,1.2985525695122342
2025-03-26 20:01:10.972,3.3143871292084204
2025-03-26 20:01:10.972,3.200069242623652
2025-03-26 20:01:10.972,0.3429229793677285
2025-03-26 20:01:10.980,-3.2898433599905026
2025-03-26 20:01:10.980,-4.298540084955557
2025-03-26 20:01:10.980,-1.356210327443853
2025-03-26 20:01:10.980,2.8449738698120806
2025-03-26 20:01:10.990,4.172477422136389
2025-03-26 20:01:10.990,1.5899037450882614
2025-03-26 20:01:10.990,-1.8868919858412037
2025-03-26 20:01:10.990,-2.9474434665270453
2025-03-26 20:01:10.990,-1.4699281861387625
2025-03-26 20:01:10.998,0.350744261659078
2025-03-26 20:01:10.998,1.0915308984194918
2025-03-26 20:01:10.998,1.1145017012982839
2025-03-26 20:01:10.998,1.1389375996428204
2025-03-26 20:01:10.998,1.0281945431432198
2025-03-26 20:01:11.008,0.10965765649833703
2025-03-26 20:01:11.008,-1.7244377312204784
2025-03-26 20:01:11.008,-3.2614052651010033
2025-03-26 20:01:11.008,-2.543490349035408
2025-03-26 20:01:11.018,1.0168116286507378
2025-03-26 20:01:11.018,4.964149342613371
2025-03-26 20:01:11.018,5.3484914568925435
2025-03-26 20:01:11.018,0.8509718203690116
2025-03-26 20:01:11.018,-5.097842399448801
2025-03-26 20:01:11.028,-7.182624729940627
2025-03-26 20:01:11.028,-3.2829926332252675
2025-03-26 20:01:11.028,3.446270524884293
2025-03-26 20:01:11.028,7.341781733167834
2025-03-26 20:01:11.028,5.173062244452688
2025-03-26 20:01:11.028,-1.02096813748748
2025-03-26 20:01:11.038,-5.8030110050043575
2025-03-26 20:01:11.038,-5.413578598001516
2025-03-26 20:01:11.038,-1.046077155373741
2025-03-26 20:01:11.038,3.01227420200766
2025-03-26 20:01:11.047,3.874607315416738
2025-03-26 20:01:11.048,2.0920294458037594
2025-03-26 20:01:11.048,-0.10836839388122131
2025-03-26 20:01:11.048,-1.3604140368505229
2025-03-26 20:01:11.048,-1.73509304352173
2025-03-26 20:01:11.056,-1.6723309294231092
2025-03-26 20:01:11.056,-1.1232119608374043
2025-03-26 20:01:11.056,0.15827784552810686
2025-03-26 20:01:11.056,1.813768184559482
2025-03-26 20:01:11.065,2.724639189447139
2025-03-26 20:01:11.065,1.8573934063409256
2025-03-26 20:01:11.066,-0.6152811296805687
2025-03-26 20:01:11.066,-3.026665769079111
2025-03-26 20:01:11.066,-3.338766633901409
2025-03-26 20:01:11.074,-0.9991390884357765
2025-03-26 20:01:11.074,2.2265796777360816
2025-03-26 20:01:11.074,3.619122400006324
2025-03-26 20:01:11.074,2.012389805691232
2025-03-26 20:01:11.084,-1.0622411230135183
2025-03-26 20:01:11.084,-2.850097530305376
2025-03-26 20:01:11.084,-2.000486031857653
2025-03-26 20:01:11.084,0.3168583406885167
2025-03-26 20:01:11.084,1.8113562759216004
2025-03-26 20:01:11.084,1.3449151478128065
2025-03-26 20:01:11.094,-0.23384179096951624
2025-03-26 20:01:11.094,-1.2141117464043818
2025-03-26 20:01:11.094,-0.7133241748150536
2025-03-26 20:01:11.094,0.6181817561076461
2025-03-26 20:01:11.104,1.304974197466256
2025-03-26 20:01:11.104,0.4749778387211898
2025-03-26 20:01:11.104,-1.1905149721029502
2025-03-26 20:01:11.104,-1.9317798063799494
2025-03-26 20:01:11.104,-0.6626163932687472
2025-03-26 20:01:11.112,1.6143343307010274
2025-03-26 20:01:11.112,2.5720655794487786
2025-03-26 20:01:11.112,1.098633604463144
2025-03-26 20:01:11.112,-1.3559031983290213
2025-03-26 20:01:11.122,-2.462576699464501
2025-03-26 20:01:11.122,-1.5588156207846173
2025-03-26 20:01:11.122,0.14307418306347502
2025-03-26 20:01:11.122,1.3531048033209148
2025-03-26 20:01:11.122,1.727311396535544
2025-03-26 20:01:11.131,1.3337564984176375
2025-03-26 20:01:11.132,0.20618075907937045
2025-03-26 20:01:11.132,-1.2341622835886854
2025-03-26 20:01:11.132,-2.006501607268725
2025-03-26 20:01:11.132,-1.4004360687364568
2025-03-26 20:01:11.140,0.162289753577672
2025-03-26 20:01:11.140,1.4570671475458001
2025-03-26 20:01:11.140,1.6499940838043947
2025-03-26 20:01:11.140,0.9305492788451072
2025-03-26 20:01:11.150,-0.019576955859083756
2025-03-26 20:01:11.150,-0.8321158932485151
2025-03-26 20:01:11.150,-1.480690944559695
2025-03-26 20:01:11.150,-1.6909797606821468
2025-03-26 20:01:11.150,-0.8309370511864026
2025-03-26 20:01:11.160,1.1990130170433375
2025-03-26 20:01:11.160,3.1173742260973
2025-03-26 20:01:11.160,2.9534703067248196
2025-03-26 20:01:11.160,0.040908261372808175
2025-03-26 20:01:11.160,-3.7730030870508515
2025-03-26 20:01:11.169,-5.204792180592204
2025-03-26 20:01:11.170,-2.254575323554611
2025-03-26 20:01:11.170,3.488202254541902
2025-03-26 20:01:11.170,7.2111326444761
2025-03-26 20:01:11.170,4.784560661057429
2025-03-26 20:01:11.178,-2.5676331036807607
2025-03-26 20:01:11.178,-8.211069605906344
2025-03-26 20:01:11.178,-6.345348295729922
2025-03-26 20:01:11.178,1.5052654463509267
2025-03-26 20:01:11.189,7.587518375262247
2025-03-26 20:01:11.189,6.118806072900993
2025-03-26 20:01:11.190,-0.676339795705414
2025-03-26 20:01:11.190,-5.589339447806569
2025-03-26 20:01:11.190,-4.473507786792041
2025-03-26 20:01:11.196,0.18280789501546135
2025-03-26 20:01:11.196,3.215817207679371
2025-03-26 20:01:11.196,2.444886178268265
2025-03-26 20:01:11.196,-0.14206488878865817
2025-03-26 20:01:11.206,-1.501069066898777
2025-03-26 20:01:11.206,-0.7156583458253137
2025-03-26 20:01:11.206,0.6651252668057919
2025-03-26 20:01:11.206,0.7697952647745596
2025-03-26 20:01:11.206,-0.4530395804944787
2025-03-26 20:01:11.215,-1.338062932421034
2025-03-26 20:01:11.216,-0.6289482293827944
2025-03-26 20:01:11.216,0.9337009588267934
2025-03-26 20:01:11.216,1.5014501398542575
2025-03-26 20:01:11.216,0.41441067615798255
2025-03-26 20:01:11.225,-0.9515849980997678
2025-03-26 20:01:11.225,-0.9249818189512248
2025-03-26 20:01:11.226,0.3020451738075466
2025-03-26 20:01:11.226,0.9408273487264208
2025-03-26 20:01:11.226,0.0080824367091967
2025-03-26 20:01:11.234,-1.3176034115497317
2025-03-26 20:01:11.234,-1.184546156467009
2025-03-26 20:01:11.234,0.5571275644635764
2025-03-26 20:01:11.234,2.0973910623561682
2025-03-26 20:01:11.244,1.7194641570255793
2025-03-26 20:01:11.244,-0.3705201659487607
2025-03-26 20:01:11.244,-2.3282455176813497
2025-03-26 20:01:11.244,-2.4045639623630715
2025-03-26 20:01:11.244,-0.3982222554090846
2025-03-26 20:01:11.254,2.1056923433041193
2025-03-26 20:01:11.254,2.8917005630166854
2025-03-26 20:01:11.254,1.1377180536999931
2025-03-26 20:01:11.254,-1.5425574591903
2025-03-26 20:01:11.254,-2.6494630858218096
2025-03-26 20:01:11.262,-1.4543200843010593
2025-03-26 20:01:11.262,0.5303286989755495
2025-03-26 20:01:11.262,1.6218874386602176
2025-03-26 20:01:11.262,1.5140301884228669
2025-03-26 20:01:11.262,0.6842306503837949
2025-03-26 20:01:11.272,-0.49234672327354245
2025-03-26 20:01:11.272,-1.4527919812364254
2025-03-26 20:01:11.272,-1.3233210816800334
2025-03-26 20:01:11.272,-0.04101351495223457
2025-03-26 20:01:11.282,1.0469602429045635
2025-03-26 20:01:11.282,0.7477950002388809
2025-03-26 20:01:11.282,-0.21403991630847852
2025-03-26 20:01:11.282,-0.1745889551311903
2025-03-26 20:01:11.282,0.8781523279833063
2025-03-26 20:01:11.290,1.074379537227418
2025-03-26 20:01:11.290,-0.5929783169435563
2025-03-26 20:01:11.290,-2.512402432347777
2025-03-26 20:01:11.290,-2.2973858112379353
2025-03-26 20:01:11.300,0.2681813931937257
2025-03-26 20:01:11.300,2.9629365394176728
2025-03-26 20:01:11.300,3.510832118275145
2025-03-26 20:01:11.300,1.5257825550372712
2025-03-26 20:01:11.300,-1.669770001960647
2025-03-26 20:01:11.310,-4.148939703217983
2025-03-26 20:01:11.310,-4.1304805529311635
2025-03-26 20:01:11.310,-0.9241707259176187
2025-03-26 20:01:11.310,3.754883150126715
2025-03-26 20:01:11.310,6.131024072288558
2025-03-26 20:01:11.318,3.587607336673747
2025-03-26 20:01:11.318,-2.177091437654931
2025-03-26 20:01:11.318,-6.210382231047997
2025-03-26 20:01:11.318,-5.064124635066819
2025-03-26 20:01:11.328,-0.085336570756604
2025-03-26 20:01:11.328,4.243265349616925
2025-03-26 20:01:11.328,4.703063853696108
2025-03-26 20:01:11.328,1.7990463860908164
2025-03-26 20:01:11.328,-1.4918674824167826
2025-03-26 20:01:11.337,-2.6933117033467564
2025-03-26 20:01:11.338,-1.7369117280109605
2025-03-26 20:01:11.338,-0.4327775859045138
2025-03-26 20:01:11.338,-0.15317131296370803
2025-03-26 20:01:11.338,-0.24494510623406054
2025-03-26 20:01:11.346,0.7517484844528762
2025-03-26 20:01:11.346,2.5546970037861327
2025-03-26 20:01:11.346,2.928527269594416
2025-03-26 20:01:11.346,0.4561020880038961
2025-03-26 20:01:11.356,-3.2590217873330376
2025-03-26 20:01:11.356,-4.837824515516811
2025-03-26 20:01:11.356,-2.469203574656686
2025-03-26 20:01:11.356,2.1550332588880714
2025-03-26 20:01:11.356,5.176289965146722
2025-03-26 20:01:11.364,3.998797465170815
2025-03-26 20:01:11.364,-0.2834626447749331
2025-03-26 20:01:11.364,-3.880135292979722
2025-03-26 20:01:11.364,-3.9452804821300727
2025-03-26 20:01:11.364,-1.1756494996240314
2025-03-26 20:01:11.374,1.4355954534766853
2025-03-26 20:01:11.374,2.0973228297049826
2025-03-26 20:01:11.374,1.619403234362444
2025-03-26 20:01:11.374,1.2660006303385645
2025-03-26 20:01:11.384,0.6257687745944778
2025-03-26 20:01:11.384,-1.1801458664776088
2025-03-26 20:01:11.384,-3.0635310880784843
2025-03-26 20:01:11.384,-2.6365656320222137
2025-03-26 20:01:11.384,0.42975382674334534
2025-03-26 20:01:11.385,3.246338406644863
2025-03-26 20:01:11.394,2.888765053758647
2025-03-26 20:01:11.394,-0.030601591649297016
2025-03-26 20:01:11.394,-2.132623171300795
2025-03-26 20:01:11.394,-1.4485804936820659
2025-03-26 20:01:11.404,0.4000418484734801
2025-03-26 20:01:11.404,0.6854541409803102
2025-03-26 20:01:11.404,-0.7880260536362087
2025-03-26 20:01:11.404,-1.614893481208795
2025-03-26 20:01:11.404,-0.04838356236546417
2025-03-26 20:01:11.412,2.6638616662821737
2025-03-26 20:01:11.412,3.4864746947462115
2025-03-26 20:01:11.412,0.8478808283931794
2025-03-26 20:01:11.412,-3.3909944671830665
2025-03-26 20:01:11.422,-5.2787610769298885
2025-03-26 20:01:11.422,-2.5248693679747887
2025-03-26 20:01:11.422,2.826167760630405
2025-03-26 20:01:11.422,5.922533169259653
2025-03-26 20:01:11.422,3.8372705999060996
2025-03-26 20:01:11.430,-1.4053370797714917
2025-03-26 20:01:11.430,-4.93414665675746
2025-03-26 20:01:11.430,-3.9288214895636098
2025-03-26 20:01:11.430,-0.003432802390202133
2025-03-26 20:01:11.430,2.960998070896482
2025-03-26 20:01:11.440,2.700866273561888
2025-03-26 20:01:11.440,0.3283296844151222
2025-03-26 20:01:11.440,-1.2768005569165137
2025-03-26 20:01:11.440,-0.6264041936265248
2025-03-26 20:01:11.450,0.875505373420728
2025-03-26 20:01:11.450,0.7773206517176569
2025-03-26 20:01:11.450,-1.257606305619277
2025-03-26 20:01:11.450,-2.809503605609506
2025-03-26 20:01:11.450,-1.534331468401771
2025-03-26 20:01:11.460,1.857567080604714
2025-03-26 20:01:11.460,4.0906836620168745
2025-03-26 20:01:11.460,2.827864357508405
2025-03-26 20:01:11.460,-0.8336952298785094
2025-03-26 20:01:11.460,-3.6770960777363935
2025-03-26 20:01:11.470,-3.672919405376516
2025-03-26 20:01:11.470,-1.3618910943836282
2025-03-26 20:01:11.470,1.51019837811415
2025-03-26 20:01:11.470,3.4900848693556785
2025-03-26 20:01:11.470,3.560377359303156
2025-03-26 20:01:11.478,1.2993214307363077
2025-03-26 20:01:11.478,-2.1728599495999594
2025-03-26 20:01:11.478,-4.255593049164244
2025-03-26 20:01:11.478,-3.113930143467661
2025-03-26 20:01:11.478,0.18275530424469363
2025-03-26 20:01:11.488,2.6710064530341406
2025-03-26 20:01:11.488,2.762055594447306
2025-03-26 20:01:11.488,1.5700584706611307
2025-03-26 20:01:11.488,0.6351534859942797
2025-03-26 20:01:11.498,-0.38666652985912864
2025-03-26 20:01:11.498,-2.411549762074996
2025-03-26 20:01:11.498,-4.1095539585358605
2025-03-26 20:01:11.498,-2.6463326273090444
2025-03-26 20:01:11.498,2.110170863494216
2025-03-26 20:01:11.507,6.012216852243513
2025-03-26 20:01:11.507,4.887819529681873
2025-03-26 20:01:11.508,-0.5161763966761902
2025-03-26 20:01:11.508,-5.346474059272512
2025-03-26 20:01:11.516,-5.79949595038811
2025-03-26 20:01:11.516,-2.120718648853688
2025-03-26 20:01:11.516,2.731318292661731
2025-03-26 20:01:11.516,5.55563236957041
2025-03-26 20:01:11.516,4.448650677477577
2025-03-26 20:01:11.526,0.029796489265749154
2025-03-26 20:01:11.526,-4.336254152729659
2025-03-26 20:01:11.526,-5.009316814894597
2025-03-26 20:01:11.526,-1.612442314025242
2025-03-26 20:01:11.526,2.503605040611064
2025-03-26 20:01:11.526,3.7593039486030095
2025-03-26 20:01:11.536,1.8211385905343178
2025-03-26 20:01:11.536,-0.749268603653908
2025-03-26 20:01:11.536,-1.710998541200061
2025-03-26 20:01:11.536,-1.1627460328903254
2025-03-26 20:01:11.545,-0.4336552758347444
2025-03-26 20:01:11.546,-0.04323894055682444
2025-03-26 20:01:11.546,0.4309995619309959
2025-03-26 20:01:11.546,0.9750070856349842
2025-03-26 20:01:11.546,0.8084223659557457
2025-03-26 20:01:11.554,-0.26541928013851657
2025-03-26 20:01:11.554,-1.0947349492683882
2025-03-26 20:01:11.554,-0.5753378178931093
2025-03-26 20:01:11.554,0.6683036503661552
2025-03-26 20:01:11.564,1.0059978690358058
2025-03-26 20:01:11.564,0.04189588257504347
2025-03-26 20:01:11.564,-0.9615686642168612
2025-03-26 20:01:11.564,-0.9364562657318192
2025-03-26 20:01:11.564,-0.15250561458708972
2025-03-26 20:01:11.572,0.6598352030550498
2025-03-26 20:01:11.572,1.1749567450839886
2025-03-26 20:01:11.572,1.1225749128063132
2025-03-26 20:01:11.572,0.13659938962248955
2025-03-26 20:01:11.572,-1.447273642271427
2025-03-26 20:01:11.582,-2.2975249912736646
2025-03-26 20:01:11.582,-1.2743490689458656
2025-03-26 20:01:11.582,1.1362984036025978
2025-03-26 20:01:11.582,2.9334521084086402
2025-03-26 20:01:11.591,2.4065238394188357
2025-03-26 20:01:11.591,-0.1315723362951639
2025-03-26 20:01:11.592,-2.5724085580524663
2025-03-26 20:01:11.592,-2.9919378129005296
2025-03-26 20:01:11.592,-1.2345491303198408
2025-03-26 20:01:11.600,1.293716650042419
2025-03-26 20:01:11.600,2.8587366270419383
2025-03-26 20:01:11.600,2.417793628653275
2025-03-26 20:01:11.600,0.2145899286393087
2025-03-26 20:01:11.600,-2.138284987343257
2025-03-26 20:01:11.610,-2.7178754306607744
2025-03-26 20:01:11.610,-1.1132507223801118
2025-03-26 20:01:11.610,1.0337168286426222
2025-03-26 20:01:11.610,1.805259466385578
2025-03-26 20:01:11.620,1.0226246873858456
2025-03-26 20:01:11.620,-0.021044950482405997
2025-03-26 20:01:11.620,-0.38512328060082973
2025-03-26 20:01:11.620,-0.25469034889666803
2025-03-26 20:01:11.620,-0.16451051613002865
2025-03-26 20:01:11.630,-0.3043090381633134
2025-03-26 20:01:11.630,-0.5765318772566947
2025-03-26 20:01:11.630,-0.6844916334384552
2025-03-26 20:01:11.630,-0.18487902271091372
2025-03-26 20:01:11.630,0.9317382993746223
2025-03-26 20:01:11.638,1.7336155537425857
2025-03-26 20:01:11.638,1.1476255144652125
2025-03-26 20:01:11.639,-0.541850846350664
2025-03-26 20:01:11.639,-1.7280535935565444
2025-03-26 20:01:11.648,-1.4245090336402413
2025-03-26 20:01:11.648,-0.42960833669486187
2025-03-26 20:01:11.648,0.09478744468223427
2025-03-26 20:01:11.648,0.3873607610525307
2025-03-26 20:01:11.648,1.299604854285624
2025-03-26 20:01:11.658,2.2840355607536735
2025-03-26 20:01:11.658,1.6569701741285212
2025-03-26 20:01:11.658,-0.9756810891274099
2025-03-26 20:01:11.658,-3.669428127281798
2025-03-26 20:01:11.658,-3.9411391910878244
2025-03-26 20:01:11.668,-1.126169761041421
2025-03-26 20:01:11.668,3.0358295755611002
2025-03-26 20:01:11.668,5.566703022285274
2025-03-26 20:01:11.668,4.19249079049932
2025-03-26 20:01:11.668,-0.7467017033812453
2025-03-26 20:01:11.676,-5.769824681880451
2025-03-26 20:01:11.676,-6.51569833304096
2025-03-26 20:01:11.676,-1.785376531751736
2025-03-26 20:01:11.676,4.562500519713929
2025-03-26 20:01:11.686,6.76258449066023
2025-03-26 20:01:11.686,2.895838378534018
2025-03-26 20:01:11.686,-2.9323001352029636
2025-03-26 20:01:11.686,-4.9051880361348985
2025-03-26 20:01:11.686,-1.7894018368765754
2025-03-26 20:01:11.694,2.05783127862486
2025-03-26 20:01:11.694,2.1868077636856422
2025-03-26 20:01:11.694,-0.7131182157678071
2025-03-26 20:01:11.694,-2.256888741329663
2025-03-26 20:01:11.704,-0.24243439264518946
2025-03-26 20:01:11.704,2.764455103056527
2025-03-26 20:01:11.704,2.989156331250569
2025-03-26 20:01:11.704,0.01800423562149303
2025-03-26 20:01:11.704,-3.1193846709296134
2025-03-26 20:01:11.712,-3.5355444121693544
2025-03-26 20:01:11.712,-1.1295377747699533
2025-03-26 20:01:11.712,1.9401899933158704
2025-03-26 20:01:11.712,3.394214020253568
2025-03-26 20:01:11.722,2.359629769112843
2025-03-26 20:01:11.722,-0.3186337269396294
2025-03-26 20:01:11.722,-2.6450906126003875
2025-03-26 20:01:11.722,-2.777271409010295
2025-03-26 20:01:11.722,-0.5969231389795713
2025-03-26 20:01:11.722,1.892364004349982
2025-03-26 20:01:11.732,2.318358823064385
2025-03-26 20:01:11.732,0.4134580304038684
2025-03-26 20:01:11.732,-1.6179621022211506
2025-03-26 20:01:11.732,-1.548702671828788
2025-03-26 20:01:11.742,0.3621168419963973
2025-03-26 20:01:11.742,1.8011435599286638
2025-03-26 20:01:11.742,1.151047136335356
2025-03-26 20:01:11.742,-0.829101414331528
2025-03-26 20:01:11.742,-2.0977992084281185
2025-03-26 20:01:11.752,-1.4835105281634187
2025-03-26 20:01:11.752,0.43370019025537493
2025-03-26 20:01:11.752,2.065372688655966
2025-03-26 20:01:11.752,2.1330607595216518
2025-03-26 20:01:11.752,0.5767383597535098
2025-03-26 20:01:11.760,-1.4234804547833835
2025-03-26 20:01:11.760,-2.288647568151978
2025-03-26 20:01:11.760,-1.2860036979056626
2025-03-26 20:01:11.760,0.6562111534564755
2025-03-26 20:01:11.770,1.5975346050147003
2025-03-26 20:01:11.770,0.6731573071630471
2025-03-26 20:01:11.770,-0.6460600052189012
2025-03-26 20:01:11.770,-0.32180503178799036
2025-03-26 20:01:11.770,1.2687283190015723
2025-03-26 20:01:11.780,1.486884521012144
2025-03-26 20:01:11.780,-0.8552650552477145
2025-03-26 20:01:11.780,-3.2638832243487417
2025-03-26 20:01:11.780,-2.405329945009225
2025-03-26 20:01:11.780,1.3807071677973783
2025-03-26 20:01:11.788,4.024533163908516
2025-03-26 20:01:11.788,2.5498271465912716
2025-03-26 20:01:11.788,-1.3270534785274797
2025-03-26 20:01:11.788,-3.3536587756418443
2025-03-26 20:01:11.788,-1.7293884132308006
2025-03-26 20:01:11.798,1.2280306302208586
2025-03-26 20:01:11.798,2.192671322943747
2025-03-26 20:01:11.798,0.5072844747501937
2025-03-26 20:01:11.798,-1.5813647762270238
2025-03-26 20:01:11.808,-1.6866101512114073
2025-03-26 20:01:11.808,0.28859910460149957
2025-03-26 20:01:11.808,2.2925164949635746
2025-03-26 20:01:11.808,2.2233578287029636
2025-03-26 20:01:11.808,-0.11340921292709061
2025-03-26 20:01:11.818,-2.7545164548377796
2025-03-26 20:01:11.818,-3.231453970657342
2025-03-26 20:01:11.818,-0.8671431861091965
2025-03-26 20:01:11.818,2.4078788200543157
2025-03-26 20:01:11.818,3.74893726541714
2025-03-26 20:01:11.828,2.0215000615987533
2025-03-26 20:01:11.828,-1.2550113907040281
2025-03-26 20:01:11.828,-3.3722651418163214
2025-03-26 20:01:11.828,-2.7327875728113638
2025-03-26 20:01:11.828,-0.03218269557437148
2025-03-26 20:01:11.836,2.454698357672469
2025-03-26 20:01:11.836,2.7751352218611065
2025-03-26 20:01:11.836,0.8141833725179505
2025-03-26 20:01:11.836,-1.7082353464874118
2025-03-26 20:01:11.846,-2.6207071737082037
2025-03-26 20:01:11.846,-1.0515803961727106
2025-03-26 20:01:11.846,1.6775154872356786
2025-03-26 20:01:11.846,2.949852510850894
2025-03-26 20:01:11.846,1.220227714100389
2025-03-26 20:01:11.858,-2.1862008076269563
2025-03-26 20:01:11.858,-3.934252699600693
2025-03-26 20:01:11.858,-1.8565399063362338
2025-03-26 20:01:11.858,2.5424231166150415
2025-03-26 20:01:11.858,5.08733444301932
2025-03-26 20:01:11.866,2.945922214596277
2025-03-26 20:01:11.866,-2.2285793744933344
2025-03-26 20:01:11.866,-5.568560267743948
2025-03-26 20:01:11.866,-3.8150511015928568
2025-03-26 20:01:11.866,1.2739931318454767
2025-03-26 20:01:11.874,4.779509601251874
2025-03-26 20:01:11.874,3.7744030093505083
2025-03-26 20:01:11.874,-0.04846991818526322
2025-03-26 20:01:11.874,-2.8951994147584204
2025-03-26 20:01:11.884,-2.9063094365577937
2025-03-26 20:01:11.884,-1.071577371816862
2025-03-26 20:01:11.884,0.8084124764385098
2025-03-26 20:01:11.884,1.7958426356969674
2025-03-26 20:01:11.884,1.762407765313682
2025-03-26 20:01:11.894,0.8363291793031042
2025-03-26 20:01:11.894,-0.6600202300652512
2025-03-26 20:01:11.894,-2.0054785248761715
2025-03-26 20:01:11.894,-2.164818400754069
2025-03-26 20:01:11.894,-0.533834338530214
2025-03-26 20:01:11.902,2.0326564911562865
2025-03-26 20:01:11.902,3.314771406283793
2025-03-26 20:01:11.902,1.6822137520495906
2025-03-26 20:01:11.902,-1.8463597456721137
2025-03-26 20:01:11.902,-4.082576171285541
2025-03-26 20:01:11.912,-2.6842787372526553
2025-03-26 20:01:11.912,1.3514620779464819
2025-03-26 20:01:11.912,4.388003654754179
2025-03-26 20:01:11.912,3.47024323398384
2025-03-26 20:01:11.922,-0.7813904717996976
2025-03-26 20:01:11.922,-4.431721139984441
2025-03-26 20:01:11.922,-3.8070312417633216
2025-03-26 20:01:11.922,0.6447517710130755
2025-03-26 20:01:11.922,4.375278051130351
2025-03-26 20:01:11.933,3.3965774497676158
2025-03-26 20:01:11.934,-1.1960673519333729
2025-03-26 20:01:11.934,-4.272581598599842
2025-03-26 20:01:11.934,-2.4122731458048148
2025-03-26 20:01:11.940,2.235037207746258
2025-03-26 20:01:11.940,4.360676560324803
2025-03-26 20:01:11.940,1.420885249670382
2025-03-26 20:01:11.940,-3.4348101833373046
2025-03-26 20:01:11.940,-4.704410903473954
2025-03-26 20:01:11.940,-0.7099972661873066
2025-03-26 20:01:11.950,4.283887245458885
2025-03-26 20:01:11.950,4.777030206751185
2025-03-26 20:01:11.950,0.3113319980496112
2025-03-26 20:01:11.950,-4.152593321147402
2025-03-26 20:01:11.960,-4.09666777852106
2025-03-26 20:01:11.960,-0.2785396245520752
2025-03-26 20:01:11.960,2.923739622861403
2025-03-26 20:01:11.960,2.7811199485352773
2025-03-26 20:01:11.960,0.52404604541009
2025-03-26 20:01:11.970,-1.1229537382831571
2025-03-26 20:01:11.970,-1.1841081524464752
2025-03-26 20:01:11.970,-0.6829729954694329
2025-03-26 20:01:11.971,-0.5637294699099679
2025-03-26 20:01:11.971,-0.429435017150044
2025-03-26 20:01:11.978,0.4657548346144975
2025-03-26 20:01:11.978,1.6349594530030453
2025-03-26 20:01:11.978,1.6008953049018635
2025-03-26 20:01:11.978,-0.10844750401809443
2025-03-26 20:01:11.989,-1.90598799397157
2025-03-26 20:01:11.989,-1.7908002248354726
2025-03-26 20:01:11.989,0.15630098395803932
2025-03-26 20:01:11.990,1.6843990559981947
2025-03-26 20:01:11.990,1.0302604964461843
2025-03-26 20:01:12.000,-0.8940601127477358
2025-03-26 20:01:12.000,-1.5651392899581886
2025-03-26 20:01:12.000,0.05394993721908854
2025-03-26 20:01:12.000,2.1428070543183835
2025-03-26 20:01:12.000,2.027639885880106
2025-03-26 20:01:12.008,-0.7412167174280737
2025-03-26 20:01:12.008,-3.5731154546395008
2025-03-26 20:01:12.008,-3.2188906913702438
2025-03-26 20:01:12.008,0.7290519673128155
2025-03-26 20:01:12.008,4.7396016563371175
2025-03-26 20:01:12.016,4.531694195921564
2025-03-26 20:01:12.016,-0.18051742110661365
2025-03-26 20:01:12.016,-4.89034084584574
2025-03-26 20:01:12.016,-4.973897041059745
2025-03-26 20:01:12.026,-0.6108060423235392
2025-03-26 20:01:12.026,3.720056682005265
2025-03-26 20:01:12.026,4.211839000847202
2025-03-26 20:01:12.026,1.2744162923616706
2025-03-26 20:01:12.026,-1.795513607677112
2025-03-26 20:01:12.036,-2.634677104018351
2025-03-26 20:01:12.036,-1.5997746220114268
2025-03-26 20:01:12.036,-0.2361221716842133
2025-03-26 20:01:12.036,0.8151768632494855
2025-03-26 20:01:12.036,1.7497695364181425
2025-03-26 20:01:12.044,2.1403353645616896
2025-03-26 20:01:12.044,0.8623684361414905
2025-03-26 20:01:12.044,-1.979253371673609
2025-03-26 20:01:12.044,-3.9010807519352553
2025-03-26 20:01:12.044,-2.2055370283578317
2025-03-26 20:01:12.054,2.3707924722723104
