timestamp,bandpass_and_notch
2025-03-27 16:21:57.770,-0.27946920817326315
2025-03-27 16:21:57.771,-2.9786776926009932
2025-03-27 16:21:57.771,-3.51253880725493
2025-03-27 16:21:57.771,-7.015474845307575
2025-03-27 16:21:57.780,-14.977233421003158
2025-03-27 16:21:57.780,-14.730651243387499
2025-03-27 16:21:57.780,5.548733519063286
2025-03-27 16:21:57.780,32.90410688784607
2025-03-27 16:21:57.781,36.06039060839903
2025-03-27 16:21:57.788,2.4983461578741837
2025-03-27 16:21:57.788,-40.305375657517786
2025-03-27 16:21:57.789,-50.391990853173255
2025-03-27 16:21:57.789,-16.19539351766331
2025-03-27 16:21:57.796,30.666872093294803
2025-03-27 16:21:57.797,48.242586130713754
2025-03-27 16:21:57.797,25.620364258902953
2025-03-27 16:21:57.797,-10.589215562770185
2025-03-27 16:21:57.797,-27.673983583073856
2025-03-27 16:21:57.806,-18.919051716660807
2025-03-27 16:21:57.806,-2.7016819180298395
2025-03-27 16:21:57.806,4.178726323496772
2025-03-27 16:21:57.807,3.446703077749754
2025-03-27 16:21:57.816,5.088053513412818
2025-03-27 16:21:57.816,9.723358297915244
2025-03-27 16:21:57.816,9.077067455669022
2025-03-27 16:21:57.816,0.2940345089056773
2025-03-27 16:21:57.816,-9.04301613740508
2025-03-27 16:21:57.826,-11.221935455983564
2025-03-27 16:21:57.826,-7.150830454574203
2025-03-27 16:21:57.826,-2.0835187718780586
2025-03-27 16:21:57.826,2.36306757190394
2025-03-27 16:21:57.827,7.554145691671755
2025-03-27 16:21:57.834,11.72824989974369
2025-03-27 16:21:57.834,9.536539721302345
2025-03-27 16:21:57.835,-1.0926806728658254
2025-03-27 16:21:57.835,-13.79451300350496
2025-03-27 16:21:57.835,-17.667133307943732
2025-03-27 16:21:57.844,-7.551390762750378
2025-03-27 16:21:57.844,9.400455961885633
2025-03-27 16:21:57.844,18.81723061056306
2025-03-27 16:21:57.845,12.545427530928661
2025-03-27 16:21:57.854,-3.0714128953201145
2025-03-27 16:21:57.854,-13.610813379153893
2025-03-27 16:21:57.854,-11.049584322490329
2025-03-27 16:21:57.854,-0.4846195043116279
2025-03-27 16:21:57.855,7.051559259568731
2025-03-27 16:21:57.864,6.059577609002082
2025-03-27 16:21:57.864,0.1681108219802896
2025-03-27 16:21:57.864,-3.5477529238423546
2025-03-27 16:21:57.864,-1.9033059905826615
2025-03-27 16:21:57.864,2.2552635319746375
2025-03-27 16:21:57.872,3.8513712387104775
2025-03-27 16:21:57.872,0.9859674949281154
2025-03-27 16:21:57.873,-3.411494121724218
2025-03-27 16:21:57.873,-5.1178529092855
2025-03-27 16:21:57.873,-3.0068472507486828
2025-03-27 16:21:57.882,0.7713896015302903
2025-03-27 16:21:57.882,3.998128045081251
2025-03-27 16:21:57.883,5.80258629262235
2025-03-27 16:21:57.883,5.005874441893755
2025-03-27 16:21:57.883,0.02918492153602107
2025-03-27 16:21:57.892,-7.486245042203599
2025-03-27 16:21:57.892,-11.07782894726547
2025-03-27 16:21:57.892,-5.254400065485525
2025-03-27 16:21:57.893,6.724980010977982
2025-03-27 16:21:57.900,14.066287329320815
2025-03-27 16:21:57.900,9.381349271630805
2025-03-27 16:21:57.901,-3.186334181466978
2025-03-27 16:21:57.901,-12.388332729619574
2025-03-27 16:21:57.901,-11.105503866978124
2025-03-27 16:21:57.912,-1.7402226449586353
2025-03-27 16:21:57.912,7.761687153226979
2025-03-27 16:21:57.912,10.724622761588792
2025-03-27 16:21:57.912,5.711889702277157
2025-03-27 16:21:57.912,-3.0400544875961244
2025-03-27 16:21:57.920,-8.607088240164865
2025-03-27 16:21:57.920,-6.987503076281462
2025-03-27 16:21:57.921,-0.6176232491085447
2025-03-27 16:21:57.921,4.650285577074975
2025-03-27 16:21:57.921,5.709086008791748
2025-03-27 16:21:57.930,3.756031178789096
2025-03-27 16:21:57.930,0.5780193392959029
2025-03-27 16:21:57.930,-3.3850781663331926
2025-03-27 16:21:57.931,-6.522942515147912
2025-03-27 16:21:57.940,-5.325505407963586
2025-03-27 16:21:57.940,0.9517684062187164
2025-03-27 16:21:57.940,7.186185824438378
2025-03-27 16:21:57.940,7.434496507692327
2025-03-27 16:21:57.941,2.0406123137827707
2025-03-27 16:21:57.950,-3.4842847754469917
2025-03-27 16:21:57.950,-5.751336162020247
2025-03-27 16:21:57.950,-5.780148671944055
2025-03-27 16:21:57.950,-4.1785719123315355
2025-03-27 16:21:57.950,0.9403949694597457
2025-03-27 16:21:57.958,8.69138778199899
2025-03-27 16:21:57.958,12.027834678642293
2025-03-27 16:21:57.959,4.661241200856445
2025-03-27 16:21:57.959,-9.115518402525693
2025-03-27 16:21:57.968,-16.151717888569717
2025-03-27 16:21:57.968,-8.322079268758543
2025-03-27 16:21:57.968,7.460738053854084
2025-03-27 16:21:57.968,15.770123170615966
2025-03-27 16:21:57.969,8.879053725321217
2025-03-27 16:21:57.976,-5.464010787933617
2025-03-27 16:21:57.976,-12.871161594195302
2025-03-27 16:21:57.977,-7.351830055549802
2025-03-27 16:21:57.977,3.841896458593906
2025-03-27 16:21:57.986,9.481950984502399
2025-03-27 16:21:57.986,5.9054874094836105
2025-03-27 16:21:57.986,-1.6004415195217618
2025-03-27 16:21:57.986,-6.289504407410691
2025-03-27 16:21:57.987,-5.818216972026291
2025-03-27 16:21:57.996,-1.6780335602404253
2025-03-27 16:21:57.996,3.3628748335385543
2025-03-27 16:21:57.996,6.055207751414621
2025-03-27 16:21:57.996,3.9027782135261826
2025-03-27 16:21:57.997,-1.7487194913057946
2025-03-27 16:21:58.006,-5.24506237332838
2025-03-27 16:21:58.006,-2.3252268351299854
2025-03-27 16:21:58.006,3.6626025118296894
2025-03-27 16:21:58.006,4.436774227807027
2025-03-27 16:21:58.007,-2.645475878364597
2025-03-27 16:21:58.016,-9.38633689225251
2025-03-27 16:21:58.016,-5.686674305676827
2025-03-27 16:21:58.016,6.973479390262456
2025-03-27 16:21:58.016,15.150285593954253
2025-03-27 16:21:58.016,8.522720486065868
2025-03-27 16:21:58.024,-7.319895610143263
2025-03-27 16:21:58.024,-16.422924997417
2025-03-27 16:21:58.025,-10.037420801016387
2025-03-27 16:21:58.025,4.4674806029097445
2025-03-27 16:21:58.034,12.667686701556157
2025-03-27 16:21:58.034,8.276259605587134
2025-03-27 16:21:58.034,-2.1328814570996597
2025-03-27 16:21:58.034,-7.617920716431872
2025-03-27 16:21:58.035,-4.00756218197883
2025-03-27 16:21:58.044,3.101727813122661
2025-03-27 16:21:58.044,5.227403632735939
2025-03-27 16:21:58.044,0.24906294028720277
2025-03-27 16:21:58.044,-5.739561396992505
2025-03-27 16:21:58.044,-5.876020716529005
2025-03-27 16:21:58.054,-0.2948354702395098
2025-03-27 16:21:58.054,5.077006151282245
2025-03-27 16:21:58.054,6.148812409813667
2025-03-27 16:21:58.054,4.093465593572842
2025-03-27 16:21:58.054,1.1854713839699733
2025-03-27 16:21:58.062,-2.7893948293728683
2025-03-27 16:21:58.062,-7.516578240705235
2025-03-27 16:21:58.063,-8.83331723787338
2025-03-27 16:21:58.063,-3.03578873402452
2025-03-27 16:21:58.063,6.4399376271690425
2025-03-27 16:21:58.072,11.215977968614487
2025-03-27 16:21:58.072,7.404236048062309
2025-03-27 16:21:58.072,-0.6864413027143805
2025-03-27 16:21:58.073,-6.64494216608216
2025-03-27 16:21:58.082,-8.084862646719715
2025-03-27 16:21:58.082,-5.890408846996436
2025-03-27 16:21:58.082,-1.1620032196120675
2025-03-27 16:21:58.082,4.762098226080883
2025-03-27 16:21:58.083,9.084219166727538
2025-03-27 16:21:58.092,8.522643398225723
2025-03-27 16:21:58.092,1.9462235655775946
2025-03-27 16:21:58.092,-7.593925584742705
2025-03-27 16:21:58.092,-13.387330789439721
2025-03-27 16:21:58.093,-9.541960949248079
2025-03-27 16:21:58.102,2.7753118346843104
2025-03-27 16:21:58.102,14.07754135209275
2025-03-27 16:21:58.102,14.171817914658535
2025-03-27 16:21:58.102,2.4081983449583317
2025-03-27 16:21:58.102,-10.684476533822709
2025-03-27 16:21:58.110,-13.401679408414646
2025-03-27 16:21:58.110,-4.4885551386297005
2025-03-27 16:21:58.111,6.148188047682882
2025-03-27 16:21:58.111,8.38758994299644
2025-03-27 16:21:58.111,2.2090594605005833
2025-03-27 16:21:58.120,-3.853880752506402
2025-03-27 16:21:58.120,-3.2579901001079663
2025-03-27 16:21:58.121,1.8618218899214487
2025-03-27 16:21:58.121,4.694246305590022
2025-03-27 16:21:58.121,1.9411092188528725
2025-03-27 16:21:58.130,-3.6246178091279915
2025-03-27 16:21:58.130,-7.034525376663441
2025-03-27 16:21:58.130,-5.22131995113259
2025-03-27 16:21:58.131,1.5295136424644364
2025-03-27 16:21:58.140,9.012845971992197
2025-03-27 16:21:58.140,10.330858119612982
2025-03-27 16:21:58.140,1.8939428471002937
2025-03-27 16:21:58.140,-10.127432190276219
2025-03-27 16:21:58.141,-13.303853343847814
2025-03-27 16:21:58.148,-2.7127271649129696
2025-03-27 16:21:58.148,11.030013207054525
2025-03-27 16:21:58.148,12.388019347327248
2025-03-27 16:21:58.149,-0.43878729054404564
2025-03-27 16:21:58.158,-12.351331568605472
2025-03-27 16:21:58.158,-9.177646041849368
2025-03-27 16:21:58.158,5.101204803851442
2025-03-27 16:21:58.158,13.34648468928401
2025-03-27 16:21:58.159,6.175131135699591
2025-03-27 16:21:58.168,-7.337454066536756
2025-03-27 16:21:58.168,-11.73975959697172
2025-03-27 16:21:58.168,-3.8454032189370624
2025-03-27 16:21:58.168,5.291813023069828
2025-03-27 16:21:58.168,5.738960233228468
2025-03-27 16:21:58.178,0.4051299529077632
2025-03-27 16:21:58.178,-1.1024088582356253
2025-03-27 16:21:58.178,3.4182299252226134
2025-03-27 16:21:58.178,5.827246486644052
2025-03-27 16:21:58.178,-0.7953630005130652
2025-03-27 16:21:58.186,-11.482690014961685
2025-03-27 16:21:58.186,-13.632063785033745
2025-03-27 16:21:58.186,-1.8323512854775417
2025-03-27 16:21:58.187,14.204890820083614
2025-03-27 16:21:58.194,18.760342292408865
2025-03-27 16:21:58.194,6.784667305134307
2025-03-27 16:21:58.195,-10.54875012021248
2025-03-27 16:21:58.195,-17.59984657091336
2025-03-27 16:21:58.195,-9.899851895626101
2025-03-27 16:21:58.204,3.257541353005954
2025-03-27 16:21:58.204,10.337887718695889
2025-03-27 16:21:58.205,8.746208862811965
2025-03-27 16:21:58.205,3.8121196202839807
2025-03-27 16:21:58.205,-0.26862680077088213
2025-03-27 16:21:58.214,-4.338376869891942
2025-03-27 16:21:58.214,-8.782816453436327
2025-03-27 16:21:58.214,-8.831935286796114
2025-03-27 16:21:58.215,-0.13909183441666437
2025-03-27 16:21:58.222,11.96810353110606
2025-03-27 16:21:58.223,14.661683064146153
2025-03-27 16:21:58.223,2.40361670522634
2025-03-27 16:21:58.223,-13.705628080591863
2025-03-27 16:21:58.223,-16.515427010258207
2025-03-27 16:21:58.232,-2.618809541432635
2025-03-27 16:21:58.232,13.150782081758825
2025-03-27 16:21:58.232,14.711994994610876
2025-03-27 16:21:58.233,2.277402961898032
2025-03-27 16:21:58.242,-10.01295014658191
2025-03-27 16:21:58.242,-10.863714829271263
2025-03-27 16:21:58.242,-2.11126331247616
2025-03-27 16:21:58.242,6.303099172414827
2025-03-27 16:21:58.243,7.261000081617641
2025-03-27 16:21:58.252,1.674946901741484
2025-03-27 16:21:58.252,-4.256288161610481
2025-03-27 16:21:58.252,-5.212317337194734
2025-03-27 16:21:58.252,-1.0608294560275218
2025-03-27 16:21:58.253,3.7048929094900602
2025-03-27 16:21:58.260,4.531203887720012
2025-03-27 16:21:58.260,1.055882622593324
2025-03-27 16:21:58.261,-2.9737710998743236
2025-03-27 16:21:58.261,-3.8845543860437397
2025-03-27 16:21:58.261,-1.746877580465245
2025-03-27 16:21:58.272,0.6867417823485452
2025-03-27 16:21:58.272,1.9918351952859137
2025-03-27 16:21:58.272,2.974761840333359
2025-03-27 16:21:58.272,3.367402054525253
2025-03-27 16:21:58.273,0.8355773242224435
2025-03-27 16:21:58.280,-4.511304630782166
2025-03-27 16:21:58.281,-7.468917344308884
2025-03-27 16:21:58.281,-3.3884175558275738
2025-03-27 16:21:58.281,4.796023271668868
2025-03-27 16:21:58.281,8.982242672198932
2025-03-27 16:21:58.290,5.178769566699442
2025-03-27 16:21:58.290,-2.5633127981916974
2025-03-27 16:21:58.290,-7.315021361717224
2025-03-27 16:21:58.291,-5.816442514646734
2025-03-27 16:21:58.300,-0.18363440458176195
2025-03-27 16:21:58.300,4.484481296209802
2025-03-27 16:21:58.300,4.325747209209331
2025-03-27 16:21:58.300,0.37511146307414894
2025-03-27 16:21:58.301,-2.3997496141666024
2025-03-27 16:21:58.310,-1.0316422138622967
2025-03-27 16:21:58.310,1.7213805151135555
2025-03-27 16:21:58.310,1.3750783946006044
2025-03-27 16:21:58.310,-1.9090716849875218
2025-03-27 16:21:58.311,-3.537249742327018
2025-03-27 16:21:58.320,-0.826260907564456
2025-03-27 16:21:58.320,3.2594768350090098
2025-03-27 16:21:58.320,3.7562682312940616
2025-03-27 16:21:58.320,-0.0508074556621049
2025-03-27 16:21:58.321,-3.5679892335675194
2025-03-27 16:21:58.330,-2.4899716317661875
2025-03-27 16:21:58.330,1.6777013079954939
2025-03-27 16:21:58.330,3.36095484437739
2025-03-27 16:21:58.330,0.18001883603902866
2025-03-27 16:21:58.331,-3.7136007642014923
2025-03-27 16:21:58.340,-2.972245561755637
2025-03-27 16:21:58.340,1.9657293135430265
2025-03-27 16:21:58.340,5.473468991553724
2025-03-27 16:21:58.340,3.566075460283164
2025-03-27 16:21:58.340,-2.0443592045095893
2025-03-27 16:21:58.350,-6.4341857760594925
2025-03-27 16:21:58.350,-6.005393349009823
2025-03-27 16:21:58.350,-0.7100087828518069
2025-03-27 16:21:58.350,5.986830147600556
2025-03-27 16:21:58.351,8.845397201402324
2025-03-27 16:21:58.358,4.7320258500555346
2025-03-27 16:21:58.358,-3.6903769014940893
2025-03-27 16:21:58.359,-9.264739053253232
2025-03-27 16:21:58.359,-7.027060242858153
2025-03-27 16:21:58.368,0.547463833459136
2025-03-27 16:21:58.368,6.160482601414722
2025-03-27 16:21:58.369,5.528628117578714
2025-03-27 16:21:58.369,1.2966410904428562
2025-03-27 16:21:58.369,-1.3083756882489375
2025-03-27 16:21:58.378,-1.0374017395384707
2025-03-27 16:21:58.378,-0.8839180342149419
2025-03-27 16:21:58.378,-2.485539098363889
2025-03-27 16:21:58.379,-3.271729535240248
2025-03-27 16:21:58.379,-0.6099278035090653
2025-03-27 16:21:58.388,3.494335275869655
2025-03-27 16:21:58.388,4.531407573500733
2025-03-27 16:21:58.388,1.4918275357164767
2025-03-27 16:21:58.388,-1.964324543626088
2025-03-27 16:21:58.389,-2.5170371557571882
2025-03-27 16:21:58.398,-1.0196775079411862
2025-03-27 16:21:58.398,-0.3339821692788988
2025-03-27 16:21:58.398,-0.9553380383771484
2025-03-27 16:21:58.399,-0.5356682383673268
2025-03-27 16:21:58.399,2.2036421316008687
2025-03-27 16:21:58.408,4.455302404859494
2025-03-27 16:21:58.408,2.0524543288812196
2025-03-27 16:21:58.408,-4.211655355101128
2025-03-27 16:21:58.408,-7.291868068285605
2025-03-27 16:21:58.409,-1.9499935257498138
2025-03-27 16:21:58.418,6.866018037099222
2025-03-27 16:21:58.418,8.283130634445453
2025-03-27 16:21:58.418,-0.46418154301364395
2025-03-27 16:21:58.418,-8.946119701853926
2025-03-27 16:21:58.419,-6.359423228117748
2025-03-27 16:21:58.428,3.961000883498516
2025-03-27 16:21:58.428,8.672797887114239
2025-03-27 16:21:58.428,2.1530858677180023
2025-03-27 16:21:58.428,-6.423667083917858
2025-03-27 16:21:58.429,-5.9362542125150295
2025-03-27 16:21:58.438,2.1433768601891896
2025-03-27 16:21:58.438,6.846712275194973
2025-03-27 16:21:58.438,2.663699280203317
2025-03-27 16:21:58.438,-4.313960137504318
2025-03-27 16:21:58.438,-5.607182810904742
2025-03-27 16:21:58.448,-0.8562567597195264
2025-03-27 16:21:58.448,3.5529311610607155
2025-03-27 16:21:58.448,3.4282350761309557
2025-03-27 16:21:58.448,0.6562477252987905
2025-03-27 16:21:58.448,-1.0932539155630772
2025-03-27 16:21:58.456,-1.0750669736211358
2025-03-27 16:21:58.456,-0.7860487251841655
2025-03-27 16:21:58.457,-0.8181132584109732
2025-03-27 16:21:58.457,-0.39545586173018865
2025-03-27 16:21:58.466,0.6036934970404282
2025-03-27 16:21:58.466,0.9911355524359612
2025-03-27 16:21:58.467,0.11903687280368047
2025-03-27 16:21:58.467,-0.7613051620738598
2025-03-27 16:21:58.467,-0.07225250362907742
2025-03-27 16:21:58.467,1.5605179077978308
2025-03-27 16:21:58.476,1.6998515539368027
2025-03-27 16:21:58.477,-0.5858344934599884
2025-03-27 16:21:58.477,-3.0063554305067925
2025-03-27 16:21:58.477,-2.6888395934943046
2025-03-27 16:21:58.486,0.19179777640706963
2025-03-27 16:21:58.486,2.7106452747486656
2025-03-27 16:21:58.487,2.8211285756183946
2025-03-27 16:21:58.487,1.217107877310906
2025-03-27 16:21:58.487,-0.5721602499603677
2025-03-27 16:21:58.487,-2.155822505615592
2025-03-27 16:21:58.496,-3.2489478239799143
2025-03-27 16:21:58.496,-2.295126925335146
2025-03-27 16:21:58.497,1.541904202803628
2025-03-27 16:21:58.497,5.408443882804409
2025-03-27 16:21:58.497,4.550911454054275
2025-03-27 16:21:58.506,-1.620426815461936
2025-03-27 16:21:58.506,-7.135272288335765
2025-03-27 16:21:58.507,-5.46115355155709
2025-03-27 16:21:58.507,2.4060266583363963
2025-03-27 16:21:58.516,8.088756046820759
2025-03-27 16:21:58.516,5.107681790456525
2025-03-27 16:21:58.516,-3.401996762472536
2025-03-27 16:21:58.516,-8.062929573086207
2025-03-27 16:21:58.517,-4.023917323103121
2025-03-27 16:21:58.526,3.7063853976641172
2025-03-27 16:21:58.526,6.6189062405091335
2025-03-27 16:21:58.526,2.645549058241774
2025-03-27 16:21:58.527,-2.5145407529779105
2025-03-27 16:21:58.527,-3.4464889215709062
2025-03-27 16:21:58.536,-1.2435911895355871
2025-03-27 16:21:58.536,-0.1574178227728112
2025-03-27 16:21:58.536,-0.7474119050720082
2025-03-27 16:21:58.537,0.08886748232888048
2025-03-27 16:21:58.537,3.0269074352041545
2025-03-27 16:21:58.546,4.286987874387134
2025-03-27 16:21:58.546,1.0147397117251455
2025-03-27 16:21:58.546,-4.158342583090398
2025-03-27 16:21:58.547,-5.99114201593066
2025-03-27 16:21:58.547,-2.586291440869435
2025-03-27 16:21:58.556,3.069539711457265
2025-03-27 16:21:58.556,6.315992869171099
2025-03-27 16:21:58.556,4.359368912899622
2025-03-27 16:21:58.556,-1.7989713648631038
2025-03-27 16:21:58.556,-7.095882881898157
2025-03-27 16:21:58.566,-5.594287060265699
2025-03-27 16:21:58.566,2.9505179576130196
2025-03-27 16:21:58.566,10.096213241125238
2025-03-27 16:21:58.566,6.308753302432215
2025-03-27 16:21:58.567,-6.694146581307968
2025-03-27 16:21:58.574,-14.878075304016381
2025-03-27 16:21:58.574,-7.1602735785892495
2025-03-27 16:21:58.575,10.044334456704897
2025-03-27 16:21:58.575,18.45021535470642
2025-03-27 16:21:58.584,8.553907179705083
2025-03-27 16:21:58.584,-9.61869927451431
2025-03-27 16:21:58.584,-18.153623831105648
2025-03-27 16:21:58.584,-10.199384137781996
2025-03-27 16:21:58.585,5.145984806604094
2025-03-27 16:21:58.592,14.119400064431868
2025-03-27 16:21:58.592,11.026368340206782
2025-03-27 16:21:58.593,0.7499307207506686
2025-03-27 16:21:58.593,-7.903144436222904
2025-03-27 16:21:58.602,-9.852762557506086
2025-03-27 16:21:58.602,-5.933278195366414
2025-03-27 16:21:58.603,0.4014799094819392
2025-03-27 16:21:58.603,6.459976635936232
2025-03-27 16:21:58.603,9.879752790616083
2025-03-27 16:21:58.603,7.470916968892348
2025-03-27 16:21:58.612,-1.7054304825844318
2025-03-27 16:21:58.612,-11.90263920241126
2025-03-27 16:21:58.612,-13.43828382966145
2025-03-27 16:21:58.613,-2.9914392728951116
2025-03-27 16:21:58.620,10.677307922857171
2025-03-27 16:21:58.621,14.794055607879276
2025-03-27 16:21:58.621,6.184858457160323
2025-03-27 16:21:58.621,-5.971240867266145
2025-03-27 16:21:58.630,-10.984431484630122
2025-03-27 16:21:58.630,-7.0394792740651875
2025-03-27 16:21:58.631,0.030097881074499733
2025-03-27 16:21:58.631,4.645879122018604
2025-03-27 16:21:58.631,5.42589779590538
2025-03-27 16:21:58.631,3.5279434852659333
2025-03-27 16:21:58.640,0.5859959612637057
2025-03-27 16:21:58.640,-1.8338393985603645
2025-03-27 16:21:58.640,-2.8666783848432256
2025-03-27 16:21:58.641,-2.7617341092838523
2025-03-27 16:21:58.650,-1.942148496775772
2025-03-27 16:21:58.650,-0.27505786444575553
2025-03-27 16:21:58.651,1.953954566304072
2025-03-27 16:21:58.651,3.2861517527116755
2025-03-27 16:21:58.651,2.4781627669795716
2025-03-27 16:21:58.660,0.20213279519450683
2025-03-27 16:21:58.660,-1.5573492602977816
2025-03-27 16:21:58.660,-1.6763074371493507
2025-03-27 16:21:58.661,-0.936639451068435
2025-03-27 16:21:58.661,-0.8782086959502764
2025-03-27 16:21:58.670,-1.7285150302770518
2025-03-27 16:21:58.670,-1.629512901949617
2025-03-27 16:21:58.670,1.3526133285646735
2025-03-27 16:21:58.671,5.805635776886108
2025-03-27 16:21:58.671,6.611354670814988
2025-03-27 16:21:58.678,0.30143283930662845
2025-03-27 16:21:58.679,-8.83867335362456
2025-03-27 16:21:58.679,-10.986893962731862
2025-03-27 16:21:58.679,-1.8556070205256963
2025-03-27 16:21:58.679,10.129246968648493
2025-03-27 16:21:58.688,11.826608454862448
2025-03-27 16:21:58.688,1.0199852263533171
2025-03-27 16:21:58.688,-9.961187519359179
2025-03-27 16:21:58.689,-8.628334825431239
2025-03-27 16:21:58.698,2.6200360885412444
2025-03-27 16:21:58.698,9.674336183011773
2025-03-27 16:21:58.698,4.020625941589934
2025-03-27 16:21:58.698,-7.31157598318871
2025-03-27 16:21:58.698,-10.660704139559899
2025-03-27 16:21:58.706,-1.7605912044415586
2025-03-27 16:21:58.706,10.031889856919388
2025-03-27 16:21:58.707,12.622284600378613
2025-03-27 16:21:58.707,3.5426871047757147
2025-03-27 16:21:58.716,-8.743279589222881
2025-03-27 16:21:58.716,-13.549381180972004
2025-03-27 16:21:58.716,-7.197338418796498
2025-03-27 16:21:58.716,4.479334379148414
2025-03-27 16:21:58.716,11.478544239231528
2025-03-27 16:21:58.726,8.530503737075549
2025-03-27 16:21:58.726,-0.2795571550905455
2025-03-27 16:21:58.726,-6.311791537981119
2025-03-27 16:21:58.726,-5.711777516915527
2025-03-27 16:21:58.727,-2.1532192171599087
2025-03-27 16:21:58.736,-0.07636804735321842
2025-03-27 16:21:58.736,1.2186998962547717
2025-03-27 16:21:58.736,3.925373488767846
2025-03-27 16:21:58.736,5.405077034226955
2025-03-27 16:21:58.737,1.1385329650827751
2025-03-27 16:21:58.746,-6.408479313871666
2025-03-27 16:21:58.746,-8.175292101593763
2025-03-27 16:21:58.746,-0.45920456484038735
2025-03-27 16:21:58.746,8.418906129538849
2025-03-27 16:21:58.747,7.909771667908791
2025-03-27 16:21:58.754,-1.122733898041822
2025-03-27 16:21:58.755,-7.717956265554758
2025-03-27 16:21:58.755,-5.051158166314288
2025-03-27 16:21:58.755,1.8283176288093688
2025-03-27 16:21:58.755,4.102046433419125
2025-03-27 16:21:58.764,0.7911291020925146
2025-03-27 16:21:58.764,-1.6659878037875369
2025-03-27 16:21:58.765,0.3863344188231565
2025-03-27 16:21:58.765,3.0121680232361734
2025-03-27 16:21:58.765,1.3230226986893119
2025-03-27 16:21:58.774,-3.0844642323149483
2025-03-27 16:21:58.774,-4.630728985472621
2025-03-27 16:21:58.775,-1.6124723540220813
2025-03-27 16:21:58.775,2.254051523113381
2025-03-27 16:21:58.784,3.60853654398144
2025-03-27 16:21:58.784,3.0022875683321395
2025-03-27 16:21:58.784,1.8955273719572507
2025-03-27 16:21:58.785,-0.450316849765656
2025-03-27 16:21:58.785,-4.611342905533343
2025-03-27 16:21:58.794,-7.432843411555045
2025-03-27 16:21:58.794,-4.253321460499206
2025-03-27 16:21:58.794,4.585741109270576
2025-03-27 16:21:58.795,11.70407214226426
2025-03-27 16:21:58.795,9.368413293327016
2025-03-27 16:21:58.802,-1.7910925894466754
2025-03-27 16:21:58.803,-12.246491033326778
2025-03-27 16:21:58.803,-12.633550216035959
2025-03-27 16:21:58.803,-2.89498118170713
2025-03-27 16:21:58.803,8.131386995634635
2025-03-27 16:21:58.812,11.660939523078685
2025-03-27 16:21:58.812,6.612143551029688
2025-03-27 16:21:58.812,-1.241717863802658
2025-03-27 16:21:58.813,-6.014636957883288
2025-03-27 16:21:58.822,-6.403918423084437
2025-03-27 16:21:58.822,-4.42969695121377
2025-03-27 16:21:58.822,-1.6146434359844013
2025-03-27 16:21:58.823,2.035414313062558
2025-03-27 16:21:58.823,5.727047873450785
2025-03-27 16:21:58.832,6.70811688221616
2025-03-27 16:21:58.832,3.066510195333763
2025-03-27 16:21:58.832,-2.930900454870919
2025-03-27 16:21:58.833,-6.261070429154958
2025-03-27 16:21:58.833,-4.498504713708325
2025-03-27 16:21:58.842,-0.42895899860573705
2025-03-27 16:21:58.842,1.5636608447899931
2025-03-27 16:21:58.842,0.7534772482912768
2025-03-27 16:21:58.843,0.41218516572514685
2025-03-27 16:21:58.843,2.9392602017185285
2025-03-27 16:21:58.852,5.8211955510665065
2025-03-27 16:21:58.852,3.8207482650350157
2025-03-27 16:21:58.852,-4.1135229116103025
2025-03-27 16:21:58.852,-11.25461494909139
2025-03-27 16:21:58.853,-9.004059526813798
2025-03-27 16:21:58.860,2.5964330437602845
2025-03-27 16:21:58.860,12.706105835975185
2025-03-27 16:21:58.861,10.809457192447137
2025-03-27 16:21:58.861,-0.9991606324940224
2025-03-27 16:21:58.861,-10.05655153169397
2025-03-27 16:21:58.870,-7.746122473730591
2025-03-27 16:21:58.871,1.1598169449951787
2025-03-27 16:21:58.871,5.578413550564984
2025-03-27 16:21:58.871,1.9056347531602627
2025-03-27 16:21:58.871,-2.928631638354101
2025-03-27 16:21:58.880,-1.8200627087517045
2025-03-27 16:21:58.880,3.2137947459648872
2025-03-27 16:21:58.881,4.601385037548321
2025-03-27 16:21:58.881,-0.2210689860790473
2025-03-27 16:21:58.890,-5.549732587597166
2025-03-27 16:21:58.890,-4.888133310593111
2025-03-27 16:21:58.891,1.1675218433545669
2025-03-27 16:21:58.891,5.938955376583406
2025-03-27 16:21:58.891,4.304866874046039
2025-03-27 16:21:58.900,-1.9288326125040092
2025-03-27 16:21:58.900,-6.1793895859111405
2025-03-27 16:21:58.901,-4.119320521227042
2025-03-27 16:21:58.901,1.9067220195027619
2025-03-27 16:21:58.901,5.8920198230905765
2025-03-27 16:21:58.910,4.8035190985033855
2025-03-27 16:21:58.910,0.6810462049360866
2025-03-27 16:21:58.910,-3.2350211544275647
2025-03-27 16:21:58.910,-5.573627335988862
2025-03-27 16:21:58.911,-5.468131282008297
2025-03-27 16:21:58.920,-1.602657455607553
2025-03-27 16:21:58.920,4.864231333801367
2025-03-27 16:21:58.920,8.715940012171734
2025-03-27 16:21:58.921,5.509834345975471
2025-03-27 16:21:58.921,-2.3440703848854314
2025-03-27 16:21:58.930,-7.286111495027372
2025-03-27 16:21:58.930,-5.17100831269315
2025-03-27 16:21:58.930,0.1603404523650811
2025-03-27 16:21:58.930,2.3595332506438873
2025-03-27 16:21:58.931,0.648315184563844
2025-03-27 16:21:58.940,-0.3658112532582029
2025-03-27 16:21:58.940,1.7823692966357396
2025-03-27 16:21:58.940,3.7848890000982083
2025-03-27 16:21:58.940,1.9395312502621187
2025-03-27 16:21:58.941,-1.9506217428020691
2025-03-27 16:21:58.950,-3.302156702551617
2025-03-27 16:21:58.950,-1.7611892234534636
2025-03-27 16:21:58.950,-1.249504084409064
2025-03-27 16:21:58.950,-2.739290516246693
2025-03-27 16:21:58.951,-1.66094298342867
2025-03-27 16:21:58.958,4.554062148831356
2025-03-27 16:21:58.959,9.878050144579236
2025-03-27 16:21:58.959,5.975215011645919
2025-03-27 16:21:58.959,-5.439435479956406
2025-03-27 16:21:58.968,-12.324839744000366
2025-03-27 16:21:58.968,-6.945554269406559
2025-03-27 16:21:58.969,3.8868074256473255
2025-03-27 16:21:58.969,7.848127841245484
2025-03-27 16:21:58.969,3.1377361037821476
2025-03-27 16:21:58.978,-1.1200954455889678
2025-03-27 16:21:58.978,0.41163250543748875
2025-03-27 16:21:58.979,2.1936271771157623
2025-03-27 16:21:58.979,-1.69356785150887
2025-03-27 16:21:58.979,-6.946911381825057
2025-03-27 16:21:58.988,-5.076468571050963
2025-03-27 16:21:58.988,3.4938506902984416
2025-03-27 16:21:58.988,9.019623060412115
2025-03-27 16:21:58.989,4.9461034963974
2025-03-27 16:21:58.989,-4.073587017173344
2025-03-27 16:21:58.998,-8.121011800667393
2025-03-27 16:21:58.998,-3.3293464356642186
2025-03-27 16:21:58.998,4.440180003001657
2025-03-27 16:21:58.999,6.566078399043963
2025-03-27 16:21:58.999,1.2122383140593793
2025-03-27 16:21:59.008,-4.955246125649192
2025-03-27 16:21:59.008,-4.846930237638083
2025-03-27 16:21:59.009,0.7306382127886658
2025-03-27 16:21:59.009,4.701597701015631
2025-03-27 16:21:59.009,2.788773215002453
2025-03-27 16:21:59.018,-1.9101524197271498
2025-03-27 16:21:59.018,-3.807756739998725
2025-03-27 16:21:59.018,-1.4295841151954054
2025-03-27 16:21:59.019,2.319312784678786
2025-03-27 16:21:59.019,4.156039323093353
2025-03-27 16:21:59.028,2.628229679414007
2025-03-27 16:21:59.028,-1.85138351667954
2025-03-27 16:21:59.028,-6.505410379521842
2025-03-27 16:21:59.029,-6.714888642466614
2025-03-27 16:21:59.029,-0.1994671298391723
2025-03-27 16:21:59.036,8.720244823772637
2025-03-27 16:21:59.036,11.508957984312007
2025-03-27 16:21:59.037,3.973234562344812
2025-03-27 16:21:59.037,-8.210328025283422
2025-03-27 16:21:59.046,-14.094143347422634
2025-03-27 16:21:59.046,-8.070641883856858
2025-03-27 16:21:59.046,4.58185567427535
2025-03-27 16:21:59.047,12.893723809142141
2025-03-27 16:21:59.047,10.476338774443326
2025-03-27 16:21:59.056,0.5650587985438605
2025-03-27 16:21:59.056,-8.187894298881815
2025-03-27 16:21:59.056,-9.79700297358709
2025-03-27 16:21:59.056,-4.932072770309107
2025-03-27 16:21:59.057,1.6191501567051945
2025-03-27 16:21:59.066,5.8313081689818365
2025-03-27 16:21:59.066,6.5716735975157725
2025-03-27 16:21:59.066,4.365004923112683
2025-03-27 16:21:59.066,0.02318031695415492
2025-03-27 16:21:59.067,-4.857265037452837
2025-03-27 16:21:59.076,-7.3764870995355665
2025-03-27 16:21:59.076,-5.15189054593051
2025-03-27 16:21:59.076,0.8871071812494802
2025-03-27 16:21:59.076,6.419507458026018
2025-03-27 16:21:59.077,7.257506692685473
2025-03-27 16:21:59.086,3.0469100062940355
2025-03-27 16:21:59.086,-2.6394552645751186
2025-03-27 16:21:59.086,-5.717329753973694
2025-03-27 16:21:59.086,-4.8323961270819185
2025-03-27 16:21:59.087,-1.4588631176080553
2025-03-27 16:21:59.096,2.131032378280146
2025-03-27 16:21:59.096,4.131808370900339
2025-03-27 16:21:59.096,3.408840575396491
2025-03-27 16:21:59.096,0.3842604297444462
2025-03-27 16:21:59.097,-2.281186016040262
2025-03-27 16:21:59.106,-1.9812076013120563
2025-03-27 16:21:59.106,0.2704125427245438
2025-03-27 16:21:59.106,0.6952179571390857
2025-03-27 16:21:59.106,-1.788998548409046
2025-03-27 16:21:59.107,-3.3021379045843697
2025-03-27 16:21:59.116,-0.2328855652491716
2025-03-27 16:21:59.116,5.029541068540452
2025-03-27 16:21:59.116,6.35458738724032
2025-03-27 16:21:59.116,1.375102812859344
2025-03-27 16:21:59.117,-5.561543246889925
2025-03-27 16:21:59.126,-8.057449825388746
2025-03-27 16:21:59.126,-3.7732780542705964
2025-03-27 16:21:59.126,3.8769889041848926
2025-03-27 16:21:59.126,8.583389981819034
2025-03-27 16:21:59.127,6.059165813364926
2025-03-27 16:21:59.136,-1.9194266367902122
2025-03-27 16:21:59.136,-8.201712474499422
2025-03-27 16:21:59.136,-6.824218538709729
2025-03-27 16:21:59.136,0.5634741303875278
2025-03-27 16:21:59.137,6.352730210603494
2025-03-27 16:21:59.144,5.51912769746336
2025-03-27 16:21:59.144,0.6382722128975256
2025-03-27 16:21:59.145,-2.6145574194373973
2025-03-27 16:21:59.145,-2.6583625478792317
2025-03-27 16:21:59.154,-2.0951438133983427
2025-03-27 16:21:59.154,-1.9864930592196197
2025-03-27 16:21:59.154,-0.1192845367416965
2025-03-27 16:21:59.155,3.8812227491315014
2025-03-27 16:21:59.155,5.476186359221
2025-03-27 16:21:59.164,0.8681041831636592
2025-03-27 16:21:59.164,-5.981475284045844
2025-03-27 16:21:59.165,-6.639874975734077
2025-03-27 16:21:59.165,0.7220967183008988
2025-03-27 16:21:59.165,7.718242185601648
2025-03-27 16:21:59.174,5.84459799798196
2025-03-27 16:21:59.174,-2.6932642998212537
2025-03-27 16:21:59.174,-7.897379092465986
2025-03-27 16:21:59.175,-4.399008327996126
2025-03-27 16:21:59.175,2.942911073943023
2025-03-27 16:21:59.184,6.109808599082284
2025-03-27 16:21:59.184,3.128244907222957
2025-03-27 16:21:59.184,-1.4263006390336967
2025-03-27 16:21:59.184,-2.9443021108615963
2025-03-27 16:21:59.185,-1.5027085411511294
2025-03-27 16:21:59.194,-0.33473836404574886
2025-03-27 16:21:59.194,-1.0197258218575536
2025-03-27 16:21:59.194,-1.3245862215464308
2025-03-27 16:21:59.195,1.390517068662422
2025-03-27 16:21:59.195,5.215514837711
2025-03-27 16:21:59.204,4.670640642474835
2025-03-27 16:21:59.204,-1.8914132289686114
2025-03-27 16:21:59.204,-8.223395677144515
2025-03-27 16:21:59.204,-6.690508824092063
2025-03-27 16:21:59.205,1.935473713208245
2025-03-27 16:21:59.212,8.554823444512396
2025-03-27 16:21:59.213,6.305833520682016
2025-03-27 16:21:59.213,-1.6268754868259958
2025-03-27 16:21:59.213,-6.38406014230378
2025-03-27 16:21:59.213,-3.845429090839315
2025-03-27 16:21:59.222,1.627510849821657
2025-03-27 16:21:59.223,3.4513637940690676
2025-03-27 16:21:59.223,0.5261444886276438
2025-03-27 16:21:59.223,-2.4333539159361326
2025-03-27 16:21:59.223,-1.242605403208129
2025-03-27 16:21:59.232,2.6006837695565403
2025-03-27 16:21:59.232,3.7523416198109425
2025-03-27 16:21:59.233,-0.27260542091152107
2025-03-27 16:21:59.233,-5.3245259599301615
2025-03-27 16:21:59.242,-4.934599167525
2025-03-27 16:21:59.242,1.5856057048902217
2025-03-27 16:21:59.243,7.3248350404398925
2025-03-27 16:21:59.243,5.524256474528128
2025-03-27 16:21:59.243,-2.1792133302815473
2025-03-27 16:21:59.252,-7.486745373725374
2025-03-27 16:21:59.252,-5.082750319284264
2025-03-27 16:21:59.253,1.7200036482824181
2025-03-27 16:21:59.253,5.521510261826316
2025-03-27 16:21:59.253,3.1703233153446635
2025-03-27 16:21:59.262,-1.6575187848928579
2025-03-27 16:21:59.262,-3.3116038575624813
2025-03-27 16:21:59.263,-0.3718653226616908
2025-03-27 16:21:59.263,3.187518488726149
2025-03-27 16:21:59.263,2.790559961743966
2025-03-27 16:21:59.272,-1.273154867165147
2025-03-27 16:21:59.272,-4.237443425500354
2025-03-27 16:21:59.273,-2.990401678145333
2025-03-27 16:21:59.273,0.08750695815180487
2025-03-27 16:21:59.273,1.1613556176159274
2025-03-27 16:21:59.282,0.9286352510275739
2025-03-27 16:21:59.282,2.928968436134376
2025-03-27 16:21:59.283,6.2121176174033135
2025-03-27 16:21:59.283,4.505567613559748
2025-03-27 16:21:59.283,-4.616447286002498
2025-03-27 16:21:59.292,-13.213145625359648
2025-03-27 16:21:59.292,-10.508293355675582
2025-03-27 16:21:59.292,3.2559926776217574
2025-03-27 16:21:59.292,14.88628558794849
2025-03-27 16:21:59.293,12.492109592946559
2025-03-27 16:21:59.300,-0.7886601540122271
2025-03-27 16:21:59.300,-10.631008990574758
2025-03-27 16:21:59.301,-8.331302881485248
2025-03-27 16:21:59.301,0.2297357751553717
2025-03-27 16:21:59.310,3.903914318386667
2025-03-27 16:21:59.310,0.632790070150877
2025-03-27 16:21:59.311,-1.960923217544383
2025-03-27 16:21:59.311,1.1645155115564256
2025-03-27 16:21:59.311,5.458395105912603
2025-03-27 16:21:59.320,4.056205170959494
2025-03-27 16:21:59.320,-2.352830132099649
2025-03-27 16:21:59.320,-6.81890837175698
2025-03-27 16:21:59.321,-5.124735888929722
2025-03-27 16:21:59.321,0.2932542518000503
2025-03-27 16:21:59.330,4.510728685557498
2025-03-27 16:21:59.330,4.876723951403885
2025-03-27 16:21:59.330,1.8563537861503483
2025-03-27 16:21:59.330,-1.9132132814835447
2025-03-27 16:21:59.331,-3.117369576437741
2025-03-27 16:21:59.340,-0.7693369930430467
2025-03-27 16:21:59.340,1.8762531654157013
2025-03-27 16:21:59.340,0.672925603178604
2025-03-27 16:21:59.340,-3.6053215426471628
2025-03-27 16:21:59.341,-5.141355947714549
2025-03-27 16:21:59.350,-0.12682685465363341
2025-03-27 16:21:59.350,7.628419091472311
2025-03-27 16:21:59.350,9.9566285658711
2025-03-27 16:21:59.350,3.079568877977104
2025-03-27 16:21:59.351,-7.840353079444354
2025-03-27 16:21:59.358,-13.178295032024735
2025-03-27 16:21:59.359,-7.81595332531826
2025-03-27 16:21:59.359,4.066695792761312
2025-03-27 16:21:59.359,12.701799792979054
2025-03-27 16:21:59.368,11.257729340411212
2025-03-27 16:21:59.368,1.3909964075791144
2025-03-27 16:21:59.368,-8.773649308735417
2025-03-27 16:21:59.369,-11.764968810972226
2025-03-27 16:21:59.369,-6.283801250721455
2025-03-27 16:21:59.378,3.0679406156607456
2025-03-27 16:21:59.378,9.93003235003284
2025-03-27 16:21:59.378,9.86870333191044
2025-03-27 16:21:59.379,2.3859070264010573
2025-03-27 16:21:59.379,-7.861040963389216
2025-03-27 16:21:59.388,-12.471241815789671
2025-03-27 16:21:59.388,-5.89518300876928
2025-03-27 16:21:59.388,7.265731584074883
2025-03-27 16:21:59.388,14.268676499930717
2025-03-27 16:21:59.389,7.055058846331409
2025-03-27 16:21:59.397,-7.7105590050866075
2025-03-27 16:21:59.397,-14.782222911820496
2025-03-27 16:21:59.397,-6.9414296619154285
2025-03-27 16:21:59.397,7.278391815217315
2025-03-27 16:21:59.406,13.460880397596872
2025-03-27 16:21:59.406,6.613109976934621
2025-03-27 16:21:59.406,-5.028411824515277
2025-03-27 16:21:59.407,-10.071515745198084
2025-03-27 16:21:59.407,-5.594106316141504
2025-03-27 16:21:59.416,1.7760215178693801
2025-03-27 16:21:59.416,4.801513190577851
2025-03-27 16:21:59.416,3.160190084232118
2025-03-27 16:21:59.417,1.1549954709550805
2025-03-27 16:21:59.417,0.5909305831385574
2025-03-27 16:21:59.426,-0.5022449541185197
2025-03-27 16:21:59.426,-2.721634781260654
2025-03-27 16:21:59.426,-3.21439579801837
2025-03-27 16:21:59.427,-0.3643948101387986
2025-03-27 16:21:59.427,2.7649443450428866
2025-03-27 16:21:59.436,2.39694717712094
2025-03-27 16:21:59.436,-0.5684305616149283
2025-03-27 16:21:59.436,-2.0978859576818896
2025-03-27 16:21:59.436,-0.807685339114046
2025-03-27 16:21:59.437,0.9464959044133979
2025-03-27 16:21:59.446,1.3669512135322786
2025-03-27 16:21:59.446,1.2124663143575738
2025-03-27 16:21:59.446,0.9516986469921865
2025-03-27 16:21:59.447,-0.6493159394584811
2025-03-27 16:21:59.447,-3.378038721800677
2025-03-27 16:21:59.456,-3.9229403761841
2025-03-27 16:21:59.456,-0.10615262628725113
2025-03-27 16:21:59.456,4.922109896316352
2025-03-27 16:21:59.456,5.654514340183672
2025-03-27 16:21:59.457,0.9599310703072597
2025-03-27 16:21:59.464,-4.44483785155144
2025-03-27 16:21:59.465,-5.4063839039011095
2025-03-27 16:21:59.465,-1.6178031775264259
2025-03-27 16:21:59.465,2.8061089817597296
2025-03-27 16:21:59.465,3.8667873902936325
2025-03-27 16:21:59.474,1.3257564713823344
2025-03-27 16:21:59.475,-1.5895856137346875
2025-03-27 16:21:59.475,-1.8065643268379434
2025-03-27 16:21:59.475,0.21505674356344082
2025-03-27 16:21:59.475,1.2010869602368404
2025-03-27 16:21:59.484,-0.5021920724889806
2025-03-27 16:21:59.484,-2.340407334852934
2025-03-27 16:21:59.485,-0.8739089177139215
2025-03-27 16:21:59.485,2.973173252043223
2025-03-27 16:21:59.494,4.277957649249994
2025-03-27 16:21:59.494,0.39376660738242064
2025-03-27 16:21:59.494,-5.017447249644372
2025-03-27 16:21:59.495,-5.821097912038145
2025-03-27 16:21:59.495,-0.5795368144493067
2025-03-27 16:21:59.504,5.607203574386648
2025-03-27 16:21:59.504,6.60199022086353
2025-03-27 16:21:59.504,1.6456100680801051
2025-03-27 16:21:59.505,-4.233582146036921
2025-03-27 16:21:59.505,-5.741260411264137
2025-03-27 16:21:59.514,-2.472885459664562
2025-03-27 16:21:59.514,1.5883292866973364
2025-03-27 16:21:59.515,2.9416050344026696
2025-03-27 16:21:59.515,1.8969048871706322
2025-03-27 16:21:59.515,0.9017966819054034
2025-03-27 16:21:59.524,0.7601244757471212
2025-03-27 16:21:59.524,-0.016521292299345514
2025-03-27 16:21:59.525,-2.1205642326886434
2025-03-27 16:21:59.525,-3.4634173996586908
2025-03-27 16:21:59.525,-1.721066083856728
2025-03-27 16:21:59.534,1.8866108307673943
2025-03-27 16:21:59.534,3.4051604204332753
2025-03-27 16:21:59.535,1.2954340410028238
2025-03-27 16:21:59.535,-1.0996490258541605
2025-03-27 16:21:59.535,-0.0816769262773622
2025-03-27 16:21:59.544,2.503843360898528
2025-03-27 16:21:59.544,1.0784854733884137
2025-03-27 16:21:59.544,-5.029400473625262
2025-03-27 16:21:59.545,-8.244368029586264
2025-03-27 16:21:59.545,-1.8329895824019697
2025-03-27 16:21:59.553,9.233109321031128
2025-03-27 16:21:59.553,11.970431873138452
2025-03-27 16:21:59.553,1.5978327042673328
2025-03-27 16:21:59.553,-10.795009877213163
2025-03-27 16:21:59.553,-11.018464815698026
2025-03-27 16:21:59.562,0.6270058679776811
2025-03-27 16:21:59.562,10.025157439926138
2025-03-27 16:21:59.563,7.0424688991890445
2025-03-27 16:21:59.563,-3.060536407313835
2025-03-27 16:21:59.572,-8.043327155524116
2025-03-27 16:21:59.572,-3.7440751845823006
2025-03-27 16:21:59.573,3.344877340072766
2025-03-27 16:21:59.573,5.806851151142473
2025-03-27 16:21:59.573,2.7506348998878076
2025-03-27 16:21:59.582,-1.9001112623818928
2025-03-27 16:21:59.582,-4.256928645611454
2025-03-27 16:21:59.583,-2.785545087322465
2025-03-27 16:21:59.583,1.0800870114511396
2025-03-27 16:21:59.583,3.563298658173971
2025-03-27 16:21:59.592,2.0483686789475657
2025-03-27 16:21:59.592,-1.4603019880230073
2025-03-27 16:21:59.593,-2.606559478825671
2025-03-27 16:21:59.593,-0.5482433665946194
2025-03-27 16:21:59.593,1.3066398083201933
2025-03-27 16:21:59.602,0.8038533644357974
2025-03-27 16:21:59.602,-0.2061760125561569
2025-03-27 16:21:59.603,0.1229645582618549
2025-03-27 16:21:59.603,0.43920849205651125
2025-03-27 16:21:59.603,-0.6627087788112767
2025-03-27 16:21:59.612,-1.3187910848610562
2025-03-27 16:21:59.612,0.5338730733183739
2025-03-27 16:21:59.613,2.7231430378180774
2025-03-27 16:21:59.613,1.2653376773021585
2025-03-27 16:21:59.613,-3.2491891286216865
2025-03-27 16:21:59.622,-5.263383065236819
2025-03-27 16:21:59.622,-1.245343847173868
2025-03-27 16:21:59.623,5.332799651632447
2025-03-27 16:21:59.623,7.593553201425918
2025-03-27 16:21:59.623,2.7917402902615325
2025-03-27 16:21:59.632,-4.871078037220202
2025-03-27 16:21:59.632,-8.520016659793917
2025-03-27 16:21:59.633,-5.099687557469747
2025-03-27 16:21:59.633,2.0668925500163478
2025-03-27 16:21:59.633,6.774902705136907
2025-03-27 16:21:59.642,5.8739347853602695
2025-03-27 16:21:59.642,1.4771464332780346
2025-03-27 16:21:59.642,-2.458705572323787
2025-03-27 16:21:59.643,-4.242899966573262
2025-03-27 16:21:59.643,-4.2406551620960515
2025-03-27 16:21:59.652,-2.3808436079881097
2025-03-27 16:21:59.652,1.4776015736067554
2025-03-27 16:21:59.653,5.110841312216256
2025-03-27 16:21:59.653,4.954828805312417
2025-03-27 16:21:59.653,0.7188912709792653
2025-03-27 16:21:59.662,-3.378830521006192
2025-03-27 16:21:59.662,-3.7029734472943283
2025-03-27 16:21:59.662,-1.5905192487973339
2025-03-27 16:21:59.663,-0.4662169113580804
2025-03-27 16:21:59.663,-0.36220978366352097
2025-03-27 16:21:59.672,1.3513321444288813
2025-03-27 16:21:59.672,4.353513765833192
2025-03-27 16:21:59.672,4.4132045684163534
2025-03-27 16:21:59.673,-0.5266505451332457
2025-03-27 16:21:59.673,-6.149620769483153
2025-03-27 16:21:59.682,-6.250216720629735
2025-03-27 16:21:59.682,-0.39595945957753137
2025-03-27 16:21:59.682,5.316579437336942
2025-03-27 16:21:59.683,5.419500146607941
2025-03-27 16:21:59.683,1.075966695632344
2025-03-27 16:21:59.690,-2.334473123417193
2025-03-27 16:21:59.691,-2.3546933774440415
2025-03-27 16:21:59.691,-1.6251148545144427
2025-03-27 16:21:59.691,-2.458060634971923
2025-03-27 16:21:59.700,-2.283538543346782
2025-03-27 16:21:59.700,2.30271546972037
2025-03-27 16:21:59.701,8.21899856265095
2025-03-27 16:21:59.701,7.351810261038972
2025-03-27 16:21:59.701,-2.687148145297966
2025-03-27 16:21:59.710,-12.74274921725255
2025-03-27 16:21:59.710,-11.157093759470454
2025-03-27 16:21:59.710,2.026847750514415
2025-03-27 16:21:59.711,13.731167215901053
2025-03-27 16:21:59.711,12.116378015226706
2025-03-27 16:21:59.718,-0.36208460283683097
2025-03-27 16:21:59.719,-10.5362745786107
2025-03-27 16:21:59.719,-9.671272000276504
2025-03-27 16:21:59.719,-1.6307046941153542
2025-03-27 16:21:59.728,4.317969873729717
2025-03-27 16:21:59.728,4.808815083738928
2025-03-27 16:21:59.729,3.348963669789463
2025-03-27 16:21:59.729,2.4902866892962416
2025-03-27 16:21:59.729,0.3277786060500556
2025-03-27 16:21:59.738,-4.174390697333027
2025-03-27 16:21:59.738,-6.9494703568980105
2025-03-27 16:21:59.739,-3.6061603658241315
2025-03-27 16:21:59.739,3.55945761761027
2025-03-27 16:21:59.739,7.288219664893828
2025-03-27 16:21:59.748,4.062170077590989
2025-03-27 16:21:59.748,-1.9813060851352229
2025-03-27 16:21:59.748,-4.535708135663314
2025-03-27 16:21:59.749,-2.1444830064336093
2025-03-27 16:21:59.749,1.3790767844618754
2025-03-27 16:21:59.758,1.9072153306259052
2025-03-27 16:21:59.758,-0.8499878070667808
2025-03-27 16:21:59.758,-3.387531969880159
2025-03-27 16:21:59.759,-2.003853937121739
2025-03-27 16:21:59.759,3.044209546666158
2025-03-27 16:21:59.768,6.925136170047537
2025-03-27 16:21:59.768,4.822516593124011
2025-03-27 16:21:59.768,-2.5001656915260355
2025-03-27 16:21:59.768,-8.709509813975727
2025-03-27 16:21:59.769,-8.091481187010592
2025-03-27 16:21:59.778,-1.1159512273693637
2025-03-27 16:21:59.778,6.4785451627184125
2025-03-27 16:21:59.778,9.152920030387316
2025-03-27 16:21:59.779,5.55868934699324
2025-03-27 16:21:59.779,-1.4633047775904022
2025-03-27 16:21:59.786,-7.123235350083689
2025-03-27 16:21:59.786,-7.535733459665311
2025-03-27 16:21:59.787,-2.52176975307951
2025-03-27 16:21:59.787,3.672973641762063
2025-03-27 16:21:59.787,5.717761472610769
2025-03-27 16:21:59.797,2.396220742121669
2025-03-27 16:21:59.797,-1.9025965488591994
2025-03-27 16:21:59.797,-1.944807833801684
2025-03-27 16:21:59.797,1.9811099208670453
2025-03-27 16:21:59.797,3.8517197803578846
2025-03-27 16:21:59.806,-0.6458972755907156
2025-03-27 16:21:59.807,-7.574877804404282
2025-03-27 16:21:59.807,-8.312533042214465
2025-03-27 16:21:59.807,-0.0497149443988697
2025-03-27 16:21:59.816,9.876266244319034
2025-03-27 16:21:59.816,11.704904036235394
2025-03-27 16:21:59.816,3.6606668540559655
2025-03-27 16:21:59.816,-6.904591051310599
2025-03-27 16:21:59.817,-11.411141202255703
2025-03-27 16:21:59.826,-7.339095901579585
2025-03-27 16:21:59.826,1.2455335361739714
2025-03-27 16:21:59.826,7.92610907138051
2025-03-27 16:21:59.827,8.432513027607934
2025-03-27 16:21:59.827,3.0677824548030403
2025-03-27 16:21:59.836,-3.7449633860900575
2025-03-27 16:21:59.836,-6.828459548086271
2025-03-27 16:21:59.836,-4.4225303893830485
2025-03-27 16:21:59.837,0.5818958829613041
2025-03-27 16:21:59.837,3.7898209789710875
2025-03-27 16:21:59.846,3.5255292679661467
2025-03-27 16:21:59.846,1.522954042403499
2025-03-27 16:21:59.846,-0.11267024575791651
2025-03-27 16:21:59.847,-1.2831667664195434
2025-03-27 16:21:59.847,-2.690652121325382
2025-03-27 16:21:59.856,-3.4712933879665733
2025-03-27 16:21:59.856,-1.7048141605432614
2025-03-27 16:21:59.856,2.484627038605085
2025-03-27 16:21:59.856,5.669636919180404
2025-03-27 16:21:59.857,4.284477164857546
2025-03-27 16:21:59.864,-1.0132422272336972
2025-03-27 16:21:59.865,-5.360918139222702
2025-03-27 16:21:59.865,-4.822824576819188
2025-03-27 16:21:59.865,-0.7008274732756206
2025-03-27 16:21:59.865,2.4568405314692576
2025-03-27 16:21:59.876,2.5550469080748934
2025-03-27 16:21:59.876,1.6825893095997513
2025-03-27 16:21:59.876,1.8641001732188536
2025-03-27 16:21:59.877,1.583030744301571
2025-03-27 16:21:59.877,-1.436038825486002
2025-03-27 16:21:59.886,-5.434311777162791
2025-03-27 16:21:59.886,-5.570996299724005
2025-03-27 16:21:59.886,-0.16110911518651477
2025-03-27 16:21:59.887,6.200948461747216
2025-03-27 16:21:59.887,7.332510240562172
2025-03-27 16:21:59.894,2.4423943446202916
2025-03-27 16:21:59.895,-3.3238645945709244
2025-03-27 16:21:59.895,-5.35967018892142
2025-03-27 16:21:59.895,-4.363295726120551
2025-03-27 16:21:59.904,-3.0117749842851547
2025-03-27 16:21:59.904,-0.37213106047009187
2025-03-27 16:21:59.905,5.814083392893556
2025-03-27 16:21:59.905,11.571076047942636
2025-03-27 16:21:59.905,7.84637845210093
2025-03-27 16:21:59.914,-6.793646443093337
2025-03-27 16:21:59.914,-19.25731278381288
2025-03-27 16:21:59.914,-14.444420716683751
2025-03-27 16:21:59.915,5.869886410349592
2025-03-27 16:21:59.915,22.414458521963166
2025-03-27 16:21:59.922,18.640285320692758
2025-03-27 16:21:59.922,-1.798546549990101
2025-03-27 16:21:59.923,-19.73154607456042
2025-03-27 16:21:59.923,-20.051639594486417
2025-03-27 16:21:59.932,-4.407511392639801
2025-03-27 16:21:59.932,13.119693958211089
2025-03-27 16:21:59.932,19.091766823910525
2025-03-27 16:21:59.933,10.162393254660673
2025-03-27 16:21:59.933,-5.906107809576335
2025-03-27 16:21:59.940,-16.4172978566143
2025-03-27 16:21:59.941,-13.398343999809768
2025-03-27 16:21:59.941,-0.0341571440466939
2025-03-27 16:21:59.941,12.284832377876752
2025-03-27 16:21:59.950,14.048332650875395
2025-03-27 16:21:59.950,5.065800060080932
2025-03-27 16:21:59.950,-6.871942597391696
2025-03-27 16:21:59.951,-12.893776606233889
2025-03-27 16:21:59.951,-9.16204191609497
2025-03-27 16:21:59.958,0.9930680150921549
2025-03-27 16:21:59.959,9.617065143518598
2025-03-27 16:21:59.959,10.312898563677848
2025-03-27 16:21:59.959,3.5348465450683153
2025-03-27 16:21:59.959,-4.29989983838588
2025-03-27 16:21:59.968,-7.214616293880137
2025-03-27 16:21:59.969,-4.700452945209152
2025-03-27 16:21:59.969,-0.5134820346887217
2025-03-27 16:21:59.969,2.0513740637943254
2025-03-27 16:21:59.978,2.561594219922594
2025-03-27 16:21:59.978,2.020506197132547
2025-03-27 16:21:59.979,1.0415559933031837
2025-03-27 16:21:59.979,0.06758551888033983
2025-03-27 16:21:59.979,-0.16452391716520637
2025-03-27 16:21:59.988,0.1736684268360943
2025-03-27 16:21:59.989,-0.5883779719096234
2025-03-27 16:21:59.989,-3.033298292223269
2025-03-27 16:21:59.989,-4.235645816149994
2025-03-27 16:21:59.989,-0.7810994006245919
2025-03-27 16:21:59.998,5.480292865926368
2025-03-27 16:21:59.998,7.817539454565566
2025-03-27 16:21:59.998,2.498244036081798
2025-03-27 16:21:59.999,-5.850291616778774
2025-03-27 16:21:59.999,-8.935423947028797
2025-03-27 16:22:00.008,-3.8530654853904305
2025-03-27 16:22:00.008,4.226039388661526
2025-03-27 16:22:00.008,7.834233409662578
2025-03-27 16:22:00.009,4.390055109657016
2025-03-27 16:22:00.009,-2.083752528571623
2025-03-27 16:22:00.018,-5.451264798593179
2025-03-27 16:22:00.018,-3.46347940868327
2025-03-27 16:22:00.018,0.6729632111225687
2025-03-27 16:22:00.018,2.5768366865189307
2025-03-27 16:22:00.019,1.5279461337149152
2025-03-27 16:22:00.028,0.07905022804224374
2025-03-27 16:22:00.028,-0.12750439638153122
2025-03-27 16:22:00.028,-0.08969070419418722
2025-03-27 16:22:00.029,-0.8853583330493524
2025-03-27 16:22:00.029,-1.4269746502848104
2025-03-27 16:22:00.038,-0.09022638213756956
2025-03-27 16:22:00.038,2.3033342132395584
2025-03-27 16:22:00.038,2.709470240524287
2025-03-27 16:22:00.039,-0.424444237229678
2025-03-27 16:22:00.039,-4.4103132876641284
2025-03-27 16:22:00.048,-4.493233807689986
2025-03-27 16:22:00.048,0.6579471049573671
2025-03-27 16:22:00.048,6.427266280993777
2025-03-27 16:22:00.049,6.550050876936208
2025-03-27 16:22:00.049,0.11407908547152301
2025-03-27 16:22:00.058,-6.863682697082855
2025-03-27 16:22:00.058,-7.630959490329911
2025-03-27 16:22:00.058,-1.8485000363510193
2025-03-27 16:22:00.059,4.4937350119131425
2025-03-27 16:22:00.059,6.07971229496205
2025-03-27 16:22:00.066,3.5062422334313874
2025-03-27 16:22:00.067,0.5950196721791126
2025-03-27 16:22:00.067,-1.4780039191713052
2025-03-27 16:22:00.067,-4.189107407057402
2025-03-27 16:22:00.067,-6.396787481888127
2025-03-27 16:22:00.076,-3.8066610687825606
2025-03-27 16:22:00.077,3.9445311554621796
2025-03-27 16:22:00.077,9.633446051760892
2025-03-27 16:22:00.077,6.30916518222847
2025-03-27 16:22:00.086,-3.043295651796739
2025-03-27 16:22:00.086,-8.35232023308541
2025-03-27 16:22:00.087,-4.745899449126339
2025-03-27 16:22:00.087,2.1515231752521924
2025-03-27 16:22:00.087,4.149537058794235
2025-03-27 16:22:00.096,0.39109841400863044
2025-03-27 16:22:00.097,-2.799159878350693
2025-03-27 16:22:00.097,-0.48878726409763196
2025-03-27 16:22:00.097,4.637145208387516
2025-03-27 16:22:00.097,5.376804990256481
2025-03-27 16:22:00.106,-1.0278828500493642
2025-03-27 16:22:00.106,-8.395506399964168
2025-03-27 16:22:00.106,-7.892451377386393
2025-03-27 16:22:00.107,1.2431491947333746
2025-03-27 16:22:00.107,9.766056852390406
2025-03-27 16:22:00.114,8.618904755059166
2025-03-27 16:22:00.115,-0.8799244337855119
2025-03-27 16:22:00.115,-8.99932758301999
2025-03-27 16:22:00.115,-8.334171229891165
2025-03-27 16:22:00.124,-0.42168377882614605
2025-03-27 16:22:00.125,7.285839402910821
2025-03-27 16:22:00.125,8.495664394178739
2025-03-27 16:22:00.125,2.5221471137615405
2025-03-27 16:22:00.125,-5.587448362112683
2025-03-27 16:22:00.134,-8.767641015372565
2025-03-27 16:22:00.135,-4.02915356332997
2025-03-27 16:22:00.135,4.027766813955541
2025-03-27 16:22:00.135,7.432383479297128
2025-03-27 16:22:00.135,3.572569178787833
2025-03-27 16:22:00.144,-2.1403027989883427
2025-03-27 16:22:00.144,-3.6135423087968737
2025-03-27 16:22:00.145,-1.5213303682432764
2025-03-27 16:22:00.145,-0.5094599693557064
2025-03-27 16:22:00.145,-1.1624778263464655
2025-03-27 16:22:00.154,0.193133298281082
2025-03-27 16:22:00.154,3.659222869853392
2025-03-27 16:22:00.154,3.710179068723341
2025-03-27 16:22:00.154,-1.9289314273880487
2025-03-27 16:22:00.155,-6.32467970605288
2025-03-27 16:22:00.163,-2.0055321585309334
2025-03-27 16:22:00.163,6.815809024035407
2025-03-27 16:22:00.163,7.763465163445289
2025-03-27 16:22:00.163,-2.778406996427804
2025-03-27 16:22:00.164,-12.564222091919973
2025-03-27 16:22:00.172,-7.956020927874421
2025-03-27 16:22:00.173,7.672384557335315
2025-03-27 16:22:00.173,16.243855394787865
2025-03-27 16:22:00.173,6.736174645300212
2025-03-27 16:22:00.182,-10.559946171957028
2025-03-27 16:22:00.182,-15.90890134083222
2025-03-27 16:22:00.182,-3.8534433223511897
2025-03-27 16:22:00.183,10.825433529939916
2025-03-27 16:22:00.183,11.782875921402036
2025-03-27 16:22:00.192,0.1437926076536432
2025-03-27 16:22:00.192,-9.089688853797373
2025-03-27 16:22:00.192,-6.221826765770809
2025-03-27 16:22:00.193,3.1011282333894488
2025-03-27 16:22:00.193,6.940303326772483
2025-03-27 16:22:00.202,1.5669871176745502
2025-03-27 16:22:00.202,-5.511707705151281
2025-03-27 16:22:00.202,-5.435910782036575
2025-03-27 16:22:00.203,1.5366289580520418
2025-03-27 16:22:00.203,6.6952407744279085
2025-03-27 16:22:00.210,3.7791116114796885
2025-03-27 16:22:00.211,-3.084368232368585
2025-03-27 16:22:00.211,-5.007813824245215
2025-03-27 16:22:00.211,-0.5884734644082386
2025-03-27 16:22:00.211,2.477199518076655
2025-03-27 16:22:00.221,-0.6255628615840008
2025-03-27 16:22:00.221,-3.9521016943715
2025-03-27 16:22:00.221,0.18060618953939955
2025-03-27 16:22:00.221,8.116712739596966
2025-03-27 16:22:00.221,8.21527069337642
2025-03-27 16:22:00.230,-2.640904846294007
2025-03-27 16:22:00.231,-12.946605788266215
2025-03-27 16:22:00.231,-10.47323956688839
2025-03-27 16:22:00.231,2.3230051688987037
2025-03-27 16:22:00.240,11.674594205513367
2025-03-27 16:22:00.240,9.244970757417406
2025-03-27 16:22:00.240,0.37966653764340763
2025-03-27 16:22:00.241,-4.753259234294816
2025-03-27 16:22:00.241,-3.6801967791609744
2025-03-27 16:22:00.248,-2.1066171895690053
2025-03-27 16:22:00.249,-3.8430719313644404
2025-03-27 16:22:00.249,-4.79271680210904
2025-03-27 16:22:00.249,0.6785716518261011
2025-03-27 16:22:00.258,9.678161287103913
2025-03-27 16:22:00.258,11.806685720906616
2025-03-27 16:22:00.258,2.0502509754837424
2025-03-27 16:22:00.259,-10.849475684652797
2025-03-27 16:22:00.259,-13.19094591053978
2025-03-27 16:22:00.268,-2.621114573568799
2025-03-27 16:22:00.268,8.831074936634675
2025-03-27 16:22:00.268,9.206354965912315
2025-03-27 16:22:00.269,0.21528396802557637
2025-03-27 16:22:00.269,-6.5276105937041615
2025-03-27 16:22:00.278,-4.276375138494836
2025-03-27 16:22:00.278,2.28047864632949
2025-03-27 16:22:00.278,5.084818367516853
2025-03-27 16:22:00.279,2.605652496470282
2025-03-27 16:22:00.279,-1.0136729917208298
2025-03-27 16:22:00.286,-3.245832986090923
2025-03-27 16:22:00.287,-4.771897943972169
2025-03-27 16:22:00.287,-4.773181332760427
2025-03-27 16:22:00.287,-0.2559041238899005
2025-03-27 16:22:00.287,7.7863508824904635
2025-03-27 16:22:00.296,11.714139553205518
2025-03-27 16:22:00.297,5.021188300250832
2025-03-27 16:22:00.297,-8.237331688081722
2025-03-27 16:22:00.297,-15.620130472514365
2025-03-27 16:22:00.306,-9.263812242265402
2025-03-27 16:22:00.306,5.219851133147679
2025-03-27 16:22:00.306,14.468966480189723
2025-03-27 16:22:00.307,11.067265940904853
2025-03-27 16:22:00.307,-0.15443558206163777
2025-03-27 16:22:00.316,-8.821065210045386
2025-03-27 16:22:00.316,-9.462311219366146
2025-03-27 16:22:00.316,-4.4636241808936035
2025-03-27 16:22:00.317,1.0611312251780072
2025-03-27 16:22:00.317,4.591839502026565
2025-03-27 16:22:00.326,6.249679586406652
2025-03-27 16:22:00.326,5.807149219506846
2025-03-27 16:22:00.326,2.053999726519142
2025-03-27 16:22:00.327,-4.3595130925918815
2025-03-27 16:22:00.327,-9.185023897720423
2025-03-27 16:22:00.335,-7.78539125966795
2025-03-27 16:22:00.335,-0.2924217746715491
2025-03-27 16:22:00.335,7.7485404039908214
2025-03-27 16:22:00.335,10.311915924142987
2025-03-27 16:22:00.335,5.76819224268924
2025-03-27 16:22:00.344,-2.65734069903484
2025-03-27 16:22:00.344,-9.42655459433518
2025-03-27 16:22:00.345,-9.67245644078961
2025-03-27 16:22:00.345,-2.476069387593765
2025-03-27 16:22:00.354,6.979630299496016
2025-03-27 16:22:00.354,10.428525075076132
2025-03-27 16:22:00.354,4.431061804795967
2025-03-27 16:22:00.354,-5.099461042201894
2025-03-27 16:22:00.355,-8.564442343563726
2025-03-27 16:22:00.364,-3.1600898335595895
2025-03-27 16:22:00.364,4.285217055966714
2025-03-27 16:22:00.364,5.70431532051486
2025-03-27 16:22:00.365,0.9764374466676009
2025-03-27 16:22:00.365,-3.2498492207762717
2025-03-27 16:22:00.373,-2.632374430261582
2025-03-27 16:22:00.373,0.17171108794300777
2025-03-27 16:22:00.373,0.6462352023022385
2025-03-27 16:22:00.373,-0.7651703400595512
2025-03-27 16:22:00.373,0.026323345828031336
2025-03-27 16:22:00.382,3.525599377562359
2025-03-27 16:22:00.383,4.480869730512934
2025-03-27 16:22:00.383,-0.9773547497923585
2025-03-27 16:22:00.383,-8.153915220312465
2025-03-27 16:22:00.392,-7.738175141229702
2025-03-27 16:22:00.392,2.1139016179999244
2025-03-27 16:22:00.393,11.301080900059295
2025-03-27 16:22:00.393,8.932741329305362
2025-03-27 16:22:00.393,-2.8083433130800355
2025-03-27 16:22:00.402,-10.682243529706163
2025-03-27 16:22:00.402,-6.6639504555546365
2025-03-27 16:22:00.403,2.6764457003677267
2025-03-27 16:22:00.403,5.768430694482877
2025-03-27 16:22:00.403,1.1004046250460795
2025-03-27 16:22:00.412,-2.369786053842052
2025-03-27 16:22:00.412,1.1361839447348026
2025-03-27 16:22:00.412,5.871241865331245
2025-03-27 16:22:00.413,2.8383249591365654
2025-03-27 16:22:00.413,-6.790970483114391
2025-03-27 16:22:00.421,-11.578239574893665
2025-03-27 16:22:00.421,-4.002861916957355
2025-03-27 16:22:00.421,9.07626614029774
2025-03-27 16:22:00.421,13.59841989904909
2025-03-27 16:22:00.421,4.812323061615887
2025-03-27 16:22:00.430,-7.337164408396061
2025-03-27 16:22:00.431,-10.534362706235752
2025-03-27 16:22:00.431,-4.210381728910599
2025-03-27 16:22:00.431,2.1854900715674055
2025-03-27 16:22:00.440,2.8501765863373336
2025-03-27 16:22:00.441,1.820912890517862
2025-03-27 16:22:00.441,4.179805050715652
2025-03-27 16:22:00.441,6.629368612156669
2025-03-27 16:22:00.441,2.087811546290785
2025-03-27 16:22:00.450,-8.273891958769468
2025-03-27 16:22:00.450,-13.684144602002574
2025-03-27 16:22:00.451,-6.4996619739361154
2025-03-27 16:22:00.451,7.490434897438972
2025-03-27 16:22:00.451,14.917239952103639
2025-03-27 16:22:00.460,9.485348017906714
2025-03-27 16:22:00.460,-2.4151107787671915
2025-03-27 16:22:00.461,-10.142237520483974
2025-03-27 16:22:00.461,-9.326294434737417
2025-03-27 16:22:00.461,-3.2245845243192415
2025-03-27 16:22:00.470,2.9261743877509274
2025-03-27 16:22:00.470,6.09936580516786
2025-03-27 16:22:00.470,5.592745883343417
2025-03-27 16:22:00.471,2.2257319197016447
2025-03-27 16:22:00.471,-1.8434237823406445
2025-03-27 16:22:00.480,-4.095527933036896
2025-03-27 16:22:00.480,-3.459334358584565
2025-03-27 16:22:00.480,-0.9417877989450422
2025-03-27 16:22:00.481,1.4615489776454385
2025-03-27 16:22:00.481,2.1119501867648265
2025-03-27 16:22:00.490,0.6850430319789875
2025-03-27 16:22:00.490,-1.1271697646006142
2025-03-27 16:22:00.491,-0.5790525125932282
2025-03-27 16:22:00.491,2.684244489103729
2025-03-27 16:22:00.491,4.610564074877942
2025-03-27 16:22:00.498,0.833687022190398
2025-03-27 16:22:00.499,-6.665339854227948
2025-03-27 16:22:00.499,-9.918245304088375
2025-03-27 16:22:00.499,-3.9139665167078785
2025-03-27 16:22:00.508,6.780690652962106
2025-03-27 16:22:00.508,12.524480229758568
2025-03-27 16:22:00.509,8.548607485377305
2025-03-27 16:22:00.509,-1.3354418332167293
2025-03-27 16:22:00.509,-9.549037626187266
2025-03-27 16:22:00.518,-10.996123724783725
2025-03-27 16:22:00.518,-5.535384285007502
2025-03-27 16:22:00.519,2.817034352372279
2025-03-27 16:22:00.519,8.521123744956629
2025-03-27 16:22:00.519,8.224028435833652
2025-03-27 16:22:00.527,3.0980568197615197
2025-03-27 16:22:00.527,-2.663903874515687
2025-03-27 16:22:00.527,-5.619378404950807
2025-03-27 16:22:00.527,-5.076056874746984
2025-03-27 16:22:00.527,-2.2365931766925327
2025-03-27 16:22:00.538,1.1484362126170862
2025-03-27 16:22:00.538,3.2963095852995576
2025-03-27 16:22:00.538,3.149407451375969
2025-03-27 16:22:00.539,1.4196245838862533
2025-03-27 16:22:00.539,-0.03486340272448485
2025-03-27 16:22:00.546,-0.5098498400795507
2025-03-27 16:22:00.547,-1.1321776845342995
2025-03-27 16:22:00.547,-2.4630268419774666
2025-03-27 16:22:00.547,-2.756171410591216
2025-03-27 16:22:00.556,-0.30308134250149543
2025-03-27 16:22:00.557,3.216646351061364
2025-03-27 16:22:00.557,3.959961011822686
2025-03-27 16:22:00.557,0.862666484774747
2025-03-27 16:22:00.557,-2.5774477243371536
2025-03-27 16:22:00.566,-2.6089020640384857
2025-03-27 16:22:00.567,0.049808089068736267
2025-03-27 16:22:00.567,1.50696211436914
2025-03-27 16:22:00.567,0.09081891089237498
2025-03-27 16:22:00.567,-1.669034709768647
2025-03-27 16:22:00.576,-0.8833163357820335
2025-03-27 16:22:00.576,1.7764058742199371
2025-03-27 16:22:00.577,3.1914005132868963
2025-03-27 16:22:00.577,1.5391841135746467
2025-03-27 16:22:00.577,-2.1911766282133462
2025-03-27 16:22:00.586,-5.118257839133366
2025-03-27 16:22:00.587,-3.9886434586788115
2025-03-27 16:22:00.587,2.010398131325791
2025-03-27 16:22:00.587,8.231175088712273
2025-03-27 16:22:00.587,7.229211085800769
2025-03-27 16:22:00.596,-2.1655529653028327
2025-03-27 16:22:00.596,-10.792588941677067
2025-03-27 16:22:00.597,-8.836629213673236
2025-03-27 16:22:00.597,1.6659144227996727
2025-03-27 16:22:00.597,9.194993858042375
2025-03-27 16:22:00.606,7.307065904398832
2025-03-27 16:22:00.606,0.9833181823897144
2025-03-27 16:22:00.606,-2.6509443626558333
2025-03-27 16:22:00.607,-3.5524624128972264
2025-03-27 16:22:00.607,-4.931135576761377
2025-03-27 16:22:00.616,-5.246488752050491
2025-03-27 16:22:00.616,-0.33388624245211174
2025-03-27 16:22:00.616,7.811046285477633
2025-03-27 16:22:00.617,10.517272579557748
2025-03-27 16:22:00.617,2.913133277161914
2025-03-27 16:22:00.624,-8.52487193017851
2025-03-27 16:22:00.625,-12.133475408302527
2025-03-27 16:22:00.625,-3.9846670253438816
2025-03-27 16:22:00.625,7.68276639947405
2025-03-27 16:22:00.634,11.289411858046046
2025-03-27 16:22:00.634,3.8611549760612194
2025-03-27 16:22:00.635,-6.47698865022876
2025-03-27 16:22:00.635,-9.340594502266864
2025-03-27 16:22:00.635,-2.6605787940635914
2025-03-27 16:22:00.644,5.793191713438512
2025-03-27 16:22:00.644,7.107902587361407
2025-03-27 16:22:00.644,0.6622305143641337
2025-03-27 16:22:00.645,-5.780325894189559
2025-03-27 16:22:00.645,-5.080778823792857
2025-03-27 16:22:00.654,1.4244014196118444
2025-03-27 16:22:00.654,5.950713015932412
2025-03-27 16:22:00.654,3.462193418510673
2025-03-27 16:22:00.655,-2.814115690232075
2025-03-27 16:22:00.655,-5.68268219503453
2025-03-27 16:22:00.664,-2.3953515129571517
2025-03-27 16:22:00.664,2.882673630344343
2025-03-27 16:22:00.664,4.6296415837808915
2025-03-27 16:22:00.665,2.0375851063843458
2025-03-27 16:22:00.665,-1.3190219880710101
2025-03-27 16:22:00.672,-2.5206714902622513
2025-03-27 16:22:00.673,-2.129592667594685
2025-03-27 16:22:00.673,-1.7773737092445885
2025-03-27 16:22:00.673,-0.8571474887666001
2025-03-27 16:22:00.682,2.1802299398779383
2025-03-27 16:22:00.682,5.606500443596636
2025-03-27 16:22:00.683,4.657114327795004
2025-03-27 16:22:00.683,-2.0075632393674296
2025-03-27 16:22:00.683,-8.326435007342491
2025-03-27 16:22:00.692,-6.818884673887889
2025-03-27 16:22:00.692,1.7878036787926894
2025-03-27 16:22:00.693,8.34934306822423
2025-03-27 16:22:00.693,5.919463056072254
2025-03-27 16:22:00.693,-2.0423895678524824
2025-03-27 16:22:00.702,-6.239167347456971
2025-03-27 16:22:00.703,-2.7718031349619303
2025-03-27 16:22:00.703,3.0316018179444044
2025-03-27 16:22:00.703,4.02735059753656
2025-03-27 16:22:00.703,-0.2541855976323001
2025-03-27 16:22:00.712,-4.111345336417502
2025-03-27 16:22:00.713,-3.024629180196624
2025-03-27 16:22:00.713,1.659610435528296
2025-03-27 16:22:00.713,4.936191462335219
2025-03-27 16:22:00.713,3.260541551449691
2025-03-27 16:22:00.722,-2.324736329461067
2025-03-27 16:22:00.723,-6.632344440501792
2025-03-27 16:22:00.723,-4.414206868772664
2025-03-27 16:22:00.723,3.8048217396315516
2025-03-27 16:22:00.723,10.13536130422174
2025-03-27 16:22:00.731,6.494160236355799
2025-03-27 16:22:00.731,-5.447995741576807
2025-03-27 16:22:00.731,-13.994772717061142
2025-03-27 16:22:00.731,-9.4058635995997
2025-03-27 16:22:00.731,4.9192587461776895
2025-03-27 16:22:00.740,15.338519887821072
2025-03-27 16:22:00.741,11.939894662484635
2025-03-27 16:22:00.741,-1.7114662260635862
2025-03-27 16:22:00.741,-12.787983374342469
2025-03-27 16:22:00.750,-12.041425816662713
2025-03-27 16:22:00.750,-1.9671059049967878
2025-03-27 16:22:00.751,7.268463000110213
2025-03-27 16:22:00.751,8.768188755423225
2025-03-27 16:22:00.751,4.348520358556747
2025-03-27 16:22:00.758,-0.5265609365222782
2025-03-27 16:22:00.759,-3.783677017624104
2025-03-27 16:22:00.759,-5.989517691693667
2025-03-27 16:22:00.759,-5.470222697162023
2025-03-27 16:22:00.759,0.20063778489399553
2025-03-27 16:22:00.769,7.681460149791916
2025-03-27 16:22:00.769,8.684981684858043
2025-03-27 16:22:00.769,0.4263936082857856
2025-03-27 16:22:00.769,-8.708665361099737
2025-03-27 16:22:00.769,-8.312474829439347
2025-03-27 16:22:00.779,0.9781447337129676
2025-03-27 16:22:00.779,8.044103352684555
2025-03-27 16:22:00.779,5.130089060918283
2025-03-27 16:22:00.779,-2.9353565171867864
2025-03-27 16:22:00.779,-5.682615701562424
2025-03-27 16:22:00.789,-0.5415126148313001
2025-03-27 16:22:00.789,4.6052713451941605
2025-03-27 16:22:00.789,2.534170871102625
2025-03-27 16:22:00.789,-3.7466612015663676
2025-03-27 16:22:00.798,-5.491239072952438
2025-03-27 16:22:00.799,-0.0587033452349936
2025-03-27 16:22:00.799,5.976030197920328
2025-03-27 16:22:00.799,5.688820626255261
2025-03-27 16:22:00.799,-0.09947648015399962
2025-03-27 16:22:00.808,-5.282522645177542
2025-03-27 16:22:00.809,-5.969972840336173
2025-03-27 16:22:00.809,-2.8254048309555233
2025-03-27 16:22:00.809,1.9839881094755676
2025-03-27 16:22:00.809,6.44102743930733
2025-03-27 16:22:00.818,7.632415015801794
2025-03-27 16:22:00.818,2.9709812880567044
2025-03-27 16:22:00.819,-5.656936270497224
2025-03-27 16:22:00.819,-11.31387722327627
2025-03-27 16:22:00.819,-8.233741012082868
2025-03-27 16:22:00.828,1.8156928536365329
2025-03-27 16:22:00.829,10.90302715712598
2025-03-27 16:22:00.829,12.222815550061465
2025-03-27 16:22:00.829,5.0999844976257664
2025-03-27 16:22:00.829,-5.753269601759264
2025-03-27 16:22:00.837,-13.538272549361634
2025-03-27 16:22:00.837,-12.618902591041541
2025-03-27 16:22:00.837,-2.1521800252652645
2025-03-27 16:22:00.837,11.400787497557198
2025-03-27 16:22:00.845,17.33597602681022
2025-03-27 16:22:00.845,9.634261012210926
2025-03-27 16:22:00.845,-6.216348192464318
2025-03-27 16:22:00.845,-16.976987313653893
2025-03-27 16:22:00.846,-13.748304879924868
2025-03-27 16:22:00.855,-0.18445077197709137
2025-03-27 16:22:00.855,11.735354432483723
2025-03-27 16:22:00.855,13.28196384487324
2025-03-27 16:22:00.855,5.510414355620005
2025-03-27 16:22:00.864,-4.319385608049699
2025-03-27 16:22:00.865,-9.93230094624295
2025-03-27 16:22:00.865,-8.994205583648732
2025-03-27 16:22:00.865,-2.165239241167466
2025-03-27 16:22:00.865,7.036165737115014
2025-03-27 16:22:00.873,11.931346203828207
2025-03-27 16:22:00.873,6.736507608791462
2025-03-27 16:22:00.873,-6.144018020690431
2025-03-27 16:22:00.873,-15.169187973843105
2025-03-27 16:22:00.873,-10.19835048607852
2025-03-27 16:22:00.883,5.546824685914138
2025-03-27 16:22:00.883,17.107660016005426
2025-03-27 16:22:00.883,12.946732790899365
2025-03-27 16:22:00.883,-3.0129480282414747
2025-03-27 16:22:00.891,-15.634476843043489
2025-03-27 16:22:00.891,-13.852700795222596
2025-03-27 16:22:00.891,-0.8232127802085049
2025-03-27 16:22:00.891,10.531453828188962
2025-03-27 16:22:00.891,10.959868401027181
2025-03-27 16:22:00.900,3.108016665779708
2025-03-27 16:22:00.901,-3.563495594370654
2025-03-27 16:22:00.901,-4.152113322183165
2025-03-27 16:22:00.901,-2.082609994674876
2025-03-27 16:22:00.910,-2.043778861363019
2025-03-27 16:22:00.911,-3.1079650982325253
2025-03-27 16:22:00.911,-1.282085542107296
2025-03-27 16:22:00.911,3.516535872860235
2025-03-27 16:22:00.911,6.620175622173402
2025-03-27 16:22:00.920,4.516624741941495
2025-03-27 16:22:00.921,-1.1531643577132873
2025-03-27 16:22:00.921,-5.907381088471696
2025-03-27 16:22:00.921,-6.509447059492509
2025-03-27 16:22:00.921,-2.3741969531391067
2025-03-27 16:22:00.930,4.335031635902276
2025-03-27 16:22:00.930,8.60331448691969
2025-03-27 16:22:00.931,5.354436241489068
2025-03-27 16:22:00.931,-4.52702527933276
2025-03-27 16:22:00.931,-12.14515409245382
2025-03-27 16:22:00.938,-8.34736512012922
2025-03-27 16:22:00.939,5.28477422390747
2025-03-27 16:22:00.939,15.799754131058492
2025-03-27 16:22:00.939,11.779173905759887
2025-03-27 16:22:00.948,-3.8287816255894374
2025-03-27 16:22:00.948,-16.150840873091372
2025-03-27 16:22:00.949,-13.890569034604283
2025-03-27 16:22:00.949,-0.31806422249006183
2025-03-27 16:22:00.949,11.653366836099758
2025-03-27 16:22:00.957,12.760497840310737
2025-03-27 16:22:00.957,4.332926832877296
2025-03-27 16:22:00.957,-5.4038718858202595
2025-03-27 16:22:00.957,-9.022705492681988
2025-03-27 16:22:00.966,-4.984159344863807
2025-03-27 16:22:00.967,1.994602109818981
2025-03-27 16:22:00.967,5.238752140141054
2025-03-27 16:22:00.967,2.374241286762218
2025-03-27 16:22:00.967,-2.427146968721938
2025-03-27 16:22:00.976,-3.3452186064441505
2025-03-27 16:22:00.977,0.3813805177806757
2025-03-27 16:22:00.977,4.01793881768964
2025-03-27 16:22:00.977,3.3173460462916085
2025-03-27 16:22:00.977,-0.8651165921991297
2025-03-27 16:22:00.986,-4.329390774093015
2025-03-27 16:22:00.986,-4.16483424511607
2025-03-27 16:22:00.987,-0.6939316747481152
2025-03-27 16:22:00.987,3.5943283585646206
2025-03-27 16:22:00.987,5.470804672190342
2025-03-27 16:22:00.996,2.6660598920681626
2025-03-27 16:22:00.997,-3.4292371809878004
2025-03-27 16:22:00.997,-7.205688959723933
2025-03-27 16:22:00.997,-3.8358360214528933
2025-03-27 16:22:00.997,4.30703673324049
2025-03-27 16:22:01.004,8.66609661232745
2025-03-27 16:22:01.005,3.8477713543017678
2025-03-27 16:22:01.005,-5.384247671130217
2025-03-27 16:22:01.005,-8.78867273940528
2025-03-27 16:22:01.005,-2.397853309106738
2025-03-27 16:22:01.014,6.414059864228928
2025-03-27 16:22:01.015,7.179466549679873
2025-03-27 16:22:01.015,-1.060642453483029
2025-03-27 16:22:01.015,-7.987806461059744
2025-03-27 16:22:01.024,-4.4008104202985034
2025-03-27 16:22:01.025,5.7878947049521585
2025-03-27 16:22:01.025,9.76572464823624
2025-03-27 16:22:01.025,1.9312416262837973
2025-03-27 16:22:01.025,-8.813744624861318
2025-03-27 16:22:01.032,-10.24565852152298
2025-03-27 16:22:01.033,-1.497495936696323
2025-03-27 16:22:01.033,7.453672034237768
2025-03-27 16:22:01.033,8.613495696249517
2025-03-27 16:22:01.033,3.3412299410786606
2025-03-27 16:22:01.043,-2.515424794840923
2025-03-27 16:22:01.043,-5.611334784632734
2025-03-27 16:22:01.043,-5.547136612394667
2025-03-27 16:22:01.043,-2.450709243300021
2025-03-27 16:22:01.052,2.495277752305654
2025-03-27 16:22:01.053,5.885027146846444
2025-03-27 16:22:01.053,4.685228340669554
2025-03-27 16:22:01.053,-0.03657297532239037
2025-03-27 16:22:01.053,-3.967403333316909
2025-03-27 16:22:01.062,-4.225876576645142
2025-03-27 16:22:01.063,-1.6692688194324905
2025-03-27 16:22:01.063,1.294872265731362
2025-03-27 16:22:01.063,3.1423579594701025
2025-03-27 16:22:01.063,3.0191425266963408
2025-03-27 16:22:01.072,0.4140388484255586
2025-03-27 16:22:01.073,-3.2885719388065264
2025-03-27 16:22:01.073,-4.458332805979104
2025-03-27 16:22:01.073,-0.7864157554110136
2025-03-27 16:22:01.073,4.890488453084042
2025-03-27 16:22:01.082,6.347109928874782
2025-03-27 16:22:01.082,0.7448519565491094
2025-03-27 16:22:01.083,-7.08186976496445
2025-03-27 16:22:01.083,-8.726058548192144
2025-03-27 16:22:01.083,-1.3322943417564093
2025-03-27 16:22:01.091,8.385214505233824
2025-03-27 16:22:01.091,10.676785605355752
2025-03-27 16:22:01.091,3.087223293302813
2025-03-27 16:22:01.091,-7.097392072027221
2025-03-27 16:22:01.100,-10.717431676895048
2025-03-27 16:22:01.101,-5.569884684417631
2025-03-27 16:22:01.101,2.9254215358986326
2025-03-27 16:22:01.101,8.06056682224873
2025-03-27 16:22:01.101,7.292212029671889
2025-03-27 16:22:01.110,2.325776206087271
2025-03-27 16:22:01.111,-3.6338006042770807
2025-03-27 16:22:01.111,-7.372707319485871
2025-03-27 16:22:01.111,-6.164394726151967
2025-03-27 16:22:01.111,0.10087643797649254
2025-03-27 16:22:01.120,6.721983595359554
2025-03-27 16:22:01.121,7.102746266905643
2025-03-27 16:22:01.121,0.23452933761880446
2025-03-27 16:22:01.121,-6.542771611426447
2025-03-27 16:22:01.121,-5.40987250723686
2025-03-27 16:22:01.130,2.0149909522611535
2025-03-27 16:22:01.130,6.321726729258887
2025-03-27 16:22:01.130,2.4729441044976213
2025-03-27 16:22:01.131,-3.7654255897570774
2025-03-27 16:22:01.131,-4.206243919164126
2025-03-27 16:22:01.140,0.425427394467073
2025-03-27 16:22:01.140,2.476406585477932
2025-03-27 16:22:01.141,-0.5925356221871382
2025-03-27 16:22:01.141,-2.4213047780727392
2025-03-27 16:22:01.141,1.7890232418038665
2025-03-27 16:22:01.148,6.503244049832912
2025-03-27 16:22:01.149,3.0602743062390485
2025-03-27 16:22:01.149,-6.72824450098874
2025-03-27 16:22:01.149,-10.96563871375118
2025-03-27 16:22:01.158,-2.9910152281160274
2025-03-27 16:22:01.159,9.213324507485467
2025-03-27 16:22:01.159,12.490054906646467
2025-03-27 16:22:01.159,3.9514553695211436
2025-03-27 16:22:01.159,-7.164009312468444
2025-03-27 16:22:01.168,-11.112529076302318
2025-03-27 16:22:01.169,-6.6414661648141005
2025-03-27 16:22:01.169,1.177194581321125
2025-03-27 16:22:01.169,7.357573580450948
2025-03-27 16:22:01.169,9.263156632798173
2025-03-27 16:22:01.177,5.782918925093685
2025-03-27 16:22:01.177,-1.9458683144018125
2025-03-27 16:22:01.177,-9.225391555747736
2025-03-27 16:22:01.177,-10.214331656031373
2025-03-27 16:22:01.186,-3.4422974779677604
2025-03-27 16:22:01.187,5.827364656403282
2025-03-27 16:22:01.187,10.055363151936888
2025-03-27 16:22:01.187,6.416492784194543
2025-03-27 16:22:01.187,-1.0388483587341901
2025-03-27 16:22:01.196,-5.894019307846482
2025-03-27 16:22:01.197,-5.3647117075895165
2025-03-27 16:22:01.197,-1.9038104105299631
2025-03-27 16:22:01.197,0.3861927557800429
2025-03-27 16:22:01.197,0.38552207513804815
2025-03-27 16:22:01.206,0.7238853348871279
2025-03-27 16:22:01.207,3.640252032103513
2025-03-27 16:22:01.207,6.663805802907324
2025-03-27 16:22:01.207,4.343265254852821
2025-03-27 16:22:01.207,-4.470616597983703
2025-03-27 16:22:01.216,-12.60430391536495
2025-03-27 16:22:01.216,-10.670329430400724
2025-03-27 16:22:01.216,2.0240316897752204
2025-03-27 16:22:01.217,14.60850150626388
2025-03-27 16:22:01.217,14.74967361223893
2025-03-27 16:22:01.224,1.691485412666569
2025-03-27 16:22:01.225,-12.218221618355733
2025-03-27 16:22:01.225,-14.01756879662047
2025-03-27 16:22:01.225,-3.489603842117453
2025-03-27 16:22:01.234,7.389009688066189
2025-03-27 16:22:01.235,8.273915880333398
2025-03-27 16:22:01.235,1.4407533123536957
2025-03-27 16:22:01.235,-2.8220468795445615
2025-03-27 16:22:01.235,0.01956142887521989
2025-03-27 16:22:01.244,3.608908679081119
2025-03-27 16:22:01.245,0.475077855887893
2025-03-27 16:22:01.245,-6.822428157448654
2025-03-27 16:22:01.245,-8.517458463139645
2025-03-27 16:22:01.245,-0.784659541343548
2025-03-27 16:22:01.253,8.58617913807908
2025-03-27 16:22:01.253,9.697683353242114
2025-03-27 16:22:01.253,2.448475568424439
2025-03-27 16:22:01.253,-4.632716686157481
2025-03-27 16:22:01.253,-5.745250984723631
2025-03-27 16:22:01.263,-3.3422667165383992
2025-03-27 16:22:01.263,-1.8413831754956738
2025-03-27 16:22:01.263,-0.7954200930532231
2025-03-27 16:22:01.263,2.3133820302314017
2025-03-27 16:22:01.272,5.733680707646592
2025-03-27 16:22:01.273,4.9338853839952606
2025-03-27 16:22:01.273,-0.14906964640300277
2025-03-27 16:22:01.273,-4.104040462164572
2025-03-27 16:22:01.273,-3.4859427545133403
2025-03-27 16:22:01.282,-1.2403989757419893
2025-03-27 16:22:01.283,-1.2937868003151343
2025-03-27 16:22:01.283,-2.0690976881487138
2025-03-27 16:22:01.283,0.6666558443334771
2025-03-27 16:22:01.283,5.987662128662859
2025-03-27 16:22:01.292,7.371630651153346
2025-03-27 16:22:01.292,1.202279553475591
2025-03-27 16:22:01.293,-7.310691926257092
2025-03-27 16:22:01.293,-9.246657895161349
2025-03-27 16:22:01.293,-2.3628960603518063
2025-03-27 16:22:01.302,5.9001769020425865
2025-03-27 16:22:01.303,6.964449234479273
2025-03-27 16:22:01.303,1.2243779156466266
2025-03-27 16:22:01.303,-3.1218255049189145
2025-03-27 16:22:01.303,-1.3524795052321683
2025-03-27 16:22:01.312,1.742830435244791
2025-03-27 16:22:01.312,-0.20197908758975872
2025-03-27 16:22:01.313,-4.872998446273099
2025-03-27 16:22:01.313,-4.3740395654116755
2025-03-27 16:22:01.313,2.582871486987991
2025-03-27 16:22:01.322,7.7810455952825395
2025-03-27 16:22:01.322,4.6450284186060475
2025-03-27 16:22:01.323,-2.6866676226718584
2025-03-27 16:22:01.323,-5.323853715638993
2025-03-27 16:22:01.323,-1.7121808195194261
2025-03-27 16:22:01.332,1.3119986803446224
2025-03-27 16:22:01.332,-0.7949803578073
2025-03-27 16:22:01.333,-3.6737076492695695
2025-03-27 16:22:01.333,-0.7668245435465012
2025-03-27 16:22:01.333,6.475038936013065
2025-03-27 16:22:01.340,9.281993571207217
2025-03-27 16:22:01.341,2.5023681654037153
2025-03-27 16:22:01.341,-8.293463877414409
2025-03-27 16:22:01.341,-12.445206968617786
2025-03-27 16:22:01.350,-5.712116178320409
2025-03-27 16:22:01.350,5.566668171391882
2025-03-27 16:22:01.351,11.443011014568867
2025-03-27 16:22:01.351,7.915305836158548
2025-03-27 16:22:01.351,-0.5685086307301778
2025-03-27 16:22:01.360,-6.538527219897587
2025-03-27 16:22:01.360,-6.467312614191792
2025-03-27 16:22:01.361,-2.8750382209872187
2025-03-27 16:22:01.361,-0.21028198511123783
2025-03-27 16:22:01.361,0.6721078956247404
2025-03-27 16:22:01.370,2.5293115427035433
2025-03-27 16:22:01.370,5.9534389377177055
2025-03-27 16:22:01.371,6.458295486104175
2025-03-27 16:22:01.371,0.33096699294334453
2025-03-27 16:22:01.371,-8.252341038855599
2025-03-27 16:22:01.379,-10.31042026912897
2025-03-27 16:22:01.379,-2.8914725037781244
2025-03-27 16:22:01.379,6.723794233200525
2025-03-27 16:22:01.379,9.303211216161955
2025-03-27 16:22:01.379,3.6419490974518025
2025-03-27 16:22:01.389,-3.5518333371267743
2025-03-27 16:22:01.389,-5.768530845587904
2025-03-27 16:22:01.389,-2.5430792352429323
2025-03-27 16:22:01.389,1.685918063948317
2025-03-27 16:22:01.398,2.546724818854962
2025-03-27 16:22:01.399,-0.2013576169066424
2025-03-27 16:22:01.399,-2.560518348410721
2025-03-27 16:22:01.399,-0.7233451252927285
2025-03-27 16:22:01.399,3.9057040936790193
2025-03-27 16:22:01.408,5.431837838078025
2025-03-27 16:22:01.409,0.4644424533265933
2025-03-27 16:22:01.409,-6.74401612621392
2025-03-27 16:22:01.409,-8.232786042142015
2025-03-27 16:22:01.409,-1.5093648047823596
2025-03-27 16:22:01.418,6.999048602907973
2025-03-27 16:22:01.418,8.753418037872592
2025-03-27 16:22:01.419,2.4854003380633367
2025-03-27 16:22:01.419,-4.68824362672117
2025-03-27 16:22:01.419,-5.707654125922511
2025-03-27 16:22:01.428,-1.5918738013355482
2025-03-27 16:22:01.428,0.8593564741439746
2025-03-27 16:22:01.429,-0.9601140192098516
2025-03-27 16:22:01.429,-1.436475618473417
2025-03-27 16:22:01.429,4.208229860289848
2025-03-27 16:22:01.437,9.86069225955668
2025-03-27 16:22:01.437,4.575024635273746
2025-03-27 16:22:01.437,-10.20065850186289
2025-03-27 16:22:01.437,-17.52951458443193
2025-03-27 16:22:01.446,-5.41373572021992
2025-03-27 16:22:01.446,14.857903891636692
2025-03-27 16:22:01.447,19.979068413678835
2025-03-27 16:22:01.447,3.5734461812281326
2025-03-27 16:22:01.447,-15.313858683801955
2025-03-27 16:22:01.456,-15.965737482589295
2025-03-27 16:22:01.456,-0.6592600369621433
2025-03-27 16:22:01.457,11.026612484658571
2025-03-27 16:22:01.457,7.992895405690421
2025-03-27 16:22:01.457,-1.3704829106461185
2025-03-27 16:22:01.465,-4.222372341973956
2025-03-27 16:22:01.465,-0.34698327803083984
2025-03-27 16:22:01.465,1.3175429210292133
2025-03-27 16:22:01.465,-2.0863305672370642
2025-03-27 16:22:01.474,-3.8098820444645614
2025-03-27 16:22:01.475,0.7756387852919455
2025-03-27 16:22:01.475,6.106400990186781
2025-03-27 16:22:01.475,4.125220540166658
2025-03-27 16:22:01.475,-3.7210619774011646
2025-03-27 16:22:01.484,-7.623344828094985
2025-03-27 16:22:01.485,-2.3639293554881458
2025-03-27 16:22:01.485,5.648719647921683
2025-03-27 16:22:01.485,6.797775256324019
2025-03-27 16:22:01.485,0.6327154033680529
2025-03-27 16:22:01.494,-4.444053784643229
2025-03-27 16:22:01.495,-3.1641042897132134
2025-03-27 16:22:01.495,0.07302937091472966
2025-03-27 16:22:01.495,-0.8496424276648884
2025-03-27 16:22:01.495,-3.523528669977022
2025-03-27 16:22:01.504,-0.45105427271801196
2025-03-27 16:22:01.505,8.082383878878005
2025-03-27 16:22:01.505,11.312449993503149
2025-03-27 16:22:01.505,1.781293631854141
2025-03-27 16:22:01.505,-12.586687067158195
2025-03-27 16:22:01.513,-16.127401669098475
2025-03-27 16:22:01.513,-4.232909267470536
2025-03-27 16:22:01.513,11.045284977590159
2025-03-27 16:22:01.513,15.28855063030662
2025-03-27 16:22:01.513,6.822735251108546
2025-03-27 16:22:01.522,-4.742051369347553
2025-03-27 16:22:01.523,-10.525637940987247
2025-03-27 16:22:01.523,-8.65659245083094
2025-03-27 16:22:01.523,-1.6942146283447697
2025-03-27 16:22:01.532,6.18496441442029
2025-03-27 16:22:01.532,9.557205742160413
2025-03-27 16:22:01.533,4.876429229876244
2025-03-27 16:22:01.533,-4.484884636125082
2025-03-27 16:22:01.533,-9.733371438342207
2025-03-27 16:22:01.542,-5.690346385151244
2025-03-27 16:22:01.543,3.5466476708053034
2025-03-27 16:22:01.543,9.426209780756196
2025-03-27 16:22:01.543,7.406298126977077
2025-03-27 16:22:01.543,-0.45007196059521215
2025-03-27 16:22:01.551,-8.459510967259657
2025-03-27 16:22:01.551,-10.842283604634444
2025-03-27 16:22:01.551,-4.9609482752788665
2025-03-27 16:22:01.551,5.709907643347869
2025-03-27 16:22:01.551,12.888989349092226
2025-03-27 16:22:01.560,10.442563395759155
2025-03-27 16:22:01.561,0.07903245152956412
2025-03-27 16:22:01.561,-10.617360297978555
2025-03-27 16:22:01.561,-14.421399276456157
2025-03-27 16:22:01.570,-8.340878311597804
2025-03-27 16:22:01.571,4.97456779745654
2025-03-27 16:22:01.571,16.64167832093423
2025-03-27 16:22:01.571,15.873531016203327
2025-03-27 16:22:01.571,0.7201057010605544
2025-03-27 16:22:01.579,-16.159522342500697
2025-03-27 16:22:01.579,-18.38003932892292
2025-03-27 16:22:01.579,-4.101179030645381
2025-03-27 16:22:01.579,11.369347806805397
2025-03-27 16:22:01.588,13.571198848701673
2025-03-27 16:22:01.588,4.6745800472714265
2025-03-27 16:22:01.589,-2.7900694821143794
2025-03-27 16:22:01.589,-3.508123303873055
2025-03-27 16:22:01.589,-3.267628333455694
2025-03-27 16:22:01.598,-6.099863809300761
2025-03-27 16:22:01.599,-6.344745511877486
2025-03-27 16:22:01.599,1.6213176623033885
2025-03-27 16:22:01.599,11.486969080379632
2025-03-27 16:22:01.599,10.904868259567085
2025-03-27 16:22:01.608,-1.3758281414886353
2025-03-27 16:22:01.608,-11.820491167656446
2025-03-27 16:22:01.609,-8.690598841275564
2025-03-27 16:22:01.609,2.964878957296227
2025-03-27 16:22:01.609,8.240532482030622
2025-03-27 16:22:01.618,1.878989268359374
2025-03-27 16:22:01.618,-5.655638442077484
2025-03-27 16:22:01.619,-3.0936628797825825
2025-03-27 16:22:01.619,6.023230004850773
2025-03-27 16:22:01.619,7.919220654085818
2025-03-27 16:22:01.626,-2.33090508987274
2025-03-27 16:22:01.627,-12.429081925055506
2025-03-27 16:22:01.627,-7.764583298746906
2025-03-27 16:22:01.627,8.259852310457722
2025-03-27 16:22:01.636,16.050889538419323
2025-03-27 16:22:01.637,4.295524705293707
2025-03-27 16:22:01.637,-13.92200120352952
2025-03-27 16:22:01.637,-16.26877793174326
2025-03-27 16:22:01.637,0.560464998088871
2025-03-27 16:22:01.645,16.44377564368432
2025-03-27 16:22:01.645,13.218601471787371
2025-03-27 16:22:01.645,-3.5275540526613773
2025-03-27 16:22:01.645,-13.604429664878715
2025-03-27 16:22:01.655,-7.996757716278899
2025-03-27 16:22:01.655,2.894897409935712
2025-03-27 16:22:01.655,6.178981950215786
2025-03-27 16:22:01.655,2.5874512945399744
2025-03-27 16:22:01.655,0.8802997307039268
2025-03-27 16:22:01.664,2.5516769285394783
2025-03-27 16:22:01.665,0.8706766714756793
2025-03-27 16:22:01.665,-5.841296372411975
2025-03-27 16:22:01.665,-8.907824059577365
2025-03-27 16:22:01.665,-1.463564670445787
2025-03-27 16:22:01.674,9.636857266614227
2025-03-27 16:22:01.675,10.8111651742024
2025-03-27 16:22:01.675,-0.40816441537962445
2025-03-27 16:22:01.675,-10.963201079842499
2025-03-27 16:22:01.675,-8.322138426087516
2025-03-27 16:22:01.684,3.62752123526434
2025-03-27 16:22:01.684,9.851154284325062
2025-03-27 16:22:01.685,3.5169388875180863
2025-03-27 16:22:01.685,-6.2163998486545555
2025-03-27 16:22:01.685,-7.244022781212678
2025-03-27 16:22:01.694,0.2887999813381408
2025-03-27 16:22:01.694,6.1812280991820305
2025-03-27 16:22:01.695,4.323878101959245
2025-03-27 16:22:01.695,-1.0343806459452611
2025-03-27 16:22:01.695,-3.0995702063205437
2025-03-27 16:22:01.704,-1.488023944197278
2025-03-27 16:22:01.704,-0.5662937513032964
2025-03-27 16:22:01.705,-1.6818820424118397
2025-03-27 16:22:01.705,-1.3484706173695593
2025-03-27 16:22:01.705,2.4672801313765684
2025-03-27 16:22:01.713,5.88474027033053
2025-03-27 16:22:01.713,3.6878787239384567
2025-03-27 16:22:01.713,-3.111928178954564
2025-03-27 16:22:01.713,-7.525291596746074
2025-03-27 16:22:01.713,-4.803238914420576
2025-03-27 16:22:01.723,2.0455115017176877
2025-03-27 16:22:01.723,6.144148770762428
2025-03-27 16:22:01.723,4.45839735642081
2025-03-27 16:22:01.723,0.012021472358830332
2025-03-27 16:22:01.723,-2.7106567781521993
2025-03-27 16:22:01.733,-2.634520941739634
2025-03-27 16:22:01.733,-1.8083199336736415
2025-03-27 16:22:01.733,-1.4812452567917094
2025-03-27 16:22:01.733,-0.32747789794435817
2025-03-27 16:22:01.733,2.648287288662227
2025-03-27 16:22:01.743,4.990908468248448
2025-03-27 16:22:01.743,3.024579556431305
2025-03-27 16:22:01.743,-2.666700429443144
2025-03-27 16:22:01.743,-6.430841449697077
2025-03-27 16:22:01.753,-3.7737811352306645
2025-03-27 16:22:01.753,2.8155387221251136
2025-03-27 16:22:01.753,6.079208787403482
2025-03-27 16:22:01.753,2.1802135675900147
2025-03-27 16:22:01.753,-4.4732270576853965
2025-03-27 16:22:01.762,-5.767192438602336
2025-03-27 16:22:01.763,0.5540238077907398
2025-03-27 16:22:01.763,7.357671440776527
2025-03-27 16:22:01.763,6.086681756493942
2025-03-27 16:22:01.763,-2.4592937909614627
2025-03-27 16:22:01.772,-8.544809723208374
2025-03-27 16:22:01.773,-5.542293881144449
2025-03-27 16:22:01.773,2.1220826719581733
2025-03-27 16:22:01.773,5.654865432660742
2025-03-27 16:22:01.773,3.193094711907716
2025-03-27 16:22:01.782,0.046848136619309255
2025-03-27 16:22:01.783,-0.39177426727752956
2025-03-27 16:22:01.783,-0.3731076100492429
2025-03-27 16:22:01.783,-2.0108715936160495
2025-03-27 16:22:01.783,-3.0735697366876087
2025-03-27 16:22:01.792,-1.074251492653095
2025-03-27 16:22:01.793,2.087077140958247
2025-03-27 16:22:01.793,2.8057045487387735
2025-03-27 16:22:01.793,0.9923617356222703
2025-03-27 16:22:01.793,-0.4745030132367112
2025-03-27 16:22:01.801,-0.375854759755462
2025-03-27 16:22:01.801,-0.3141400621177702
2025-03-27 16:22:01.801,-1.3905549486051934
2025-03-27 16:22:01.801,-2.1277046268419646
2025-03-27 16:22:01.801,-0.5726912565242642
2025-03-27 16:22:01.811,2.6319043843572527
2025-03-27 16:22:01.811,4.239236355549829
2025-03-27 16:22:01.811,1.709732932701061
2025-03-27 16:22:01.811,-3.4417239472284002
2025-03-27 16:22:01.811,-6.200029053352681
2025-03-27 16:22:01.821,-3.0149380345978543
2025-03-27 16:22:01.821,3.753642449217509
2025-03-27 16:22:01.821,7.575075657427051
2025-03-27 16:22:01.821,4.506752362545158
2025-03-27 16:22:01.821,-2.6165465546981768
2025-03-27 16:22:01.831,-7.282620403413406
2025-03-27 16:22:01.831,-5.834679642686476
2025-03-27 16:22:01.831,-0.30489643024037777
2025-03-27 16:22:01.831,4.513176981576886
2025-03-27 16:22:01.831,5.670294065288333
2025-03-27 16:22:01.841,3.653693571166655
2025-03-27 16:22:01.841,0.41338187151166617
2025-03-27 16:22:01.841,-2.908111168699471
2025-03-27 16:22:01.841,-5.664362484688175
2025-03-27 16:22:01.841,-6.0110758553205805
2025-03-27 16:22:01.851,-1.7168516061249788
2025-03-27 16:22:01.851,5.902216466475504
2025-03-27 16:22:01.851,10.404165812665209
2025-03-27 16:22:01.851,5.898072617007939
2025-03-27 16:22:01.860,-4.931408460206783
2025-03-27 16:22:01.860,-11.671353330373032
2025-03-27 16:22:01.861,-7.50252873219309
2025-03-27 16:22:01.861,2.612522068725501
2025-03-27 16:22:01.861,8.203558673865167
2025-03-27 16:22:01.870,5.883231626362509
2025-03-27 16:22:01.870,1.368762559956337
2025-03-27 16:22:01.871,-0.35727577890935247
2025-03-27 16:22:01.871,-1.4018355671125922
2025-03-27 16:22:01.871,-5.219757436138461
2025-03-27 16:22:01.879,-8.77140412685434
2025-03-27 16:22:01.879,-5.2273873377763485
2025-03-27 16:22:01.879,5.89657233730591
2025-03-27 16:22:01.879,15.186815409231796
2025-03-27 16:22:01.888,12.23614445800294
2025-03-27 16:22:01.888,-2.5453829773815935
2025-03-27 16:22:01.889,-16.60023256091945
2025-03-27 16:22:01.889,-16.74526977163337
2025-03-27 16:22:01.889,-2.4021754821490244
2025-03-27 16:22:01.897,13.236063935782825
2025-03-27 16:22:01.897,16.25657145073411
2025-03-27 16:22:01.897,5.8575889403183155
2025-03-27 16:22:01.897,-6.407347934664846
2025-03-27 16:22:01.907,-10.428982951631138
2025-03-27 16:22:01.907,-6.933756840460778
2025-03-27 16:22:01.907,-2.179269363170387
2025-03-27 16:22:01.907,1.6727928276818023
2025-03-27 16:22:01.907,6.189523576645602
2025-03-27 16:22:01.916,9.523873100921309
2025-03-27 16:22:01.917,6.342467985098776
2025-03-27 16:22:01.917,-3.7219401240776238
2025-03-27 16:22:01.917,-12.329822077681458
2025-03-27 16:22:01.917,-10.65471587948701
2025-03-27 16:22:01.925,0.22968472421499198
2025-03-27 16:22:01.925,9.993429223048473
2025-03-27 16:22:01.925,10.060708695087527
2025-03-27 16:22:01.925,2.085418727826103
2025-03-27 16:22:01.925,-5.17984995706732
2025-03-27 16:22:01.935,-5.853705398935547
2025-03-27 16:22:01.935,-1.9338875063629875
2025-03-27 16:22:01.935,1.1576577009449545
2025-03-27 16:22:01.935,1.3421171664465175
2025-03-27 16:22:01.945,0.5520612467399388
2025-03-27 16:22:01.945,0.4359378626943492
2025-03-27 16:22:01.945,0.4373730680106648
2025-03-27 16:22:01.945,0.1517937198459786
2025-03-27 16:22:01.945,0.5048529597117207
2025-03-27 16:22:01.954,1.2511554097374582
2025-03-27 16:22:01.955,0.09468205819161357
2025-03-27 16:22:01.955,-3.235015773467083
2025-03-27 16:22:01.955,-4.418466445077193
2025-03-27 16:22:01.955,0.07401385581562953
2025-03-27 16:22:01.964,6.197436595846308
2025-03-27 16:22:01.965,5.870481062056739
2025-03-27 16:22:01.965,-1.745718158590291
2025-03-27 16:22:01.965,-7.437004496640855
2025-03-27 16:22:01.965,-3.7246399751357724
2025-03-27 16:22:01.975,4.271898107407856
2025-03-27 16:22:01.975,5.324985984664183
2025-03-27 16:22:01.975,-1.762196387255413
2025-03-27 16:22:01.975,-5.684170703872008
2025-03-27 16:22:01.975,0.8198977788290924
2025-03-27 16:22:01.983,8.718379212266637
2025-03-27 16:22:01.983,4.488726863474432
2025-03-27 16:22:01.983,-9.104644739376008
2025-03-27 16:22:01.983,-14.147061067596937
2025-03-27 16:22:01.983,-1.5845545996864758
2025-03-27 16:22:01.992,14.925284298053272
2025-03-27 16:22:01.993,15.578714517490486
2025-03-27 16:22:01.993,-0.5054405440463157
2025-03-27 16:22:01.993,-14.81598060546412
2025-03-27 16:22:02.002,-12.67135301972206
2025-03-27 16:22:02.002,0.7397380781212622
2025-03-27 16:22:02.003,9.610720743767137
2025-03-27 16:22:02.003,6.922174058762681
2025-03-27 16:22:02.003,-0.3349565489767252
2025-03-27 16:22:02.011,-2.955078126554644
2025-03-27 16:22:02.011,-0.6663169654888887
2025-03-27 16:22:02.011,0.4544756498291937
2025-03-27 16:22:02.011,-2.028254971182702
2025-03-27 16:22:02.011,-3.9090330649452425
2025-03-27 16:22:02.021,-1.1585625038755778
2025-03-27 16:22:02.021,4.07626871840628
2025-03-27 16:22:02.021,6.200200882371261
2025-03-27 16:22:02.021,2.8133494647917012
2025-03-27 16:22:02.021,-3.2732822177259604
2025-03-27 16:22:02.031,-7.261649513482739
2025-03-27 16:22:02.031,-5.979453133858362
2025-03-27 16:22:02.031,0.27409880733161096
2025-03-27 16:22:02.031,7.372994311778753
2025-03-27 16:22:02.040,9.549059908743954
2025-03-27 16:22:02.040,4.1202012673135515
2025-03-27 16:22:02.041,-5.311602806294731
2025-03-27 16:22:02.041,-11.214657947864488
2025-03-27 16:22:02.041,-8.475804015289196
2025-03-27 16:22:02.050,1.0187462411947834
2025-03-27 16:22:02.051,9.723600943302237
2025-03-27 16:22:02.051,10.697135563930564
2025-03-27 16:22:02.051,3.4738924603072445
2025-03-27 16:22:02.051,-5.744119651895618
2025-03-27 16:22:02.060,-9.738413566663107
2025-03-27 16:22:02.061,-6.2550295349338665
2025-03-27 16:22:02.061,1.0634715181312675
2025-03-27 16:22:02.061,6.562221181825589
2025-03-27 16:22:02.061,6.911127113118758
2025-03-27 16:22:02.069,2.685514586074141
2025-03-27 16:22:02.069,-2.82256972577986
2025-03-27 16:22:02.069,-6.000563375496383
2025-03-27 16:22:02.069,-4.966548312082876
2025-03-27 16:22:02.070,-0.43020616521095784
2025-03-27 16:22:02.079,4.611595271497424
2025-03-27 16:22:02.079,6.313755931222733
2025-03-27 16:22:02.079,2.715880139023655
2025-03-27 16:22:02.079,-3.7745065165134863
2025-03-27 16:22:02.088,-7.44415022242443
2025-03-27 16:22:02.089,-4.402403009895532
2025-03-27 16:22:02.089,3.137900956497746
2025-03-27 16:22:02.089,8.510562860404272
2025-03-27 16:22:02.089,6.758195378869483
2025-03-27 16:22:02.098,-0.9472360024045385
2025-03-27 16:22:02.099,-8.461252993827415
2025-03-27 16:22:02.099,-9.7730716765929
2025-03-27 16:22:02.099,-3.747956400023557
2025-03-27 16:22:02.099,5.082907352267113
2025-03-27 16:22:02.108,10.35234325958581
2025-03-27 16:22:02.109,8.949687048579978
2025-03-27 16:22:02.109,2.574251703309196
2025-03-27 16:22:02.109,-4.97812354900029
2025-03-27 16:22:02.109,-10.53868936863011
2025-03-27 16:22:02.117,-11.467348235199555
2025-03-27 16:22:02.117,-5.545657923314709
2025-03-27 16:22:02.117,6.087669543503071
2025-03-27 16:22:02.117,16.322720430951087
2025-03-27 16:22:02.126,15.835427099750646
2025-03-27 16:22:02.127,2.244108995423736
2025-03-27 16:22:02.127,-14.836602835428264
2025-03-27 16:22:02.127,-20.640835067014084
2025-03-27 16:22:02.127,-9.388047375561957
2025-03-27 16:22:02.135,9.01298336282113
2025-03-27 16:22:02.135,18.399357706258126
2025-03-27 16:22:02.135,12.296232858641895
2025-03-27 16:22:02.135,-1.4748686168771972
2025-03-27 16:22:02.144,-11.102685216628112
2025-03-27 16:22:02.145,-11.777492864893826
2025-03-27 16:22:02.145,-5.969595287545285
2025-03-27 16:22:02.145,2.1695231795671948
2025-03-27 16:22:02.145,9.007030596542958
2025-03-27 16:22:02.154,10.827277128857114
2025-03-27 16:22:02.154,5.708955744323001
2025-03-27 16:22:02.155,-3.5324536552616603
2025-03-27 16:22:02.155,-10.652818067824047
2025-03-27 16:22:02.155,-10.961895398837196
2025-03-27 16:22:02.163,-4.384724538291719
2025-03-27 16:22:02.163,5.364885111495243
2025-03-27 16:22:02.163,12.680477782742676
2025-03-27 16:22:02.163,12.066623931446603
2025-03-27 16:22:02.163,2.105193032086384
2025-03-27 16:22:02.172,-10.821077376002071
2025-03-27 16:22:02.173,-15.759866739581515
2025-03-27 16:22:02.173,-7.6126680632707435
2025-03-27 16:22:02.173,6.433574188962163
2025-03-27 16:22:02.181,13.651358093012695
2025-03-27 16:22:02.181,8.824837139073344
2025-03-27 16:22:02.181,-1.5448377657203949
2025-03-27 16:22:02.181,-7.686527073318409
2025-03-27 16:22:02.190,-6.411002894605431
2025-03-27 16:22:02.191,-1.7278259671346283
2025-03-27 16:22:02.191,1.6733329913596886
2025-03-27 16:22:02.191,2.797582334840133
2025-03-27 16:22:02.191,2.7484969430619097
2025-03-27 16:22:02.201,1.7439410877861712
2025-03-27 16:22:02.201,-0.48292118314767923
2025-03-27 16:22:02.201,-2.6016669520378977
2025-03-27 16:22:02.201,-2.3554729306003765
2025-03-27 16:22:02.201,0.3610867764340868
2025-03-27 16:22:02.210,2.713604267059014
2025-03-27 16:22:02.211,2.084420416273325
2025-03-27 16:22:02.211,-0.8981570247002602
2025-03-27 16:22:02.211,-3.2839937231579235
2025-03-27 16:22:02.211,-3.005576006654369
2025-03-27 16:22:02.220,-0.2941817503603258
2025-03-27 16:22:02.221,3.2268542146824046
2025-03-27 16:22:02.221,5.333070235749622
2025-03-27 16:22:02.221,3.670345590456852
2025-03-27 16:22:02.221,-2.055782176940244
2025-03-27 16:22:02.229,-7.6719661633678715
2025-03-27 16:22:02.229,-7.038361315805858
2025-03-27 16:22:02.229,0.7504552312970584
2025-03-27 16:22:02.229,8.420617123988922
2025-03-27 16:22:02.238,7.845842488636879
2025-03-27 16:22:02.239,-0.2111823766296716
2025-03-27 16:22:02.239,-6.7965842057413886
2025-03-27 16:22:02.239,-5.574687807370093
2025-03-27 16:22:02.239,0.22644325836051488
2025-03-27 16:22:02.248,3.2639399550296573
2025-03-27 16:22:02.249,1.6473652590409906
2025-03-27 16:22:02.249,-0.21002438070416457
2025-03-27 16:22:02.249,0.7988407477355663
2025-03-27 16:22:02.249,2.089055421853787
2025-03-27 16:22:02.258,0.09396664459937028
2025-03-27 16:22:02.258,-3.64055869505653
2025-03-27 16:22:02.259,-4.240889412503378
2025-03-27 16:22:02.259,-0.3936785948541408
2025-03-27 16:22:02.259,3.7875712476065218
2025-03-27 16:22:02.268,4.203089093197334
2025-03-27 16:22:02.269,1.415238375613363
2025-03-27 16:22:02.269,-1.2730967808189022
2025-03-27 16:22:02.269,-2.27514623664117
2025-03-27 16:22:02.269,-2.4209443576538545
2025-03-27 16:22:02.278,-2.2482066564711154
2025-03-27 16:22:02.279,-0.7505573586921801
2025-03-27 16:22:02.279,2.498819086012804
2025-03-27 16:22:02.279,5.134804273398444
2025-03-27 16:22:02.279,3.6763842582434125
2025-03-27 16:22:02.288,-1.868769150189725
2025-03-27 16:22:02.288,-6.428144050884371
2025-03-27 16:22:02.289,-4.954337520053587
2025-03-27 16:22:02.289,1.0976225192580307
2025-03-27 16:22:02.289,4.987460576219105
2025-03-27 16:22:02.298,3.3007701042761246
2025-03-27 16:22:02.298,0.19653836260177976
2025-03-27 16:22:02.299,0.41348235604016625
2025-03-27 16:22:02.299,1.320372508281859
2025-03-27 16:22:02.299,-2.5947773769630875
2025-03-27 16:22:02.307,-8.625829133686498
2025-03-27 16:22:02.307,-6.829202618695026
2025-03-27 16:22:02.307,5.147812357248207
2025-03-27 16:22:02.307,15.005045527166999
2025-03-27 16:22:02.316,9.912216558891474
2025-03-27 16:22:02.316,-5.869019579075497
2025-03-27 16:22:02.317,-15.034779264599148
2025-03-27 16:22:02.317,-8.581834736309434
2025-03-27 16:22:02.317,4.102242061834609
2025-03-27 16:22:02.325,8.76353247433454
2025-03-27 16:22:02.325,3.655459428635809
2025-03-27 16:22:02.325,-1.5618246646053762
2025-03-27 16:22:02.325,-0.6025680713495557
2025-03-27 16:22:02.326,2.3334435297634326
2025-03-27 16:22:02.335,0.6254322123745942
2025-03-27 16:22:02.335,-4.798677519817392
2025-03-27 16:22:02.335,-6.868761190149878
2025-03-27 16:22:02.335,-1.875605643197557
2025-03-27 16:22:02.345,5.708044096850772
2025-03-27 16:22:02.345,8.378703441636027
2025-03-27 16:22:02.345,3.752452612215661
2025-03-27 16:22:02.345,-3.449054474169509
2025-03-27 16:22:02.345,-6.73646126697318
2025-03-27 16:22:02.355,-4.14489967770303
2025-03-27 16:22:02.355,0.74194583800044
2025-03-27 16:22:02.355,3.2579093066433975
2025-03-27 16:22:02.355,2.3409250549295573
2025-03-27 16:22:02.355,0.4905740529653496
2025-03-27 16:22:02.365,-0.08760272224596209
2025-03-27 16:22:02.365,0.16731045328050892
2025-03-27 16:22:02.365,-0.17828929056385626
2025-03-27 16:22:02.365,-1.110047515743655
2025-03-27 16:22:02.365,-1.4133031511828378
2025-03-27 16:22:02.375,-0.5767196149239605
2025-03-27 16:22:02.375,0.5841689889899936
2025-03-27 16:22:02.375,1.0197091826817073
2025-03-27 16:22:02.375,0.5558360095096516
2025-03-27 16:22:02.375,-0.06411651446169254
2025-03-27 16:22:02.384,0.013943070034706052
2025-03-27 16:22:02.385,0.7730159639763535
2025-03-27 16:22:02.385,1.002470659973735
2025-03-27 16:22:02.385,-0.5527304804236299
2025-03-27 16:22:02.385,-3.0991225294719267
2025-03-27 16:22:02.394,-3.4751468958717227
2025-03-27 16:22:02.395,0.40253529995115067
2025-03-27 16:22:02.395,5.580516756937547
2025-03-27 16:22:02.395,5.908218598493835
2025-03-27 16:22:02.395,-0.43918881179230485
2025-03-27 16:22:02.404,-7.14115014224447
2025-03-27 16:22:02.405,-6.336164770461311
2025-03-27 16:22:02.405,1.4923582096490506
2025-03-27 16:22:02.405,7.370010086627203
2025-03-27 16:22:02.405,4.486667795388813
2025-03-27 16:22:02.414,-3.506537004453502
2025-03-27 16:22:02.415,-6.963985946543804
2025-03-27 16:22:02.415,-1.8944100349586654
2025-03-27 16:22:02.415,5.46911922970689
2025-03-27 16:22:02.415,6.441006911689588
2025-03-27 16:22:02.424,0.17995033645389835
2025-03-27 16:22:02.425,-5.917479941998302
2025-03-27 16:22:02.425,-5.438140371131118
2025-03-27 16:22:02.425,0.09646278999046154
2025-03-27 16:22:02.425,4.33135994644633
2025-03-27 16:22:02.434,3.822063803750999
2025-03-27 16:22:02.435,0.6140588941731849
2025-03-27 16:22:02.435,-1.738865773328179
2025-03-27 16:22:02.435,-2.1497618544798973
2025-03-27 16:22:02.435,-1.5862731246288817
2025-03-27 16:22:02.444,-0.6255858399676506
2025-03-27 16:22:02.445,0.9806038632609823
2025-03-27 16:22:02.445,2.651748705604003
2025-03-27 16:22:02.445,2.4688896564978977
2025-03-27 16:22:02.445,-0.5288705655981447
2025-03-27 16:22:02.453,-4.009124207747639
2025-03-27 16:22:02.453,-3.990182976744856
2025-03-27 16:22:02.453,0.3921242526862758
2025-03-27 16:22:02.453,5.030131234636359
2025-03-27 16:22:02.454,5.1163054534141885
2025-03-27 16:22:02.463,0.5361665331210469
2025-03-27 16:22:02.463,-4.343986229856164
2025-03-27 16:22:02.463,-5.578895394977083
2025-03-27 16:22:02.464,-2.812243144172855
2025-03-27 16:22:02.473,1.7267035015539305
2025-03-27 16:22:02.473,5.241298221818058
2025-03-27 16:22:02.473,5.3649899446610565
2025-03-27 16:22:02.473,1.4260146098820037
2025-03-27 16:22:02.473,-4.094252664116373
2025-03-27 16:22:02.483,-6.641837390104396
2025-03-27 16:22:02.483,-3.662041332566457
2025-03-27 16:22:02.483,2.4096725243543475
2025-03-27 16:22:02.483,6.06352825386277
2025-03-27 16:22:02.483,4.091614726928555
2025-03-27 16:22:02.493,-1.0960091432211794
2025-03-27 16:22:02.493,-4.013449283040178
2025-03-27 16:22:02.493,-2.12343447673106
2025-03-27 16:22:02.493,1.4110045661839397
2025-03-27 16:22:02.493,1.7728478630241225
2025-03-27 16:22:02.503,-1.43631767805506
2025-03-27 16:22:02.503,-3.750213466168884
2025-03-27 16:22:02.503,-1.503121401660806
2025-03-27 16:22:02.503,3.663199358006108
2025-03-27 16:22:02.503,6.646551709294496
2025-03-27 16:22:02.513,4.24052710370208
2025-03-27 16:22:02.513,-1.9306685590689419
2025-03-27 16:22:02.513,-7.102173976073084
2025-03-27 16:22:02.513,-7.526274014707764
2025-03-27 16:22:02.514,-3.3300355719939683
2025-03-27 16:22:02.523,2.4719080627496957
2025-03-27 16:22:02.523,7.205867998545646
2025-03-27 16:22:02.523,9.379562640601534
2025-03-27 16:22:02.523,6.73265998284638
2025-03-27 16:22:02.523,-2.49713236651532
2025-03-27 16:22:02.532,-13.680614519632911
2025-03-27 16:22:02.533,-15.560925584738857
2025-03-27 16:22:02.533,-2.4696532988352575
2025-03-27 16:22:02.533,14.73914540143579
2025-03-27 16:22:02.533,17.92885407244519
2025-03-27 16:22:02.541,3.553250277543003
2025-03-27 16:22:02.541,-12.027944979358693
2025-03-27 16:22:02.541,-12.71534770601131
2025-03-27 16:22:02.541,-1.4289198342745697
2025-03-27 16:22:02.551,6.888209792572038
2025-03-27 16:22:02.551,5.316445910810773
2025-03-27 16:22:02.551,-0.08127488754902135
2025-03-27 16:22:02.551,-2.4898367795664185
2025-03-27 16:22:02.551,-2.2267584816442327
2025-03-27 16:22:02.560,-1.4076199554563265
2025-03-27 16:22:02.561,1.0214036367007686
2025-03-27 16:22:02.561,4.921798558387582
2025-03-27 16:22:02.561,5.403769376225365
2025-03-27 16:22:02.561,-0.9412581517315924
2025-03-27 16:22:02.569,-9.099565605192229
2025-03-27 16:22:02.569,-10.033633342034625
2025-03-27 16:22:02.569,-1.413734563413076
2025-03-27 16:22:02.569,9.48629346170671
2025-03-27 16:22:02.570,13.340736214416982
2025-03-27 16:22:02.579,6.919170854495901
2025-03-27 16:22:02.579,-5.110719367384629
2025-03-27 16:22:02.579,-13.61044421256157
2025-03-27 16:22:02.579,-11.438477148310488
2025-03-27 16:22:02.588,-0.2503402760452744
2025-03-27 16:22:02.589,9.600695877827533
2025-03-27 16:22:02.589,9.546355053844849
2025-03-27 16:22:02.589,2.536219160025688
2025-03-27 16:22:02.589,-1.864987303820302
2025-03-27 16:22:02.598,-1.0163735416739286
2025-03-27 16:22:02.599,-1.3364776276914725
2025-03-27 16:22:02.599,-5.92147985515046
2025-03-27 16:22:02.599,-7.848888407088714
2025-03-27 16:22:02.599,-0.8100376783777158
2025-03-27 16:22:02.607,9.324961743044614
2025-03-27 16:22:02.607,10.819929917256077
2025-03-27 16:22:02.607,1.7292666927761804
2025-03-27 16:22:02.607,-7.602871986279314
2025-03-27 16:22:02.617,-7.916621092590804
2025-03-27 16:22:02.617,-1.2727288159517334
2025-03-27 16:22:02.617,3.86906728851608
2025-03-27 16:22:02.617,3.4759704195959005
2025-03-27 16:22:02.617,0.5909017576450104
2025-03-27 16:22:02.627,-0.739965103081878
2025-03-27 16:22:02.627,-0.5011027362932187
2025-03-27 16:22:02.627,-0.9661010970736834
2025-03-27 16:22:02.627,-2.0688486672217845
2025-03-27 16:22:02.627,-1.015131676935242
2025-03-27 16:22:02.637,2.8456305985396835
2025-03-27 16:22:02.637,5.157857096903091
2025-03-27 16:22:02.637,1.665367091204866
2025-03-27 16:22:02.637,-4.7514329829978665
2025-03-27 16:22:02.637,-6.4770856118349505
2025-03-27 16:22:02.647,-1.3484453545632227
2025-03-27 16:22:02.647,4.141409007112582
2025-03-27 16:22:02.647,3.922259028677211
2025-03-27 16:22:02.647,0.1996267902515682
2025-03-27 16:22:02.647,-1.1841427858627185
2025-03-27 16:22:02.657,0.4741384086142576
2025-03-27 16:22:02.657,1.2205826236704995
2025-03-27 16:22:02.657,-0.4810879509887772
2025-03-27 16:22:02.657,-2.1575073908363476
2025-03-27 16:22:02.657,-2.236787708806702
2025-03-27 16:22:02.667,-1.8283796280344284
2025-03-27 16:22:02.667,-0.967338806398782
2025-03-27 16:22:02.667,2.3242828118873877
2025-03-27 16:22:02.667,6.970161642584076
2025-03-27 16:22:02.667,6.834320202314793
2025-03-27 16:22:02.676,-1.740245210002055
2025-03-27 16:22:02.677,-11.973797786693538
2025-03-27 16:22:02.677,-11.733927931729617
2025-03-27 16:22:02.677,1.466153402116079
2025-03-27 16:22:02.677,14.635457983623715
2025-03-27 16:22:02.685,12.922045265299868
2025-03-27 16:22:02.685,-2.2763922490890858
2025-03-27 16:22:02.685,-13.957321911975685
2025-03-27 16:22:02.685,-9.547822133951259
2025-03-27 16:22:02.695,4.331603860410652
2025-03-27 16:22:02.695,10.723722740371407
2025-03-27 16:22:02.695,3.1416146764656916
2025-03-27 16:22:02.695,-7.542413548057018
2025-03-27 16:22:02.695,-7.4890691397759515
2025-03-27 16:22:02.705,3.034182753486212
2025-03-27 16:22:02.705,10.593862742656562
2025-03-27 16:22:02.705,5.733643869442187
2025-03-27 16:22:02.705,-5.415325473446529
2025-03-27 16:22:02.705,-9.777376123228839
2025-03-27 16:22:02.715,-4.3640980279302735
2025-03-27 16:22:02.715,1.6672143851052792
2025-03-27 16:22:02.715,1.9291697444193177
2025-03-27 16:22:02.715,1.6591448865783534
2025-03-27 16:22:02.715,6.788517259952311
2025-03-27 16:22:02.723,10.879382831277841
2025-03-27 16:22:02.723,2.728441320309225
2025-03-27 16:22:02.723,-14.246684511344323
2025-03-27 16:22:02.723,-21.091379938121502
2025-03-27 16:22:02.733,-6.8080549823241014
2025-03-27 16:22:02.733,14.93880839132635
2025-03-27 16:22:02.733,21.054507627870905
2025-03-27 16:22:02.733,7.292399855461971
2025-03-27 16:22:02.733,-8.317751533586993
2025-03-27 16:22:02.742,-10.159805594761755
2025-03-27 16:22:02.742,-2.8597949194678236
2025-03-27 16:22:02.743,-0.01540173334543321
2025-03-27 16:22:02.743,-3.713133391363636
2025-03-27 16:22:02.743,-4.170286699075565
2025-03-27 16:22:02.751,3.4610016543087547
2025-03-27 16:22:02.751,11.257492351690088
2025-03-27 16:22:02.751,9.471780145820619
2025-03-27 16:22:02.751,-0.7155807563814648
2025-03-27 16:22:02.761,-9.33635608538033
2025-03-27 16:22:02.761,-9.681724988340077
2025-03-27 16:22:02.761,-4.088009963704787
2025-03-27 16:22:02.761,1.6090987303780553
2025-03-27 16:22:02.762,5.070082387084394
2025-03-27 16:22:02.771,6.836840623663306
2025-03-27 16:22:02.771,5.8189118814104335
2025-03-27 16:22:02.771,0.08806950294776492
2025-03-27 16:22:02.771,-7.400626442999701
2025-03-27 16:22:02.771,-8.727471947443334
2025-03-27 16:22:02.781,-0.6917489707987678
2025-03-27 16:22:02.781,8.16612178254948
2025-03-27 16:22:02.781,6.427989169006501
2025-03-27 16:22:02.781,-4.30431964590931
2025-03-27 16:22:02.781,-9.584736200823958
2025-03-27 16:22:02.790,-1.301430680863316
2025-03-27 16:22:02.790,10.235473546173631
2025-03-27 16:22:02.791,9.628342318849548
2025-03-27 16:22:02.791,-2.8697738263723513
2025-03-27 16:22:02.791,-11.97541517038945
2025-03-27 16:22:02.800,-7.470604312464226
2025-03-27 16:22:02.801,3.9862904714002
2025-03-27 16:22:02.801,9.069721413348816
2025-03-27 16:22:02.801,4.158163046180363
2025-03-27 16:22:02.801,-2.70301608611308
2025-03-27 16:22:02.809,-3.7744489674440365
2025-03-27 16:22:02.809,-0.5927860233798826
2025-03-27 16:22:02.809,0.4232573138749839
2025-03-27 16:22:02.809,-2.050973945252497
2025-03-27 16:22:02.810,-2.7527137690285737
2025-03-27 16:22:02.819,1.7035099629201116
2025-03-27 16:22:02.819,6.83770307072189
2025-03-27 16:22:02.819,5.507888634692896
2025-03-27 16:22:02.819,-2.5677335449586343
2025-03-27 16:22:02.828,-9.47867132672037
2025-03-27 16:22:02.829,-7.6237304120213825
2025-03-27 16:22:02.829,1.9624847680299697
2025-03-27 16:22:02.829,10.27407333698093
2025-03-27 16:22:02.829,8.991761664487068
2025-03-27 16:22:02.837,-1.1412677425624984
2025-03-27 16:22:02.837,-10.322768017472045
2025-03-27 16:22:02.837,-9.118038558577927
2025-03-27 16:22:02.837,1.3616799647065827
2025-03-27 16:22:02.847,9.998100501219966
2025-03-27 16:22:02.847,7.714526141556647
2025-03-27 16:22:02.847,-2.332312251522425
2025-03-27 16:22:02.847,-8.740102717745469
2025-03-27 16:22:02.847,-5.222435188224756
2025-03-27 16:22:02.856,2.9286346308576174
2025-03-27 16:22:02.857,6.302426126766472
2025-03-27 16:22:02.857,2.479295633978323
2025-03-27 16:22:02.857,-2.6333352088251036
2025-03-27 16:22:02.857,-3.2737662629008044
2025-03-27 16:22:02.866,-0.378432057251445
2025-03-27 16:22:02.867,1.3817877845594038
2025-03-27 16:22:02.869,0.5050115614160029
2025-03-27 16:22:02.869,-0.29856736645945153
2025-03-27 16:22:02.869,0.7446994283546915
2025-03-27 16:22:02.876,1.5232395611738416
2025-03-27 16:22:02.877,-0.4188712388812098
2025-03-27 16:22:02.877,-3.38446447631148
2025-03-27 16:22:02.877,-2.9955369629679907
2025-03-27 16:22:02.877,1.7525542356398018
2025-03-27 16:22:02.886,5.936929671492509
2025-03-27 16:22:02.887,4.012772883300883
2025-03-27 16:22:02.887,-2.870572700906864
2025-03-27 16:22:02.887,-7.244640500299096
2025-03-27 16:22:02.887,-4.047712775830315
2025-03-27 16:22:02.897,3.029420342051287
2025-03-27 16:22:02.897,6.081549791692761
2025-03-27 16:22:02.897,2.680908396742681
2025-03-27 16:22:02.897,-1.9425724221034404
2025-03-27 16:22:02.897,-2.528726139109632
2025-03-27 16:22:02.905,-0.2974356219473974
2025-03-27 16:22:02.905,0.18390237508446444
2025-03-27 16:22:02.905,-1.710172378530799
2025-03-27 16:22:02.905,-2.052860755833952
2025-03-27 16:22:02.906,1.1541799872220853
2025-03-27 16:22:02.915,4.407209498704464
2025-03-27 16:22:02.915,3.351888728675766
2025-03-27 16:22:02.915,-1.2144360521577084
2025-03-27 16:22:02.915,-4.42009304900578
2025-03-27 16:22:02.926,-3.413175818733338
2025-03-27 16:22:02.926,-0.010951002703902257
2025-03-27 16:22:02.926,2.526282351425307
2025-03-27 16:22:02.927,3.0303293822038206
2025-03-27 16:22:02.927,2.004067962910118
2025-03-27 16:22:02.927,-0.299905158903319
2025-03-27 16:22:02.935,-3.352790222081669
2025-03-27 16:22:02.935,-4.658303064822659
2025-03-27 16:22:02.935,-1.41540014242465
2025-03-27 16:22:02.935,4.850848189700489
2025-03-27 16:22:02.936,7.662536817834041
2025-03-27 16:22:02.945,2.5451149543365053
2025-03-27 16:22:02.945,-6.24550367961048
2025-03-27 16:22:02.945,-9.379577253740264
2025-03-27 16:22:02.945,-3.35544884892993
2025-03-27 16:22:02.954,5.336832542710834
2025-03-27 16:22:02.955,8.198035752417143
2025-03-27 16:22:02.955,4.045345078755116
2025-03-27 16:22:02.955,-1.6612916275610339
2025-03-27 16:22:02.955,-4.39017610039129
2025-03-27 16:22:02.965,-4.215592566308704
2025-03-27 16:22:02.965,-2.799329658000654
2025-03-27 16:22:02.965,-0.30550177029476716
2025-03-27 16:22:02.965,3.248744929341855
2025-03-27 16:22:02.965,5.6469354846621815
2025-03-27 16:22:02.974,3.9663526639678865
2025-03-27 16:22:02.975,-1.4008294526655316
2025-03-27 16:22:02.975,-5.877286917828728
2025-03-27 16:22:02.975,-5.148678373325814
2025-03-27 16:22:02.975,-0.07662058983001696
2025-03-27 16:22:02.985,4.099614933648275
2025-03-27 16:22:02.985,3.6465735731170086
2025-03-27 16:22:02.985,0.19949084124832323
2025-03-27 16:22:02.985,-1.901777130107317
2025-03-27 16:22:02.985,-0.9725356934544102
2025-03-27 16:22:02.995,0.7184216940969077
2025-03-27 16:22:02.995,0.6060884588388467
2025-03-27 16:22:02.995,-0.8874491479873018
2025-03-27 16:22:02.995,-1.4505623513115296
2025-03-27 16:22:02.995,-0.2281391549647993
2025-03-27 16:22:03.004,1.2219982288217408
2025-03-27 16:22:03.005,1.216718855212364
2025-03-27 16:22:03.005,0.05330528400554975
2025-03-27 16:22:03.005,-0.6927164651886843
2025-03-27 16:22:03.005,-0.324467837642061
2025-03-27 16:22:03.013,0.28371496459180423
2025-03-27 16:22:03.013,0.09412480597734663
2025-03-27 16:22:03.014,-0.6237575248568965
2025-03-27 16:22:03.014,-0.6773641454883752
2025-03-27 16:22:03.014,0.35918185609595343
2025-03-27 16:22:03.023,1.3861269025576999
2025-03-27 16:22:03.023,0.9804830579875773
2025-03-27 16:22:03.023,-0.835886277856943
2025-03-27 16:22:03.023,-2.23971781712863
2025-03-27 16:22:03.033,-1.2319556642832334
2025-03-27 16:22:03.033,1.9000980974069008
2025-03-27 16:22:03.033,3.8407473476250016
2025-03-27 16:22:03.033,1.3455119950171073
2025-03-27 16:22:03.033,-4.055590552331718
2025-03-27 16:22:03.043,-6.141589991734269
2025-03-27 16:22:03.043,-1.0565660761043252
2025-03-27 16:22:03.043,6.574455729026791
2025-03-27 16:22:03.043,7.784983176345155
2025-03-27 16:22:03.043,0.30490136252964706
2025-03-27 16:22:03.052,-7.631367780859611
2025-03-27 16:22:03.053,-6.968512231659416
2025-03-27 16:22:03.053,0.8102310869132741
2025-03-27 16:22:03.053,5.838549717285812
2025-03-27 16:22:03.053,2.9373032108674564
2025-03-27 16:22:03.063,-2.143321618252015
2025-03-27 16:22:03.063,-1.683426198198274
2025-03-27 16:22:03.063,2.831139250256484
2025-03-27 16:22:03.063,3.2801374045033374
2025-03-27 16:22:03.064,-2.6430558748865556
2025-03-27 16:22:03.073,-7.256542926181587
2025-03-27 16:22:03.073,-3.3914954156362116
2025-03-27 16:22:03.073,5.107159467537678
2025-03-27 16:22:03.073,7.9303548405084685
2025-03-27 16:22:03.073,1.906280576444762
2025-03-27 16:22:03.083,-5.056645029995483
2025-03-27 16:22:03.083,-4.814932447156324
2025-03-27 16:22:03.083,0.648605201294161
2025-03-27 16:22:03.083,3.1284686989449817
2025-03-27 16:22:03.083,-0.10243647964924618
2025-03-27 16:22:03.092,-3.2031602770908987
2025-03-27 16:22:03.093,-0.6915075143544421
2025-03-27 16:22:03.093,4.558989907955529
2025-03-27 16:22:03.093,5.02962945532564
2025-03-27 16:22:03.093,-1.2318630697501896
2025-03-27 16:22:03.103,-7.347343673907653
2025-03-27 16:22:03.103,-5.66308452943147
2025-03-27 16:22:03.103,2.690746207605092
2025-03-27 16:22:03.103,8.519396273060604
2025-03-27 16:22:03.103,5.057656443053071
2025-03-27 16:22:03.113,-4.026288501645199
2025-03-27 16:22:03.113,-8.645009774492705
2025-03-27 16:22:03.113,-3.8048478683520255
2025-03-27 16:22:03.113,4.765318348979707
2025-03-27 16:22:03.113,7.48133413897236
2025-03-27 16:22:03.121,2.1373147587669683
2025-03-27 16:22:03.121,-4.041262611305354
2025-03-27 16:22:03.121,-3.957338494968293
2025-03-27 16:22:03.121,0.5280375102362598
2025-03-27 16:22:03.122,2.039233045977327
2025-03-27 16:22:03.131,-1.554552907123141
2025-03-27 16:22:03.131,-4.15035270424421
2025-03-27 16:22:03.131,-0.38728865092943676
2025-03-27 16:22:03.131,6.156295912784322
2025-03-27 16:22:03.132,7.197158958604556
2025-03-27 16:22:03.141,0.6175353585555501
2025-03-27 16:22:03.141,-6.780623003118679
2025-03-27 16:22:03.141,-7.785477432706394
2025-03-27 16:22:03.141,-2.7124633816627792
2025-03-27 16:22:03.151,2.8080381958730105
2025-03-27 16:22:03.151,5.249573605856552
2025-03-27 16:22:03.151,5.31869906053826
2025-03-27 16:22:03.151,3.853350597310253
2025-03-27 16:22:03.151,-0.34872190534049663
2025-03-27 16:22:03.161,-6.84793028020572
2025-03-27 16:22:03.161,-10.375431419236433
2025-03-27 16:22:03.161,-5.217419662288268
2025-03-27 16:22:03.161,6.533542574550828
2025-03-27 16:22:03.161,14.22666829705578
2025-03-27 16:22:03.169,9.17961311638442
2025-03-27 16:22:03.169,-4.705256156970412
2025-03-27 16:22:03.169,-13.886781790878043
2025-03-27 16:22:03.169,-9.733681414305261
2025-03-27 16:22:03.179,2.2215507938842407
2025-03-27 16:22:03.179,9.445162244713
2025-03-27 16:22:03.179,6.776700901641005
2025-03-27 16:22:03.179,0.2205056628995984
2025-03-27 16:22:03.179,-2.845545802629281
2025-03-27 16:22:03.189,-2.2695338891360635
2025-03-27 16:22:03.189,-1.8626540898668886
2025-03-27 16:22:03.189,-2.138320975839929
2025-03-27 16:22:03.189,-0.9409901562227633
2025-03-27 16:22:03.189,1.2375658599952946
2025-03-27 16:22:03.199,1.8902613249822788
2025-03-27 16:22:03.199,1.4515369117137076
2025-03-27 16:22:03.199,2.3356706357449886
2025-03-27 16:22:03.199,3.1793409433958617
2025-03-27 16:22:03.199,-0.1530682787827736
2025-03-27 16:22:03.209,-6.451982700700069
2025-03-27 16:22:03.209,-7.994773655692129
2025-03-27 16:22:03.209,-1.0647180545113855
2025-03-27 16:22:03.209,7.141950089867677
2025-03-27 16:22:03.209,7.343073960403403
2025-03-27 16:22:03.219,0.8223408283105661
2025-03-27 16:22:03.219,-3.0620623237661535
2025-03-27 16:22:03.219,-0.8544887044874923
2025-03-27 16:22:03.219,0.825344757456798
2025-03-27 16:22:03.219,-3.0380026868350067
2025-03-27 16:22:03.228,-6.879464533745866
2025-03-27 16:22:03.229,-2.629783771002232
2025-03-27 16:22:03.229,7.131029978484338
2025-03-27 16:22:03.229,10.988408420049158
2025-03-27 16:22:03.229,3.553643285368822
2025-03-27 16:22:03.237,-7.31602679334065
2025-03-27 16:22:03.237,-10.326565544231233
2025-03-27 16:22:03.237,-3.714500239187093
2025-03-27 16:22:03.237,4.621637822082445
2025-03-27 16:22:03.247,7.201855644550483
2025-03-27 16:22:03.247,3.579177640151883
2025-03-27 16:22:03.247,-1.7687642232873626
2025-03-27 16:22:03.247,-4.455642473814632
2025-03-27 16:22:03.247,-2.908135810405397
2025-03-27 16:22:03.256,1.0578611436007475
2025-03-27 16:22:03.257,3.4118169473926887
2025-03-27 16:22:03.257,1.4844892030242198
2025-03-27 16:22:03.257,-2.688537034341294
2025-03-27 16:22:03.257,-3.9731879728558943
2025-03-27 16:22:03.267,-0.10156138176383059
2025-03-27 16:22:03.267,5.0333313587804005
2025-03-27 16:22:03.267,5.395012413334566
2025-03-27 16:22:03.267,-0.18393485887887484
2025-03-27 16:22:03.267,-6.255093078719546
2025-03-27 16:22:03.277,-6.523008567286072
2025-03-27 16:22:03.277,-0.7113518127456111
2025-03-27 16:22:03.277,5.258246708003891
2025-03-27 16:22:03.277,5.9376192286110605
2025-03-27 16:22:03.277,1.9441091796073642
2025-03-27 16:22:03.286,-1.975756512498634
2025-03-27 16:22:03.287,-3.0659788497016622
2025-03-27 16:22:03.287,-2.527514047188621
2025-03-27 16:22:03.287,-1.9053985049444284
2025-03-27 16:22:03.287,-0.5989544709530493
2025-03-27 16:22:03.297,1.866810795999182
2025-03-27 16:22:03.297,3.5772837686285452
2025-03-27 16:22:03.297,2.442513089610534
2025-03-27 16:22:03.297,-0.4993185175429774
2025-03-27 16:22:03.297,-2.1128166608046026
2025-03-27 16:22:03.305,-1.202484537196564
2025-03-27 16:22:03.305,0.20468412631960042
2025-03-27 16:22:03.305,-0.14305943349521888
2025-03-27 16:22:03.305,-1.7351203733539216
2025-03-27 16:22:03.306,-2.044172836648614
2025-03-27 16:22:03.315,0.24702383511299536
2025-03-27 16:22:03.315,3.4516447820759995
2025-03-27 16:22:03.315,4.465400950572892
2025-03-27 16:22:03.315,1.9673314817405054
2025-03-27 16:22:03.316,-2.1642850702982446
2025-03-27 16:22:03.325,-4.6561938617177345
2025-03-27 16:22:03.325,-3.8479170555737454
2025-03-27 16:22:03.325,-0.838571862090355
2025-03-27 16:22:03.325,1.9370178084925798
2025-03-27 16:22:03.335,2.874946948858807
2025-03-27 16:22:03.335,2.2094818735450996
2025-03-27 16:22:03.335,1.2986407399694446
2025-03-27 16:22:03.335,0.8603552570639381
2025-03-27 16:22:03.335,-0.014124878312658712
2025-03-27 16:22:03.344,-2.39057944775339
2025-03-27 16:22:03.345,-4.921762802002494
2025-03-27 16:22:03.345,-4.190884685244313
2025-03-27 16:22:03.345,1.0401495788494413
2025-03-27 16:22:03.345,6.8053336847952215
