timestamp,bandpass_and_notch
2025-03-23 17:18:37.423,-0.24950572573942098
2025-03-23 17:18:37.424,3.3115845297079938
2025-03-23 17:18:37.424,3.611170790105586
2025-03-23 17:18:37.424,-6.261178579482264
2025-03-23 17:18:37.432,-22.688937214085183
2025-03-23 17:18:37.433,-23.722954260915756
2025-03-23 17:18:37.433,5.914931270577342
2025-03-23 17:18:37.433,44.35427228927314
2025-03-23 17:18:37.433,47.048031992719736
2025-03-23 17:18:37.441,-0.12379280058170128
2025-03-23 17:18:37.441,-55.53561777875132
2025-03-23 17:18:37.441,-62.84894169914808
2025-03-23 17:18:37.441,-13.054289126844877
2025-03-23 17:18:37.449,45.86898322530704
2025-03-23 17:18:37.449,61.128182647139525
2025-03-23 17:18:37.449,26.892782225161387
2025-03-23 17:18:37.450,-18.883378717532928
2025-03-23 17:18:37.459,-39.01007124595936
2025-03-23 17:18:37.459,-28.594868094250646
2025-03-23 17:18:37.459,-6.550851599890144
2025-03-23 17:18:37.459,10.408426807718476
2025-03-23 17:18:37.459,18.464569378930793
2025-03-23 17:18:37.467,18.86600776530687
2025-03-23 17:18:37.467,11.066507924915566
2025-03-23 17:18:37.467,-3.408678612061841
2025-03-23 17:18:37.467,-16.394445280848615
2025-03-23 17:18:37.477,-18.21499057829808
2025-03-23 17:18:37.477,-7.506403251579612
2025-03-23 17:18:37.477,6.605878409115951
2025-03-23 17:18:37.477,13.053958469794416
2025-03-23 17:18:37.477,8.831410114386829
2025-03-23 17:18:37.487,0.20878201124293572
2025-03-23 17:18:37.487,-4.96662638582169
2025-03-23 17:18:37.487,-4.663290688776812
2025-03-23 17:18:37.487,-2.1999394215495007
2025-03-23 17:18:37.487,-0.5082110580065057
2025-03-23 17:18:37.496,0.670143412764765
2025-03-23 17:18:37.497,2.1521196175646846
2025-03-23 17:18:37.497,2.742775026793138
2025-03-23 17:18:37.497,0.9564981047602387
2025-03-23 17:18:37.497,-2.1032670619692677
2025-03-23 17:18:37.507,-3.4793273706861356
2025-03-23 17:18:37.507,-1.7220535011680118
2025-03-23 17:18:37.507,1.682390763244017
2025-03-23 17:18:37.507,4.066001321748049
2025-03-23 17:18:37.507,3.762535486336284
2025-03-23 17:18:37.515,0.7977732109861257
2025-03-23 17:18:37.515,-3.2421423364030213
2025-03-23 17:18:37.515,-5.674038493601901
2025-03-23 17:18:37.515,-4.281330815327499
2025-03-23 17:18:37.516,0.483504145417581
2025-03-23 17:18:37.525,5.1486096279665485
2025-03-23 17:18:37.525,5.976241008754426
2025-03-23 17:18:37.525,2.405199090040536
2025-03-23 17:18:37.525,-2.432429828401341
2025-03-23 17:18:37.525,-4.696511700363974
2025-03-23 17:18:37.535,-3.240571632697867
2025-03-23 17:18:37.535,-0.13598551397856334
2025-03-23 17:18:37.535,1.813736120960037
2025-03-23 17:18:37.535,1.7174462969531403
2025-03-23 17:18:37.545,0.7591899142626926
2025-03-23 17:18:37.545,0.2161886417389867
2025-03-23 17:18:37.545,0.04269131656513078
2025-03-23 17:18:37.545,-0.34296045865463964
2025-03-23 17:18:37.545,-0.6577103749565703
2025-03-23 17:18:37.555,-0.16211163471754397
2025-03-23 17:18:37.555,0.7593628209990291
2025-03-23 17:18:37.555,0.6885722714872321
2025-03-23 17:18:37.555,-0.7896945584947512
2025-03-23 17:18:37.555,-2.1516390366287794
2025-03-23 17:18:37.565,-1.6158626890058176
2025-03-23 17:18:37.565,0.8331390076575278
2025-03-23 17:18:37.565,3.3656892423827354
2025-03-23 17:18:37.565,3.7027822455922523
2025-03-23 17:18:37.565,0.7975022583301081
2025-03-23 17:18:37.575,-3.7454850813241305
2025-03-23 17:18:37.575,-5.948168265688434
2025-03-23 17:18:37.575,-2.816589298162918
2025-03-23 17:18:37.575,3.689640857685688
2025-03-23 17:18:37.575,7.348914130645477
2025-03-23 17:18:37.585,3.9100073118923984
2025-03-23 17:18:37.585,-3.7081303626055315
2025-03-23 17:18:37.585,-7.878031277648777
2025-03-23 17:18:37.585,-4.267237595282943
2025-03-23 17:18:37.585,3.50826537686309
2025-03-23 17:18:37.594,7.73183315996963
2025-03-23 17:18:37.595,4.560625203534823
2025-03-23 17:18:37.595,-2.4379099087556053
2025-03-23 17:18:37.595,-6.50519058312876
2025-03-23 17:18:37.595,-4.600086718757363
2025-03-23 17:18:37.605,0.4393525429244957
2025-03-23 17:18:37.605,3.9190972043804284
2025-03-23 17:18:37.605,3.9397106571313643
2025-03-23 17:18:37.605,1.7012692427073772
2025-03-23 17:18:37.605,-1.0377033889598115
2025-03-23 17:18:37.615,-3.074346959430299
2025-03-23 17:18:37.615,-3.159438131827416
2025-03-23 17:18:37.615,-0.5882087956416197
2025-03-23 17:18:37.615,2.984924106781445
2025-03-23 17:18:37.615,4.018302041951292
2025-03-23 17:18:37.625,0.8254475936016493
2025-03-23 17:18:37.625,-3.7543488693375253
2025-03-23 17:18:37.625,-4.832166566711607
2025-03-23 17:18:37.625,-0.8425111540516614
2025-03-23 17:18:37.625,4.401119446272941
2025-03-23 17:18:37.634,5.53450122332341
2025-03-23 17:18:37.635,1.283690227475383
2025-03-23 17:18:37.635,-4.12436113689187
2025-03-23 17:18:37.635,-5.337197044828164
2025-03-23 17:18:37.635,-1.4613675284422036
2025-03-23 17:18:37.644,3.159150720257894
2025-03-23 17:18:37.645,3.8315636518218694
2025-03-23 17:18:37.645,0.5425227718040632
2025-03-23 17:18:37.645,-2.498621685598995
2025-03-23 17:18:37.645,-1.9318495942953895
2025-03-23 17:18:37.654,1.1250347087222852
2025-03-23 17:18:37.655,2.7982373753807446
2025-03-23 17:18:37.655,1.0838204586549052
2025-03-23 17:18:37.655,-2.0489713825519127
2025-03-23 17:18:37.655,-3.1998638037259983
2025-03-23 17:18:37.665,-1.4497922778321812
2025-03-23 17:18:37.665,0.9843203638934983
2025-03-23 17:18:37.665,1.8274771664679108
2025-03-23 17:18:37.665,1.3922127570229819
2025-03-23 17:18:37.665,1.3900237300898102
2025-03-23 17:18:37.674,1.836404023912951
2025-03-23 17:18:37.675,0.7219883013674409
2025-03-23 17:18:37.675,-2.728203531069479
2025-03-23 17:18:37.675,-5.719321144413768
2025-03-23 17:18:37.675,-4.313035131235149
2025-03-23 17:18:37.684,1.6702528100777165
2025-03-23 17:18:37.685,7.257123724234496
2025-03-23 17:18:37.685,6.8740495811030735
2025-03-23 17:18:37.685,0.4077312021614246
2025-03-23 17:18:37.685,-6.08733851254823
2025-03-23 17:18:37.694,-6.518048429013883
2025-03-23 17:18:37.695,-1.2319266199814374
2025-03-23 17:18:37.695,3.7209349636971245
2025-03-23 17:18:37.695,3.7372810984133853
2025-03-23 17:18:37.695,0.4446990074605093
2025-03-23 17:18:37.704,-1.4728399275952802
2025-03-23 17:18:37.705,-0.5468696298473362
2025-03-23 17:18:37.705,0.50793529734444
2025-03-23 17:18:37.705,-0.3900023239021078
2025-03-23 17:18:37.705,-1.5402965398306285
2025-03-23 17:18:37.714,-0.41619277295351564
2025-03-23 17:18:37.715,1.9972704338448426
2025-03-23 17:18:37.715,2.2118654888016023
2025-03-23 17:18:37.715,-0.6370376260725086
2025-03-23 17:18:37.715,-3.06689149369036
2025-03-23 17:18:37.724,-1.7747157139354353
2025-03-23 17:18:37.724,1.7627795329492515
2025-03-23 17:18:37.725,3.1201545100102743
2025-03-23 17:18:37.725,0.7367451570431415
2025-03-23 17:18:37.725,-2.243954450945726
2025-03-23 17:18:37.733,-2.351911935871572
2025-03-23 17:18:37.733,-0.016138623114801992
2025-03-23 17:18:37.733,1.8566116492225269
2025-03-23 17:18:37.733,1.9047719980421043
2025-03-23 17:18:37.743,0.9004545923403905
2025-03-23 17:18:37.743,-0.6325459635448818
2025-03-23 17:18:37.743,-2.7061250368184444
2025-03-23 17:18:37.743,-3.8017465448882932
2025-03-23 17:18:37.743,-1.4169686864461992
2025-03-23 17:18:37.753,3.930125370075907
2025-03-23 17:18:37.753,7.294215960473611
2025-03-23 17:18:37.753,4.176534348144239
2025-03-23 17:18:37.753,-3.6684814118726505
2025-03-23 17:18:37.753,-9.121047911735799
2025-03-23 17:18:37.762,-6.831674809884405
2025-03-23 17:18:37.763,1.336750602024476
2025-03-23 17:18:37.763,8.19860627017951
2025-03-23 17:18:37.763,8.00966093684386
2025-03-23 17:18:37.763,1.404528453827498
2025-03-23 17:18:37.773,-5.553346933558284
2025-03-23 17:18:37.773,-6.926743264420673
2025-03-23 17:18:37.773,-2.216070484674514
2025-03-23 17:18:37.773,3.331382622971289
2025-03-23 17:18:37.773,4.108658290154713
2025-03-23 17:18:37.782,0.15690532097098903
2025-03-23 17:18:37.783,-2.9699785668132024
2025-03-23 17:18:37.783,-1.0123594964493874
2025-03-23 17:18:37.783,3.4564012945493205
2025-03-23 17:18:37.783,4.121403094687386
2025-03-23 17:18:37.792,-0.8222371682520062
2025-03-23 17:18:37.793,-5.964308205695526
2025-03-23 17:18:37.793,-5.219756525403988
2025-03-23 17:18:37.793,0.8099795162136835
2025-03-23 17:18:37.793,5.778590016360241
2025-03-23 17:18:37.801,5.01212400100173
2025-03-23 17:18:37.801,0.1433808288247102
2025-03-23 17:18:37.801,-3.659045942892312
2025-03-23 17:18:37.801,-3.4642437613327473
2025-03-23 17:18:37.802,-0.7178300130868216
2025-03-23 17:18:37.811,1.4303077756515346
2025-03-23 17:18:37.811,1.5212974944939248
2025-03-23 17:18:37.811,0.42024757239863864
2025-03-23 17:18:37.811,-0.3295699691784144
2025-03-23 17:18:37.812,-0.09985393458057712
2025-03-23 17:18:37.821,0.48802637141171623
2025-03-23 17:18:37.821,0.389199958805335
2025-03-23 17:18:37.821,-0.5996989894791043
2025-03-23 17:18:37.821,-1.426554584383956
2025-03-23 17:18:37.831,-0.9390361616734666
2025-03-23 17:18:37.831,0.6637064170530511
2025-03-23 17:18:37.831,1.9353571164625623
2025-03-23 17:18:37.831,1.6477919902458695
2025-03-23 17:18:37.831,-0.11872781916925366
2025-03-23 17:18:37.841,-2.0509851819886777
2025-03-23 17:18:37.841,-2.458458280859146
2025-03-23 17:18:37.841,-0.6037586257252244
2025-03-23 17:18:37.841,2.1602391537297425
2025-03-23 17:18:37.841,3.053105613741933
2025-03-23 17:18:37.851,0.692366498193846
2025-03-23 17:18:37.851,-2.76924593971363
2025-03-23 17:18:37.851,-3.408636858002813
2025-03-23 17:18:37.851,0.028183782601830187
2025-03-23 17:18:37.851,4.135729695236449
2025-03-23 17:18:37.861,4.166392485173958
2025-03-23 17:18:37.861,-0.6398631197647621
2025-03-23 17:18:37.861,-5.692048686649905
2025-03-23 17:18:37.861,-5.558908329130686
2025-03-23 17:18:37.861,0.20068653676242915
2025-03-23 17:18:37.870,6.21546225911746
2025-03-23 17:18:37.871,6.63722495459272
2025-03-23 17:18:37.871,1.0807331097421538
2025-03-23 17:18:37.871,-5.0819511222157985
2025-03-23 17:18:37.871,-6.21856332067557
2025-03-23 17:18:37.881,-1.9018939554059304
2025-03-23 17:18:37.881,3.1002459378589617
2025-03-23 17:18:37.881,4.027745563145246
2025-03-23 17:18:37.881,1.014220180100139
2025-03-23 17:18:37.881,-1.6040278634260368
2025-03-23 17:18:37.891,-0.8020543704827798
2025-03-23 17:18:37.891,1.440317893500847
2025-03-23 17:18:37.891,1.0900898016057483
2025-03-23 17:18:37.891,-2.1042598421739074
2025-03-23 17:18:37.891,-3.8979895434105805
2025-03-23 17:18:37.901,-1.2003451567284709
2025-03-23 17:18:37.901,3.508817002441532
2025-03-23 17:18:37.901,4.979836386485431
2025-03-23 17:18:37.901,1.4864912158878398
2025-03-23 17:18:37.901,-3.3106346561185562
2025-03-23 17:18:37.910,-4.657992679229915
2025-03-23 17:18:37.911,-1.6431763887001076
2025-03-23 17:18:37.911,2.3825283515413327
2025-03-23 17:18:37.911,3.5461203564485806
2025-03-23 17:18:37.911,1.2523937138749264
2025-03-23 17:18:37.920,-1.5743705275172852
2025-03-23 17:18:37.921,-1.9198181481534657
2025-03-23 17:18:37.921,-0.040079479403066776
2025-03-23 17:18:37.921,1.1914254262432173
2025-03-23 17:18:37.921,0.14888983235234315
2025-03-23 17:18:37.931,-1.487536657799115
2025-03-23 17:18:37.931,-1.16306167638643
2025-03-23 17:18:37.931,0.993511097188368
2025-03-23 17:18:37.931,2.289574744565782
2025-03-23 17:18:37.931,1.035555201933132
2025-03-23 17:18:37.940,-1.2352750319863697
2025-03-23 17:18:37.941,-1.7973875053140305
2025-03-23 17:18:37.941,-0.2577668240750055
2025-03-23 17:18:37.941,1.1023877098333652
2025-03-23 17:18:37.941,0.5136672407145564
2025-03-23 17:18:37.950,-0.9631283744714016
2025-03-23 17:18:37.951,-1.0734427404375395
2025-03-23 17:18:37.951,0.46189523348461253
2025-03-23 17:18:37.951,1.6642551977572977
2025-03-23 17:18:37.951,1.0846437754602014
2025-03-23 17:18:37.959,-0.41933092233370683
2025-03-23 17:18:37.959,-1.1847097589406526
2025-03-23 17:18:37.959,-0.9303574897453251
2025-03-23 17:18:37.959,-0.5078682753323019
2025-03-23 17:18:37.960,-0.1864840054813679
2025-03-23 17:18:37.969,0.5607730215656395
2025-03-23 17:18:37.969,1.6182749418756615
2025-03-23 17:18:37.970,1.720025663389775
2025-03-23 17:18:37.970,0.020201123284002774
2025-03-23 17:18:37.970,-2.3060452023568714
2025-03-23 17:18:37.979,-2.8724373476155307
2025-03-23 17:18:37.979,-0.7290784028445177
2025-03-23 17:18:37.979,2.3167679388573403
2025-03-23 17:18:37.980,3.455884438551394
2025-03-23 17:18:37.980,1.6522285812548387
2025-03-23 17:18:37.989,-1.626038743535727
2025-03-23 17:18:37.989,-3.863045456428946
2025-03-23 17:18:37.989,-3.1762311421548493
2025-03-23 17:18:37.990,0.5060387053256011
2025-03-23 17:18:37.990,4.6529815918083175
2025-03-23 17:18:37.999,5.221436569575743
2025-03-23 17:18:37.999,0.5901643387927547
2025-03-23 17:18:37.999,-5.422723093818694
2025-03-23 17:18:37.999,-6.620108082780564
2025-03-23 17:18:38.009,-1.4653023136762429
2025-03-23 17:18:38.009,4.730952922891847
2025-03-23 17:18:38.009,5.962156574674867
2025-03-23 17:18:38.009,2.2192322264152513
2025-03-23 17:18:38.009,-1.7477326420604606
2025-03-23 17:18:38.019,-2.9266031456378334
2025-03-23 17:18:38.019,-2.5734559418476644
2025-03-23 17:18:38.019,-2.430199329139649
2025-03-23 17:18:38.019,-1.4551386942078601
2025-03-23 17:18:38.019,1.8455087917699389
2025-03-23 17:18:38.029,5.4799278515284096
2025-03-23 17:18:38.029,5.179501316442555
2025-03-23 17:18:38.029,-0.03385852328215774
2025-03-23 17:18:38.029,-5.612332012270855
2025-03-23 17:18:38.029,-6.2680502891238
2025-03-23 17:18:38.039,-1.874746645491728
2025-03-23 17:18:38.039,2.949120651904952
2025-03-23 17:18:38.039,4.40234450798391
2025-03-23 17:18:38.039,2.793280843370902
2025-03-23 17:18:38.039,0.48541707874492024
2025-03-23 17:18:38.049,-1.2375345373628335
2025-03-23 17:18:38.049,-2.2785694490737947
2025-03-23 17:18:38.049,-2.3029119564674607
2025-03-23 17:18:38.049,-0.9797486559017932
2025-03-23 17:18:38.049,0.7595232854276152
2025-03-23 17:18:38.059,1.3367657557639012
2025-03-23 17:18:38.059,0.7278662802211141
2025-03-23 17:18:38.059,0.6722732630086764
2025-03-23 17:18:38.059,1.8307740739017713
2025-03-23 17:18:38.059,1.9927781752397893
2025-03-23 17:18:38.069,-1.0660418488016732
2025-03-23 17:18:38.069,-5.3009672409094115
2025-03-23 17:18:38.069,-5.417526229919938
2025-03-23 17:18:38.069,0.492176145995485
2025-03-23 17:18:38.069,7.082560217002776
2025-03-23 17:18:38.079,7.062013023263056
2025-03-23 17:18:38.079,0.08989557648248547
2025-03-23 17:18:38.079,-6.299491079059103
2025-03-23 17:18:38.079,-5.62068057825979
2025-03-23 17:18:38.079,0.04685755114967649
2025-03-23 17:18:38.089,3.5022738485266776
2025-03-23 17:18:38.089,1.8090990284597521
2025-03-23 17:18:38.089,-0.8781210783729796
2025-03-23 17:18:38.089,-0.07687549821360218
2025-03-23 17:18:38.089,2.576708006057336
2025-03-23 17:18:38.099,2.0086132286197493
2025-03-23 17:18:38.099,-2.5769095186361564
2025-03-23 17:18:38.099,-5.832973176572312
2025-03-23 17:18:38.099,-3.00062137568421
2025-03-23 17:18:38.099,3.6169434007525205
2025-03-23 17:18:38.109,6.941824521123256
2025-03-23 17:18:38.109,3.3802656870362675
2025-03-23 17:18:38.109,-3.12179856109456
2025-03-23 17:18:38.109,-5.8681223066918315
2025-03-23 17:18:38.109,-2.8407707528137554
2025-03-23 17:18:38.119,1.923230727881804
2025-03-23 17:18:38.119,3.5958455296807204
2025-03-23 17:18:38.119,1.5292435347192366
2025-03-23 17:18:38.119,-1.1304913242051184
2025-03-23 17:18:38.119,-1.4237803750763616
2025-03-23 17:18:38.129,0.45824622437460083
2025-03-23 17:18:38.129,1.6467945450246704
2025-03-23 17:18:38.129,-0.10599887725509695
2025-03-23 17:18:38.129,-3.296129920901465
2025-03-23 17:18:38.129,-3.5792752091957394
2025-03-23 17:18:38.138,1.000033785847069
2025-03-23 17:18:38.139,6.360295656842582
2025-03-23 17:18:38.139,6.067142013327082
2025-03-23 17:18:38.139,-0.9023337606268969
2025-03-23 17:18:38.139,-7.975460464420177
2025-03-23 17:18:38.148,-7.8256060777151975
2025-03-23 17:18:38.149,-0.3915807322488136
2025-03-23 17:18:38.149,7.141228585425375
2025-03-23 17:18:38.149,7.898215066553056
2025-03-23 17:18:38.149,1.8970201635065487
2025-03-23 17:18:38.159,-4.721783043997743
2025-03-23 17:18:38.159,-6.158203895769006
2025-03-23 17:18:38.159,-2.250903926557197
2025-03-23 17:18:38.159,2.3598231147891284
2025-03-23 17:18:38.159,3.5409335360392498
2025-03-23 17:18:38.169,1.3768432754584785
2025-03-23 17:18:38.169,-1.1077209111600756
2025-03-23 17:18:38.169,-1.596529012863015
2025-03-23 17:18:38.169,-0.2500664467750669
2025-03-23 17:18:38.169,1.204844308629388
2025-03-23 17:18:38.178,1.2011645017996775
2025-03-23 17:18:38.179,-0.42413202855104043
2025-03-23 17:18:38.179,-2.136859110021613
2025-03-23 17:18:38.179,-1.917522024958956
2025-03-23 17:18:38.179,0.5295672944891794
2025-03-23 17:18:38.188,2.931811285725056
2025-03-23 17:18:38.189,2.6094838762416988
2025-03-23 17:18:38.189,-0.3513512814406589
2025-03-23 17:18:38.189,-2.849766952408058
2025-03-23 17:18:38.189,-2.2533960098826924
2025-03-23 17:18:38.197,0.42888815529635305
2025-03-23 17:18:38.197,1.8213314936426133
2025-03-23 17:18:38.197,0.5166886574438634
2025-03-23 17:18:38.197,-1.1444851878198734
2025-03-23 17:18:38.207,-0.3832927040548893
2025-03-23 17:18:38.207,1.9541031851081374
2025-03-23 17:18:38.207,2.286457371476973
2025-03-23 17:18:38.207,-0.7231455778775014
2025-03-23 17:18:38.207,-3.8306339641776197
2025-03-23 17:18:38.217,-3.0411189731846813
2025-03-23 17:18:38.217,1.1733031719767777
2025-03-23 17:18:38.217,4.135235333236934
2025-03-23 17:18:38.217,2.5519714365626296
2025-03-23 17:18:38.217,-1.510006913686431
2025-03-23 17:18:38.227,-3.169459690168303
2025-03-23 17:18:38.227,-0.6809777352836272
2025-03-23 17:18:38.227,2.482527170417851
2025-03-23 17:18:38.227,2.033712542048701
2025-03-23 17:18:38.227,-1.6386083396828302
2025-03-23 17:18:38.237,-3.836117754288032
2025-03-23 17:18:38.237,-1.4459361328318936
2025-03-23 17:18:38.237,3.0546565378735884
2025-03-23 17:18:38.237,4.539489082871155
2025-03-23 17:18:38.237,1.359331084041784
2025-03-23 17:18:38.247,-2.920182380386562
2025-03-23 17:18:38.247,-3.941455399091161
2025-03-23 17:18:38.247,-1.3706739109720623
2025-03-23 17:18:38.247,1.5123156847735597
2025-03-23 17:18:38.247,2.1492973629013528
2025-03-23 17:18:38.257,1.1688480753459927
2025-03-23 17:18:38.257,0.4403866871474026
2025-03-23 17:18:38.257,0.19846837045900612
2025-03-23 17:18:38.257,-0.6557869907172896
2025-03-23 17:18:38.257,-2.0458564064044564
2025-03-23 17:18:38.267,-2.1877258528064383
2025-03-23 17:18:38.267,-0.08106013753769514
2025-03-23 17:18:38.267,2.5862317100964596
2025-03-23 17:18:38.267,3.067732704575328
2025-03-23 17:18:38.267,0.7622410746364128
2025-03-23 17:18:38.276,-2.0769187124041513
2025-03-23 17:18:38.277,-2.830140556213276
2025-03-23 17:18:38.277,-1.0626540521007208
2025-03-23 17:18:38.277,1.4237392794250257
2025-03-23 17:18:38.277,2.392673523874673
2025-03-23 17:18:38.286,0.9221981334069134
2025-03-23 17:18:38.287,-1.7717919058747136
2025-03-23 17:18:38.287,-2.893613097579846
2025-03-23 17:18:38.287,-0.5459215220750844
2025-03-23 17:18:38.287,3.451407941325076
2025-03-23 17:18:38.295,4.388920514699081
2025-03-23 17:18:38.295,0.04584635841021792
2025-03-23 17:18:38.295,-5.445270912007347
2025-03-23 17:18:38.295,-5.525909522378022
2025-03-23 17:18:38.305,0.6314632871430362
2025-03-23 17:18:38.305,6.307333336186208
2025-03-23 17:18:38.305,5.044506462130167
2025-03-23 17:18:38.305,-1.4707309306622585
2025-03-23 17:18:38.305,-5.585036989410768
2025-03-23 17:18:38.315,-3.0864277357708936
2025-03-23 17:18:38.315,2.1568369161858647
2025-03-23 17:18:38.315,3.745678336841377
2025-03-23 17:18:38.315,0.7313716769759646
2025-03-23 17:18:38.315,-2.1360854302217938
2025-03-23 17:18:38.325,-1.2963445523088886
2025-03-23 17:18:38.325,1.212656869166854
2025-03-23 17:18:38.325,1.2269794688993956
2025-03-23 17:18:38.325,-1.5040015133252063
2025-03-23 17:18:38.325,-2.8707460854619127
2025-03-23 17:18:38.335,0.023793217358737087
2025-03-23 17:18:38.335,4.511882670902014
2025-03-23 17:18:38.335,4.899497277104648
2025-03-23 17:18:38.335,-0.7213713165248752
2025-03-23 17:18:38.335,-7.28617948487872
2025-03-23 17:18:38.345,-7.4684181302275805
2025-03-23 17:18:38.345,0.21606414073157526
2025-03-23 17:18:38.345,8.844819273417894
2025-03-23 17:18:38.345,9.66878173114671
2025-03-23 17:18:38.345,1.3614497366573073
2025-03-23 17:18:38.355,-8.209492402870508
2025-03-23 17:18:38.355,-10.02416925175375
2025-03-23 17:18:38.355,-3.054456429255713
2025-03-23 17:18:38.355,5.409035273475976
2025-03-23 17:18:38.355,7.888788573668005
2025-03-23 17:18:38.365,3.7449334543814556
2025-03-23 17:18:38.365,-1.8751045159478437
2025-03-23 17:18:38.365,-4.247775693031568
2025-03-23 17:18:38.365,-2.9325879791981695
2025-03-23 17:18:38.365,-0.4334234662210642
2025-03-23 17:18:38.373,1.0272053246051849
2025-03-23 17:18:38.373,0.986968887618301
2025-03-23 17:18:38.373,0.328961550005829
2025-03-23 17:18:38.374,0.2848386949190764
2025-03-23 17:18:38.374,1.216205952062857
2025-03-23 17:18:38.383,1.7931070848309503
2025-03-23 17:18:38.383,0.22266379761752036
2025-03-23 17:18:38.383,-2.883398633225416
2025-03-23 17:18:38.384,-4.010837473271913
2025-03-23 17:18:38.384,-0.8537072813995206
2025-03-23 17:18:38.393,3.7218511461390915
2025-03-23 17:18:38.393,4.294095454831812
2025-03-23 17:18:38.393,-0.08478626658220662
2025-03-23 17:18:38.394,-3.9904850950659028
2025-03-23 17:18:38.403,-2.3783958822178706
2025-03-23 17:18:38.403,2.638469688094209
2025-03-23 17:18:38.403,4.297367976653336
2025-03-23 17:18:38.403,-0.06717655936525435
2025-03-23 17:18:38.404,-5.410695201830509
2025-03-23 17:18:38.413,-5.076951335705826
2025-03-23 17:18:38.413,1.1395012882463826
2025-03-23 17:18:38.413,6.732673027730888
2025-03-23 17:18:38.413,5.935293127560021
2025-03-23 17:18:38.414,-0.16887145257524738
2025-03-23 17:18:38.423,-5.544561664091477
2025-03-23 17:18:38.423,-5.914396880460746
2025-03-23 17:18:38.423,-2.1775403913720215
2025-03-23 17:18:38.423,2.148351565822861
2025-03-23 17:18:38.424,4.659862438906467
2025-03-23 17:18:38.433,4.582762495322748
2025-03-23 17:18:38.433,1.7238753511037954
2025-03-23 17:18:38.433,-2.865504213835712
2025-03-23 17:18:38.433,-5.911418916608867
2025-03-23 17:18:38.433,-4.178893867439725
2025-03-23 17:18:38.443,1.4325883043673284
2025-03-23 17:18:38.443,5.72678977645962
2025-03-23 17:18:38.443,4.539737279776344
2025-03-23 17:18:38.443,-0.5694280163699026
2025-03-23 17:18:38.443,-4.250472204482768
2025-03-23 17:18:38.453,-3.4570247440007313
2025-03-23 17:18:38.453,-0.11780314228638666
2025-03-23 17:18:38.453,2.1311372101625827
2025-03-23 17:18:38.453,2.0428569710132867
2025-03-23 17:18:38.453,0.8368072936378999
2025-03-23 17:18:38.463,-0.2627614167028852
2025-03-23 17:18:38.463,-1.0039448288249666
2025-03-23 17:18:38.463,-1.2386370314959898
2025-03-23 17:18:38.463,-0.6596880292270793
2025-03-23 17:18:38.463,0.40885681659388273
2025-03-23 17:18:38.472,1.0068232644859836
2025-03-23 17:18:38.473,0.6872634563519655
2025-03-23 17:18:38.473,0.009868638659131831
2025-03-23 17:18:38.473,-0.3670065847484371
2025-03-23 17:18:38.473,-0.46037976539858055
2025-03-23 17:18:38.483,-0.5167917464032924
2025-03-23 17:18:38.483,-0.38329343167301694
2025-03-23 17:18:38.483,0.19513703925086928
2025-03-23 17:18:38.483,0.9822284433094153
2025-03-23 17:18:38.483,1.3441455871179544
2025-03-23 17:18:38.493,0.7705758093432528
2025-03-23 17:18:38.493,-0.7602828428313744
2025-03-23 17:18:38.493,-2.476964090561089
2025-03-23 17:18:38.493,-2.807971463222715
2025-03-23 17:18:38.493,-0.5797295779319532
2025-03-23 17:18:38.502,3.1004458424807777
2025-03-23 17:18:38.503,4.900229605684298
2025-03-23 17:18:38.503,2.4476682374110488
2025-03-23 17:18:38.503,-2.5410829363832206
2025-03-23 17:18:38.503,-5.443683909460664
2025-03-23 17:18:38.512,-3.5468283339015287
2025-03-23 17:18:38.513,1.035364618438837
2025-03-23 17:18:38.513,3.8523706808456657
2025-03-23 17:18:38.513,2.9537397294923
2025-03-23 17:18:38.513,0.36436523862629877
2025-03-23 17:18:38.521,-1.024627165339421
2025-03-23 17:18:38.521,-0.8199960826921842
2025-03-23 17:18:38.521,-0.72632007383021
2025-03-23 17:18:38.521,-1.534399860650207
2025-03-23 17:18:38.531,-1.8031339636427657
2025-03-23 17:18:38.531,0.004075455010181557
2025-03-23 17:18:38.531,2.838288169932067
2025-03-23 17:18:38.531,3.661419158911292
2025-03-23 17:18:38.532,1.0478245700046875
2025-03-23 17:18:38.541,-2.669612526147781
2025-03-23 17:18:38.541,-3.8139619117883283
2025-03-23 17:18:38.541,-1.5982841088688964
2025-03-23 17:18:38.541,1.2224730493748692
2025-03-23 17:18:38.541,2.012143380433521
2025-03-23 17:18:38.551,1.193777418716048
2025-03-23 17:18:38.551,0.7617339883639113
2025-03-23 17:18:38.551,0.9986900623983028
2025-03-23 17:18:38.551,0.24013551164856467
2025-03-23 17:18:38.552,-2.117153131365869
2025-03-23 17:18:38.561,-3.8201679553317365
2025-03-23 17:18:38.561,-2.1107859390124704
2025-03-23 17:18:38.561,2.3699194315817476
2025-03-23 17:18:38.561,5.271922698151261
2025-03-23 17:18:38.562,3.1062661830192657
2025-03-23 17:18:38.562,-2.2494844278164714
2025-03-23 17:18:38.571,-5.009379584653069
2025-03-23 17:18:38.571,-2.108915822651963
2025-03-23 17:18:38.572,2.7710454837853535
2025-03-23 17:18:38.572,3.411254394064323
2025-03-23 17:18:38.581,-0.9858751543298719
2025-03-23 17:18:38.581,-4.235704562442199
2025-03-23 17:18:38.581,-0.9892482251725714
2025-03-23 17:18:38.581,5.424154704986942
2025-03-23 17:18:38.582,6.076971436322374
2025-03-23 17:18:38.591,-1.8713455273183284
2025-03-23 17:18:38.591,-9.78736809677528
2025-03-23 17:18:38.591,-7.260597787057057
2025-03-23 17:18:38.591,4.212339872408833
2025-03-23 17:18:38.591,11.893982092756326
2025-03-23 17:18:38.600,7.148347178787288
2025-03-23 17:18:38.601,-4.24783036247708
2025-03-23 17:18:38.601,-9.963187383536658
2025-03-23 17:18:38.601,-5.890404219673387
2025-03-23 17:18:38.601,1.2395801911193531
2025-03-23 17:18:38.611,4.333186867758639
2025-03-23 17:18:38.611,3.682930897124795
2025-03-23 17:18:38.611,3.037389768508924
2025-03-23 17:18:38.611,2.4843412157175218
2025-03-23 17:18:38.611,-0.7216502385299735
2025-03-23 17:18:38.621,-5.766851022600081
2025-03-23 17:18:38.621,-7.231573620416434
2025-03-23 17:18:38.621,-1.997079183788121
2025-03-23 17:18:38.621,5.5315857572641995
2025-03-23 17:18:38.621,7.835868090706567
2025-03-23 17:18:38.629,3.0720895805232558
2025-03-23 17:18:38.629,-3.110473857960446
2025-03-23 17:18:38.629,-4.72722527468211
2025-03-23 17:18:38.630,-2.013561092205749
2025-03-23 17:18:38.630,0.4552342448726837
2025-03-23 17:18:38.639,0.30908082988353697
2025-03-23 17:18:38.639,-0.3919767007354047
2025-03-23 17:18:38.639,0.8154720710977499
2025-03-23 17:18:38.639,2.9175292287983052
2025-03-23 17:18:38.649,2.8245017109472292
2025-03-23 17:18:38.649,-0.3467357917987426
2025-03-23 17:18:38.649,-3.8231546628130295
2025-03-23 17:18:38.649,-4.172053751424082
2025-03-23 17:18:38.650,-1.00302739327747
2025-03-23 17:18:38.659,2.75293370265272
2025-03-23 17:18:38.659,3.951108260284815
2025-03-23 17:18:38.659,2.11524650851253
2025-03-23 17:18:38.659,-0.7417545710258816
2025-03-23 17:18:38.659,-2.486401107178601
2025-03-23 17:18:38.669,-2.4889082105262545
2025-03-23 17:18:38.669,-1.2529404189774573
2025-03-23 17:18:38.669,0.552424676089096
2025-03-23 17:18:38.669,2.2063709565735405
2025-03-23 17:18:38.669,2.705197054828702
2025-03-23 17:18:38.679,1.3278050760660949
2025-03-23 17:18:38.679,-1.3644607300416607
2025-03-23 17:18:38.679,-3.4843978931745454
2025-03-23 17:18:38.679,-3.137530800863272
2025-03-23 17:18:38.679,-0.07799951296229989
2025-03-23 17:18:38.689,3.634561126185172
2025-03-23 17:18:38.689,4.803578775200269
2025-03-23 17:18:38.689,1.8070723257358607
2025-03-23 17:18:38.689,-3.2547394125435467
2025-03-23 17:18:38.689,-5.750876327126577
2025-03-23 17:18:38.699,-2.957588973240409
2025-03-23 17:18:38.699,2.6402488971473796
2025-03-23 17:18:38.699,5.466410395853216
2025-03-23 17:18:38.699,2.769391253085943
2025-03-23 17:18:38.699,-2.2843623147379977
2025-03-23 17:18:38.709,-4.18717674007207
2025-03-23 17:18:38.709,-1.3102200256552041
2025-03-23 17:18:38.709,2.5142616693313924
2025-03-23 17:18:38.709,2.7402147887046415
2025-03-23 17:18:38.709,-0.6083079721059048
2025-03-23 17:18:38.719,-3.2402685027038647
2025-03-23 17:18:38.719,-1.8419752417625064
2025-03-23 17:18:38.719,2.0347978927187538
2025-03-23 17:18:38.719,3.9140932797253214
2025-03-23 17:18:38.719,1.6621161698449716
2025-03-23 17:18:38.729,-2.2504330868779756
2025-03-23 17:18:38.729,-3.84550561303169
2025-03-23 17:18:38.729,-1.9283274150173686
2025-03-23 17:18:38.729,1.2655523193111062
2025-03-23 17:18:38.729,2.8563668376420535
2025-03-23 17:18:38.737,1.9437023393640032
2025-03-23 17:18:38.737,-0.1197135994540492
2025-03-23 17:18:38.737,-1.345280310326899
2025-03-23 17:18:38.738,-0.9979830458919969
2025-03-23 17:18:38.738,-0.10038116577071662
2025-03-23 17:18:38.749,-0.016184638627092206
2025-03-23 17:18:38.749,-0.6816387472474515
2025-03-23 17:18:38.749,-0.7132394873197421
2025-03-23 17:18:38.749,0.6143563273186865
2025-03-23 17:18:38.749,2.060485433049043
2025-03-23 17:18:38.759,1.7186535610106843
2025-03-23 17:18:38.759,-0.4429124011031995
2025-03-23 17:18:38.759,-2.1564250978753585
2025-03-23 17:18:38.759,-1.5920605049534426
2025-03-23 17:18:38.759,0.11124472030310414
2025-03-23 17:18:38.769,0.4008320287254277
2025-03-23 17:18:38.769,-0.6787687065531703
2025-03-23 17:18:38.769,-0.14530349545869126
2025-03-23 17:18:38.769,2.995331060843238
2025-03-23 17:18:38.769,4.666131838749381
2025-03-23 17:18:38.777,0.5976584926626307
2025-03-23 17:18:38.777,-6.490386707576726
2025-03-23 17:18:38.777,-8.395435499045323
2025-03-23 17:18:38.778,-1.4178813091287712
2025-03-23 17:18:38.778,7.996912399429447
2025-03-23 17:18:38.787,9.984907868199258
2025-03-23 17:18:38.787,2.402630447287151
2025-03-23 17:18:38.787,-6.929418003627784
2025-03-23 17:18:38.787,-8.94451104540744
2025-03-23 17:18:38.797,-2.6743480287302335
2025-03-23 17:18:38.797,4.651548605506875
2025-03-23 17:18:38.797,5.921673004318745
2025-03-23 17:18:38.797,1.3927482231882418
2025-03-23 17:18:38.797,-2.7578374153940985
2025-03-23 17:18:38.807,-2.205978223799501
2025-03-23 17:18:38.807,0.9138252692508821
2025-03-23 17:18:38.807,1.7559686782762058
2025-03-23 17:18:38.807,-0.6351662446305453
2025-03-23 17:18:38.807,-2.6040338072838605
2025-03-23 17:18:38.817,-1.3268519769251854
2025-03-23 17:18:38.817,1.5266859545513072
2025-03-23 17:18:38.817,2.559016081924224
2025-03-23 17:18:38.817,1.1781873564844747
2025-03-23 17:18:38.817,-0.45618790468440784
2025-03-23 17:18:38.827,-1.024559873940267
2025-03-23 17:18:38.827,-1.3241392755579546
2025-03-23 17:18:38.827,-1.8115136338190563
2025-03-23 17:18:38.827,-1.0852757143356304
2025-03-23 17:18:38.828,1.7032356102106108
2025-03-23 17:18:38.837,4.2121983256066855
2025-03-23 17:18:38.837,2.93650331173506
2025-03-23 17:18:38.837,-1.9359956182684317
2025-03-23 17:18:38.837,-5.615929336356871
2025-03-23 17:18:38.837,-3.8902742724998447
2025-03-23 17:18:38.847,1.7306394477054032
2025-03-23 17:18:38.847,5.439997061958532
2025-03-23 17:18:38.847,3.5937409159608977
2025-03-23 17:18:38.847,-1.392112141859737
2025-03-23 17:18:38.847,-4.070394084961687
2025-03-23 17:18:38.857,-2.162881384626598
2025-03-23 17:18:38.857,1.3067010540317117
2025-03-23 17:18:38.857,2.201364455493511
2025-03-23 17:18:38.857,0.3426697561390446
2025-03-23 17:18:38.857,-0.9979583767696079
2025-03-23 17:18:38.867,-0.1607727535625536
2025-03-23 17:18:38.867,0.6977982941804415
2025-03-23 17:18:38.867,-0.47085006382196687
2025-03-23 17:18:38.867,-1.7457899444272176
2025-03-23 17:18:38.867,-0.06875112089507826
2025-03-23 17:18:38.877,3.1000622115669176
2025-03-23 17:18:38.877,2.759186652452215
2025-03-23 17:18:38.877,-2.0991791725133258
2025-03-23 17:18:38.877,-5.593810938748863
2025-03-23 17:18:38.878,-2.3693913341125463
2025-03-23 17:18:38.887,4.468187190127528
2025-03-23 17:18:38.887,6.621963580880743
2025-03-23 17:18:38.887,1.2358789683310436
2025-03-23 17:18:38.887,-5.439025814134559
2025-03-23 17:18:38.887,-5.97969017029142
2025-03-23 17:18:38.897,-0.5076555465592174
2025-03-23 17:18:38.897,4.499692543176178
2025-03-23 17:18:38.897,4.338717618378916
2025-03-23 17:18:38.897,0.5271044161545652
2025-03-23 17:18:38.897,-2.435455646390688
2025-03-23 17:18:38.907,-2.3972696452726945
2025-03-23 17:18:38.907,-0.7664448340934769
2025-03-23 17:18:38.907,0.29859252661489705
2025-03-23 17:18:38.907,0.46300280696738383
2025-03-23 17:18:38.907,0.7976936146157647
2025-03-23 17:18:38.915,1.557564769080947
2025-03-23 17:18:38.915,1.37110639639944
2025-03-23 17:18:38.915,-0.7872520185376248
2025-03-23 17:18:38.916,-3.314611044999158
2025-03-23 17:18:38.916,-2.9981631975456615
2025-03-23 17:18:38.927,0.9574301285978903
2025-03-23 17:18:38.927,4.868253002935658
2025-03-23 17:18:38.927,4.137877730301404
2025-03-23 17:18:38.927,-1.0547457008941235
2025-03-23 17:18:38.927,-5.337716735300338
2025-03-23 17:18:38.935,-4.29561149191534
2025-03-23 17:18:38.935,0.45139932674767885
2025-03-23 17:18:38.935,3.7568181711262865
2025-03-23 17:18:38.936,3.258402639477679
2025-03-23 17:18:38.936,1.0327479169304004
2025-03-23 17:18:38.945,-0.4556033650831706
2025-03-23 17:18:38.945,-1.348552407884411
2025-03-23 17:18:38.945,-2.5152829798960625
2025-03-23 17:18:38.946,-2.886185802763248
2025-03-23 17:18:38.955,-0.7563427161755621
2025-03-23 17:18:38.955,2.8974647915552807
2025-03-23 17:18:38.955,4.53065221595102
2025-03-23 17:18:38.955,2.1415929361895687
2025-03-23 17:18:38.956,-2.0281981914678457
2025-03-23 17:18:38.965,-3.945374603530409
2025-03-23 17:18:38.965,-2.253637174135264
2025-03-23 17:18:38.965,0.7287049672220418
2025-03-23 17:18:38.965,2.094687532431097
2025-03-23 17:18:38.966,1.3335878478223269
2025-03-23 17:18:38.975,0.10212411328962011
2025-03-23 17:18:38.975,-0.16590089999771243
2025-03-23 17:18:38.975,0.17599968409626815
2025-03-23 17:18:38.975,-0.19648268198172741
2025-03-23 17:18:38.975,-1.4959720337558546
2025-03-23 17:18:38.985,-2.0776978775989368
2025-03-23 17:18:38.985,-0.34137381206715156
2025-03-23 17:18:38.985,2.718484401619539
2025-03-23 17:18:38.985,3.8461868491719184
2025-03-23 17:18:38.985,1.1801899981393111
2025-03-23 17:18:38.995,-2.9841984554352914
2025-03-23 17:18:38.995,-4.304517316828219
2025-03-23 17:18:38.995,-1.4143501945720525
2025-03-23 17:18:38.995,2.3142969634428483
2025-03-23 17:18:38.995,2.790097151740197
2025-03-23 17:18:39.005,0.1543678005781165
2025-03-23 17:18:39.005,-1.652462375267059
2025-03-23 17:18:39.005,-0.21799206858096712
2025-03-23 17:18:39.005,2.131622844085856
2025-03-23 17:18:39.005,1.611673328088971
2025-03-23 17:18:39.013,-1.6572458453666417
2025-03-23 17:18:39.013,-3.618737990740062
2025-03-23 17:18:39.013,-1.6925029194966623
2025-03-23 17:18:39.014,1.826600287733856
2025-03-23 17:18:39.014,2.939896603976724
2025-03-23 17:18:39.023,1.0971433979434
2025-03-23 17:18:39.023,-0.6895114401258425
2025-03-23 17:18:39.024,-0.4349632557899611
2025-03-23 17:18:39.024,0.30364553524007415
2025-03-23 17:18:39.024,-0.6456119617804039
2025-03-23 17:18:39.033,-2.3538306199261894
2025-03-23 17:18:39.033,-1.9225542214754499
2025-03-23 17:18:39.033,1.1771578400418732
2025-03-23 17:18:39.034,3.8750334814314886
2025-03-23 17:18:39.043,3.1379333752032053
2025-03-23 17:18:39.043,-0.46549251734811425
2025-03-23 17:18:39.043,-3.596433338380419
2025-03-23 17:18:39.043,-3.6967255349857844
2025-03-23 17:18:39.044,-0.983842627177939
2025-03-23 17:18:39.053,2.314136114912615
2025-03-23 17:18:39.053,3.704350052650896
2025-03-23 17:18:39.053,1.9896336677643554
2025-03-23 17:18:39.053,-1.5349508245845636
2025-03-23 17:18:39.053,-3.525082750617367
2025-03-23 17:18:39.063,-1.6886855852430864
2025-03-23 17:18:39.063,2.1529895638870564
2025-03-23 17:18:39.063,3.4703912559149352
2025-03-23 17:18:39.063,0.35620706727035106
2025-03-23 17:18:39.063,-3.661831758880319
2025-03-23 17:18:39.073,-3.542996519132001
2025-03-23 17:18:39.073,0.9814452378189575
2025-03-23 17:18:39.073,4.743693520874203
2025-03-23 17:18:39.073,3.302214988211952
2025-03-23 17:18:39.074,-1.6367666984416522
2025-03-23 17:18:39.083,-4.370490013533211
2025-03-23 17:18:39.083,-2.1756341306269884
2025-03-23 17:18:39.083,1.6987985193589985
2025-03-23 17:18:39.083,2.546406909702504
2025-03-23 17:18:39.084,0.13819719934605634
2025-03-23 17:18:39.093,-1.537710362439588
2025-03-23 17:18:39.093,-0.05468218443824312
2025-03-23 17:18:39.093,2.0902881781423446
2025-03-23 17:18:39.093,1.147633306587403
2025-03-23 17:18:39.094,-2.2565724952498893
2025-03-23 17:18:39.103,-3.546052893074106
2025-03-23 17:18:39.103,-0.39819332888764836
2025-03-23 17:18:39.103,3.743763027577712
2025-03-23 17:18:39.103,3.807915529245587
2025-03-23 17:18:39.103,-0.4884350394784716
2025-03-23 17:18:39.113,-4.214164157338671
2025-03-23 17:18:39.113,-3.1622201206309386
2025-03-23 17:18:39.113,1.2762066341386202
2025-03-23 17:18:39.113,3.9542781764921693
2025-03-23 17:18:39.113,2.018925994930204
2025-03-23 17:18:39.123,-1.9586753232278673
2025-03-23 17:18:39.123,-3.23496021171106
2025-03-23 17:18:39.123,-0.5822934499359811
2025-03-23 17:18:39.123,2.4067438429805
2025-03-23 17:18:39.124,2.028252295158212
2025-03-23 17:18:39.133,-0.7983825260746638
2025-03-23 17:18:39.133,-2.06636674503851
2025-03-23 17:18:39.133,-0.3716586754074038
2025-03-23 17:18:39.133,1.3372932298770464
2025-03-23 17:18:39.133,0.4319854397652948
2025-03-23 17:18:39.143,-1.3465930545914024
2025-03-23 17:18:39.143,-0.6180542423788251
2025-03-23 17:18:39.143,2.171309536705295
2025-03-23 17:18:39.143,2.830181957809671
2025-03-23 17:18:39.143,-0.654993552937846
2025-03-23 17:18:39.153,-4.6273089155582285
2025-03-23 17:18:39.153,-3.9493179547936195
2025-03-23 17:18:39.153,1.3186787633462158
2025-03-23 17:18:39.153,5.58688436455561
2025-03-23 17:18:39.153,4.35831439081526
2025-03-23 17:18:39.161,-0.684699059842079
2025-03-23 17:18:39.161,-4.287582684900682
2025-03-23 17:18:39.162,-3.814394933583421
2025-03-23 17:18:39.162,-1.0464330673996192
2025-03-23 17:18:39.162,1.3266852829336833
2025-03-23 17:18:39.171,2.57195005164924
2025-03-23 17:18:39.171,2.8827951758552817
2025-03-23 17:18:39.172,1.7343824371015824
2025-03-23 17:18:39.172,-1.0865561405870419
2025-03-23 17:18:39.172,-3.7993456247136086
2025-03-23 17:18:39.181,-3.733537212346872
2025-03-23 17:18:39.181,-0.33513534816616464
2025-03-23 17:18:39.182,3.7136126029215255
2025-03-23 17:18:39.182,4.7156819281438995
2025-03-23 17:18:39.182,1.3934146997892825
2025-03-23 17:18:39.191,-3.5398676166325287
2025-03-23 17:18:39.191,-5.3743795510840195
2025-03-23 17:18:39.191,-1.875655063751274
2025-03-23 17:18:39.192,3.888555388341864
2025-03-23 17:18:39.201,6.058686782510716
2025-03-23 17:18:39.201,2.0587201961314046
2025-03-23 17:18:39.201,-4.283923564929695
2025-03-23 17:18:39.201,-6.466815533507898
2025-03-23 17:18:39.201,-2.1667314127926116
2025-03-23 17:18:39.211,4.1824901243137385
2025-03-23 17:18:39.211,6.015292427248162
2025-03-23 17:18:39.211,1.6580604267361232
2025-03-23 17:18:39.211,-3.872507443429994
2025-03-23 17:18:39.211,-4.512014900995449
2025-03-23 17:18:39.221,-0.0411227275616039
2025-03-23 17:18:39.221,3.8444082092425695
2025-03-23 17:18:39.221,2.5201644973289534
2025-03-23 17:18:39.221,-2.032239056950157
2025-03-23 17:18:39.221,-3.983380800747759
2025-03-23 17:18:39.231,-0.9942812993079702
2025-03-23 17:18:39.231,3.239995965288144
2025-03-23 17:18:39.231,3.9030410940562033
2025-03-23 17:18:39.231,0.573663372862932
2025-03-23 17:18:39.231,-3.0845784126092033
2025-03-23 17:18:39.241,-3.7137184230002855
2025-03-23 17:18:39.241,-1.0946524612891702
2025-03-23 17:18:39.241,2.4233458565358403
2025-03-23 17:18:39.241,3.91425353010682
2025-03-23 17:18:39.242,1.8700701739683676
2025-03-23 17:18:39.251,-2.266286971221199
2025-03-23 17:18:39.251,-4.624938612610831
2025-03-23 17:18:39.251,-2.423222724345007
2025-03-23 17:18:39.251,2.5838587847676706
2025-03-23 17:18:39.251,5.2874778944361625
2025-03-23 17:18:39.261,2.6546196628340595
2025-03-23 17:18:39.261,-2.676941973482299
2025-03-23 17:18:39.261,-5.142862265560043
2025-03-23 17:18:39.261,-2.4096784581162143
2025-03-23 17:18:39.261,2.1671115553700355
2025-03-23 17:18:39.271,3.6804785396733286
2025-03-23 17:18:39.271,1.4047648894716172
2025-03-23 17:18:39.271,-1.0015880104528117
2025-03-23 17:18:39.271,-0.8819362584029714
2025-03-23 17:18:39.271,0.07026675860631362
2025-03-23 17:18:39.279,-0.7666292624381009
2025-03-23 17:18:39.279,-2.255882836194592
2025-03-23 17:18:39.279,-1.1408305333202213
2025-03-23 17:18:39.280,2.3891952611727625
2025-03-23 17:18:39.280,4.102231203924729
2025-03-23 17:18:39.289,1.4511342621939856
2025-03-23 17:18:39.289,-2.746016342792144
2025-03-23 17:18:39.290,-3.9196725627226807
2025-03-23 17:18:39.290,-1.3374616352973963
2025-03-23 17:18:39.299,1.716839606064482
2025-03-23 17:18:39.299,2.4023341829458995
2025-03-23 17:18:39.299,1.0818429449841507
2025-03-23 17:18:39.299,-0.24166757216612295
2025-03-23 17:18:39.300,-0.6337062018978511
2025-03-23 17:18:39.309,-0.6993893445612793
2025-03-23 17:18:39.309,-1.0348112775638993
2025-03-23 17:18:39.309,-1.0259182466113934
2025-03-23 17:18:39.310,0.3366724636958827
2025-03-23 17:18:39.310,2.419923273923703
2025-03-23 17:18:39.310,2.6745955051458257
2025-03-23 17:18:39.319,-0.35176101998055487
2025-03-23 17:18:39.319,-4.116524195809703
2025-03-23 17:18:39.319,-4.10282216854768
2025-03-23 17:18:39.320,0.5920715967084487
2025-03-23 17:18:39.329,5.314516622707044
2025-03-23 17:18:39.329,4.885333309754027
2025-03-23 17:18:39.329,-0.3316548247327529
2025-03-23 17:18:39.329,-4.931761123022337
2025-03-23 17:18:39.330,-4.687622645361762
2025-03-23 17:18:39.339,-0.68078339407045
2025-03-23 17:18:39.339,2.909543925310645
2025-03-23 17:18:39.339,3.4887412059695513
2025-03-23 17:18:39.340,1.6667961316136626
2025-03-23 17:18:39.340,-0.5314286678520705
2025-03-23 17:18:39.349,-1.671826078186753
2025-03-23 17:18:39.349,-1.5079973667952675
2025-03-23 17:18:39.349,-0.7211465361946117
2025-03-23 17:18:39.349,-0.20174867955954454
2025-03-23 17:18:39.350,-0.06429058545111586
2025-03-23 17:18:39.359,0.47827254652062445
2025-03-23 17:18:39.359,1.6863293721692996
2025-03-23 17:18:39.359,2.1344186173994824
2025-03-23 17:18:39.359,0.2647611868057333
2025-03-23 17:18:39.359,-2.7166689045112804
2025-03-23 17:18:39.369,-3.2462963923625576
2025-03-23 17:18:39.369,0.00014089865587826877
2025-03-23 17:18:39.369,3.3901953620119
2025-03-23 17:18:39.369,2.48165969554576
2025-03-23 17:18:39.369,-1.7554480512014887
2025-03-23 17:18:39.379,-3.6737156002600795
2025-03-23 17:18:39.379,-0.44495009417825343
2025-03-23 17:18:39.379,3.8876912890041417
2025-03-23 17:18:39.379,3.6197659449648723
2025-03-23 17:18:39.379,-1.1760082661313307
2025-03-23 17:18:39.389,-4.863281959925097
2025-03-23 17:18:39.389,-3.3427631422609565
2025-03-23 17:18:39.389,1.3641098278573438
2025-03-23 17:18:39.389,4.128975510955911
2025-03-23 17:18:39.389,2.6636926295889674
2025-03-23 17:18:39.397,-0.6806629360254777
2025-03-23 17:18:39.397,-2.3194069509246584
2025-03-23 17:18:39.398,-1.321690923541107
2025-03-23 17:18:39.398,0.3520795516433644
2025-03-23 17:18:39.398,0.6178234063385627
2025-03-23 17:18:39.409,-0.49367003789002895
2025-03-23 17:18:39.409,-1.1778416529439557
2025-03-23 17:18:39.409,0.040655568276240325
2025-03-23 17:18:39.409,2.427814577651029
2025-03-23 17:18:39.409,3.1912934070868273
2025-03-23 17:18:39.417,0.313139606237595
2025-03-23 17:18:39.417,-4.273713828264981
2025-03-23 17:18:39.417,-5.548599369349289
2025-03-23 17:18:39.418,-0.9423257589395305
2025-03-23 17:18:39.418,5.578020933915996
2025-03-23 17:18:39.427,6.98157543381192
2025-03-23 17:18:39.427,1.258264671144813
2025-03-23 17:18:39.427,-5.677609467869865
2025-03-23 17:18:39.428,-6.547148227786722
2025-03-23 17:18:39.437,-1.0763708790569897
2025-03-23 17:18:39.437,4.198663475826146
2025-03-23 17:18:39.437,4.166022848171838
2025-03-23 17:18:39.437,0.6061888923932177
2025-03-23 17:18:39.438,-1.5364280081987043
2025-03-23 17:18:39.447,-0.8955484663541313
2025-03-23 17:18:39.447,-0.2110157765227432
2025-03-23 17:18:39.447,-1.1760118634832195
2025-03-23 17:18:39.448,-1.805119192471684
2025-03-23 17:18:39.448,0.12239189321379956
2025-03-23 17:18:39.448,3.032150199399443
2025-03-23 17:18:39.457,3.0755935427155943
2025-03-23 17:18:39.457,-0.5673669746244033
2025-03-23 17:18:39.457,-3.8651456705335736
2025-03-23 17:18:39.458,-2.6634156188986546
2025-03-23 17:18:39.467,1.7075388105698692
2025-03-23 17:18:39.467,3.644105177919048
2025-03-23 17:18:39.467,0.5720326356715724
2025-03-23 17:18:39.468,-3.209075048027663
2025-03-23 17:18:39.468,-2.13429046961341
2025-03-23 17:18:39.477,2.620358915258309
2025-03-23 17:18:39.477,4.242844283299108
2025-03-23 17:18:39.477,-0.26748790293240476
2025-03-23 17:18:39.477,-5.427867475564502
2025-03-23 17:18:39.478,-4.31543362558955
2025-03-23 17:18:39.487,2.1760287593703986
2025-03-23 17:18:39.487,6.399379030746421
2025-03-23 17:18:39.487,3.5979625903808583
2025-03-23 17:18:39.487,-2.6273975904511415
2025-03-23 17:18:39.487,-5.307689497220379
2025-03-23 17:18:39.497,-2.331601564646241
2025-03-23 17:18:39.497,2.06392035324203
2025-03-23 17:18:39.497,3.0799497240925864
2025-03-23 17:18:39.497,0.6585817618028575
2025-03-23 17:18:39.497,-1.4621891484329574
2025-03-23 17:18:39.507,-0.7734830331756274
2025-03-23 17:18:39.507,1.190845408518452
2025-03-23 17:18:39.507,1.2256461765763038
2025-03-23 17:18:39.507,-1.1913329539653206
2025-03-23 17:18:39.507,-2.9754984436454452
2025-03-23 17:18:39.517,-1.2459021801028474
2025-03-23 17:18:39.517,2.704955921995693
2025-03-23 17:18:39.517,4.428472541371268
2025-03-23 17:18:39.517,1.497429987610185
2025-03-23 17:18:39.517,-3.3591914184213465
2025-03-23 17:18:39.527,-5.123388986136209
2025-03-23 17:18:39.527,-2.0203460600054495
2025-03-23 17:18:39.527,2.747076469284091
2025-03-23 17:18:39.527,4.699036468238402
2025-03-23 17:18:39.527,2.5581012025292496
2025-03-23 17:18:39.535,-1.197549189018721
2025-03-23 17:18:39.535,-3.303355588411837
2025-03-23 17:18:39.536,-2.5512450056755083
2025-03-23 17:18:39.536,-0.2268507415102983
2025-03-23 17:18:39.547,1.4915588612940742
2025-03-23 17:18:39.547,1.5508807373609108
2025-03-23 17:18:39.547,0.7028228275158627
2025-03-23 17:18:39.547,0.202337457234297
2025-03-23 17:18:39.547,0.1420695612993269
2025-03-23 17:18:39.547,-0.33211208148424276
2025-03-23 17:18:39.555,-1.3053086793373003
2025-03-23 17:18:39.555,-1.5754162872314321
2025-03-23 17:18:39.555,-0.30501222567332725
2025-03-23 17:18:39.556,1.5163893251744214
2025-03-23 17:18:39.567,2.040781054315343
2025-03-23 17:18:39.567,0.7635764072170981
2025-03-23 17:18:39.567,-0.9498547320226746
2025-03-23 17:18:39.567,-1.5436457829952959
2025-03-23 17:18:39.567,-0.8489874607378588
2025-03-23 17:18:39.568,0.16185117627299966
2025-03-23 17:18:39.575,0.6271825353475429
2025-03-23 17:18:39.575,0.4679254695182959
2025-03-23 17:18:39.576,0.13606979613750497
2025-03-23 17:18:39.576,0.05329700480515362
2025-03-23 17:18:39.587,0.2619606632153176
2025-03-23 17:18:39.587,0.4188336371822715
2025-03-23 17:18:39.587,0.05465730714780795
2025-03-23 17:18:39.587,-0.9373145082613289
2025-03-23 17:18:39.587,-1.7823886599719219
2025-03-23 17:18:39.587,-1.1241027249895355
2025-03-23 17:18:39.597,1.326468891686807
2025-03-23 17:18:39.597,3.4834588439658845
2025-03-23 17:18:39.597,2.5178348378509585
2025-03-23 17:18:39.597,-1.4899635372131783
2025-03-23 17:18:39.597,-4.6240161167661125
2025-03-23 17:18:39.607,-3.19990765673605
2025-03-23 17:18:39.607,1.6115243667144927
2025-03-23 17:18:39.607,4.65038853116854
2025-03-23 17:18:39.607,2.626841285354324
2025-03-23 17:18:39.607,-1.9983767011460472
2025-03-23 17:18:39.615,-3.908858013185248
2025-03-23 17:18:39.615,-1.1414427217013998
2025-03-23 17:18:39.616,2.803222772253324
2025-03-23 17:18:39.616,3.237083447808372
2025-03-23 17:18:39.616,-0.3120115377178762
2025-03-23 17:18:39.625,-3.7423573877681973
2025-03-23 17:18:39.625,-3.1310352079848642
2025-03-23 17:18:39.626,0.9429914002922398
2025-03-23 17:18:39.626,4.183528397926164
2025-03-23 17:18:39.626,3.3197311351631753
2025-03-23 17:18:39.635,-0.5779109828024785
2025-03-23 17:18:39.635,-3.6301471547167874
2025-03-23 17:18:39.635,-3.293144974886444
2025-03-23 17:18:39.636,-0.40785057607426967
2025-03-23 17:18:39.645,2.317954694188295
2025-03-23 17:18:39.645,2.892725382703548
2025-03-23 17:18:39.645,1.249539930244605
2025-03-23 17:18:39.646,-1.0773193517174215
2025-03-23 17:18:39.646,-2.167203914645001
2025-03-23 17:18:39.646,-1.277001238481454
2025-03-23 17:18:39.655,0.4816634629906628
2025-03-23 17:18:39.655,1.3528664658797784
2025-03-23 17:18:39.656,0.7741041208636887
2025-03-23 17:18:39.656,-0.38696989093110257
2025-03-23 17:18:39.665,-1.081632670648043
2025-03-23 17:18:39.665,-0.8497175135848768
2025-03-23 17:18:39.665,0.2874816844996819
2025-03-23 17:18:39.666,1.677126207026965
2025-03-23 17:18:39.666,1.9402655934600082
2025-03-23 17:18:39.666,0.21073336826412525
2025-03-23 17:18:39.675,-2.322910483459051
2025-03-23 17:18:39.675,-3.1468316620640646
2025-03-23 17:18:39.675,-1.173000176249282
2025-03-23 17:18:39.676,1.9047990383036233
2025-03-23 17:18:39.685,3.399975181845011
2025-03-23 17:18:39.685,2.237167499230805
2025-03-23 17:18:39.685,-0.4743514022761317
2025-03-23 17:18:39.685,-2.69982155803627
2025-03-23 17:18:39.686,-2.8443612489529766
2025-03-23 17:18:39.695,-0.7276036344854881
2025-03-23 17:18:39.695,1.9380332016143476
2025-03-23 17:18:39.695,2.6510277831954068
2025-03-23 17:18:39.695,0.6945766713125213
2025-03-23 17:18:39.695,-1.73894497059037
2025-03-23 17:18:39.705,-1.9185858883290825
2025-03-23 17:18:39.705,0.18657652809360073
2025-03-23 17:18:39.705,1.9912160172049431
2025-03-23 17:18:39.705,1.4977065441834942
2025-03-23 17:18:39.705,-0.6167218457875114
2025-03-23 17:18:39.715,-2.2458205111196032
2025-03-23 17:18:39.715,-2.1062363203050527
2025-03-23 17:18:39.715,-0.3202270008650753
2025-03-23 17:18:39.715,2.1092561907123044
2025-03-23 17:18:39.716,3.521126047091918
2025-03-23 17:18:39.725,2.2888061923240803
2025-03-23 17:18:39.725,-1.333777309925017
2025-03-23 17:18:39.725,-4.473441197198404
2025-03-23 17:18:39.725,-4.084710888767974
2025-03-23 17:18:39.725,-0.22357393139963477
2025-03-23 17:18:39.735,3.901534171190514
2025-03-23 17:18:39.735,5.016765165034022
2025-03-23 17:18:39.735,2.347922128540554
2025-03-23 17:18:39.735,-2.2300314246989283
2025-03-23 17:18:39.735,-5.4185373518941615
2025-03-23 17:18:39.745,-4.382107041782803
2025-03-23 17:18:39.745,0.728137495930258
2025-03-23 17:18:39.745,5.715713908630811
2025-03-23 17:18:39.745,5.559646761145454
2025-03-23 17:18:39.745,-0.06279875191214496
2025-03-23 17:18:39.755,-5.585551049530601
2025-03-23 17:18:39.755,-5.360731881918385
2025-03-23 17:18:39.755,-0.028192745123949314
2025-03-23 17:18:39.755,4.465614072775708
2025-03-23 17:18:39.755,3.9054668235863494
2025-03-23 17:18:39.763,0.053382332686512546
2025-03-23 17:18:39.763,-2.5171273930207367
2025-03-23 17:18:39.764,-1.9931493370714466
2025-03-23 17:18:39.764,-0.28507304686640045
2025-03-23 17:18:39.764,0.5362745139562278
2025-03-23 17:18:39.773,0.630339259909165
2025-03-23 17:18:39.773,0.8705100529563051
2025-03-23 17:18:39.773,0.7887646803798262
2025-03-23 17:18:39.774,-0.46054603553105095
2025-03-23 17:18:39.783,-1.88522046868854
2025-03-23 17:18:39.783,-1.296069053849156
2025-03-23 17:18:39.784,1.411651241809908
2025-03-23 17:18:39.784,3.1322034325117047
2025-03-23 17:18:39.784,1.112909485658959
2025-03-23 17:18:39.793,-2.924490083175441
2025-03-23 17:18:39.793,-4.075806472130315
2025-03-23 17:18:39.794,-0.3013025664596173
2025-03-23 17:18:39.794,4.371341990414111
2025-03-23 17:18:39.794,4.289194906856414
2025-03-23 17:18:39.803,-0.8213440299666863
2025-03-23 17:18:39.803,-5.20023814455092
2025-03-23 17:18:39.803,-3.8413010765286355
2025-03-23 17:18:39.804,1.5957253205937691
2025-03-23 17:18:39.804,4.938536188056466
2025-03-23 17:18:39.813,2.869602375923503
2025-03-23 17:18:39.813,-1.5845645740258762
2025-03-23 17:18:39.813,-3.3443764388933803
2025-03-23 17:18:39.813,-1.430568172293913
2025-03-23 17:18:39.814,0.7915674438868896
2025-03-23 17:18:39.823,0.7995948731969942
2025-03-23 17:18:39.823,-0.022761293833388874
2025-03-23 17:18:39.823,0.6092210314363166
2025-03-23 17:18:39.823,1.8011293343710588
2025-03-23 17:18:39.824,0.7472462636370804
2025-03-23 17:18:39.833,-2.412587724857849
2025-03-23 17:18:39.833,-3.7098312101229194
2025-03-23 17:18:39.833,-0.538869647906299
2025-03-23 17:18:39.833,4.083371155917254
2025-03-23 17:18:39.833,4.605073016701262
2025-03-23 17:18:39.843,-0.07143207864095924
2025-03-23 17:18:39.843,-4.762464452454514
2025-03-23 17:18:39.843,-4.111376845325345
2025-03-23 17:18:39.843,0.7963756311982336
2025-03-23 17:18:39.843,3.82372689421678
2025-03-23 17:18:39.853,1.689772806340691
2025-03-23 17:18:39.853,-1.88218847271556
2025-03-23 17:18:39.853,-1.5049302900084245
2025-03-23 17:18:39.853,2.197927724364537
2025-03-23 17:18:39.853,3.326883524296823
2025-03-23 17:18:39.863,-0.9052375431551738
2025-03-23 17:18:39.863,-5.707740752555227
2025-03-23 17:18:39.863,-4.576579775774045
2025-03-23 17:18:39.863,2.1058986104569066
2025-03-23 17:18:39.863,7.055954413274274
2025-03-23 17:18:39.871,4.786962182502663
2025-03-23 17:18:39.871,-1.9471345230869332
2025-03-23 17:18:39.872,-5.785112185412734
2025-03-23 17:18:39.872,-3.4739047914164476
2025-03-23 17:18:39.881,1.1789924819184425
2025-03-23 17:18:39.881,2.894351662632781
2025-03-23 17:18:39.881,1.122089958272725
2025-03-23 17:18:39.882,-0.6337615496835121
2025-03-23 17:18:39.882,-0.14540237498614636
2025-03-23 17:18:39.891,1.1253082965156522
2025-03-23 17:18:39.891,0.8700597286928556
2025-03-23 17:18:39.891,-0.8669330861204372
2025-03-23 17:18:39.891,-2.2713270378418926
2025-03-23 17:18:39.892,-2.147818825533086
2025-03-23 17:18:39.901,-0.5264119628840042
2025-03-23 17:18:39.901,2.011015571503412
2025-03-23 17:18:39.901,4.093454067657368
2025-03-23 17:18:39.902,3.490357943608739
2025-03-23 17:18:39.902,-0.6576206084873464
2025-03-23 17:18:39.911,-5.457979458885135
2025-03-23 17:18:39.911,-6.095553395756379
2025-03-23 17:18:39.911,-1.1389615669734983
2025-03-23 17:18:39.912,5.056683280608586
2025-03-23 17:18:39.912,6.59325152040253
2025-03-23 17:18:39.921,2.384787925152434
2025-03-23 17:18:39.921,-2.9148965289058677
2025-03-23 17:18:39.921,-4.41153631999969
2025-03-23 17:18:39.921,-2.0945833172755224
2025-03-23 17:18:39.922,0.3108919947376887
2025-03-23 17:18:39.931,0.5304425379363327
2025-03-23 17:18:39.931,0.06345357869124668
2025-03-23 17:18:39.931,1.1481970700039479
2025-03-23 17:18:39.932,3.026366347987195
2025-03-23 17:18:39.932,2.72584527214476
2025-03-23 17:18:39.941,-0.7424311137723905
2025-03-23 17:18:39.941,-4.472144594404812
2025-03-23 17:18:39.941,-4.659135138704843
2025-03-23 17:18:39.941,-0.8389863342320399
2025-03-23 17:18:39.942,3.5645876437955057
2025-03-23 17:18:39.951,4.7028218468837855
2025-03-23 17:18:39.951,1.9425412231181463
2025-03-23 17:18:39.951,-1.7726748009481301
2025-03-23 17:18:39.951,-2.983254927398298
2025-03-23 17:18:39.952,-1.1982203115047168
2025-03-23 17:18:39.961,0.832359226302593
2025-03-23 17:18:39.961,0.5618392828270389
2025-03-23 17:18:39.961,-1.1575822141356091
2025-03-23 17:18:39.961,-1.271499503957533
2025-03-23 17:18:39.962,1.1979064207069499
2025-03-23 17:18:39.971,3.4436509772404995
2025-03-23 17:18:39.971,2.2863725542673476
2025-03-23 17:18:39.971,-1.5970334546248357
2025-03-23 17:18:39.971,-4.192580766265287
2025-03-23 17:18:39.971,-2.7951274774054577
2025-03-23 17:18:39.981,1.0387764664379195
2025-03-23 17:18:39.981,3.509312109264981
2025-03-23 17:18:39.981,2.6166475576276413
2025-03-23 17:18:39.981,-0.36694917942395355
2025-03-23 17:18:39.982,-2.695849890020687
2025-03-23 17:18:39.991,-2.5500447687110417
2025-03-23 17:18:39.991,-0.09167924417528242
2025-03-23 17:18:39.991,2.722214854243162
2025-03-23 17:18:39.991,3.2996601156779666
2025-03-23 17:18:39.991,0.5678629215714897
2025-03-23 17:18:39.999,-3.3494159513725994
2025-03-23 17:18:39.999,-4.479591651505946
2025-03-23 17:18:40.000,-1.1371047830869871
2025-03-23 17:18:40.000,3.619983203309965
2025-03-23 17:18:40.000,4.888697598878055
2025-03-23 17:18:40.009,1.4417063273195505
2025-03-23 17:18:40.009,-2.833485199433343
2025-03-23 17:18:40.010,-3.6115642488203767
2025-03-23 17:18:40.010,-1.0687879826583115
2025-03-23 17:18:40.019,1.1081199842701885
2025-03-23 17:18:40.019,0.8299413832223774
2025-03-23 17:18:40.019,-0.19622737217933725
2025-03-23 17:18:40.020,0.42054766556493967
2025-03-23 17:18:40.020,2.1678893463128364
2025-03-23 17:18:40.029,2.2964488710294537
2025-03-23 17:18:40.029,-0.488591635321359
2025-03-23 17:18:40.029,-3.946268890064478
2025-03-23 17:18:40.029,-4.317056767254639
2025-03-23 17:18:40.030,-0.5324984327733158
2025-03-23 17:18:40.039,3.971808795926844
2025-03-23 17:18:40.039,4.588089554068157
2025-03-23 17:18:40.039,0.8582460500375331
2025-03-23 17:18:40.039,-2.793742445670131
2025-03-23 17:18:40.039,-2.4589637686672186
2025-03-23 17:18:40.049,0.4430210484600458
2025-03-23 17:18:40.049,1.4293257205152818
2025-03-23 17:18:40.049,-0.7258434940019295
2025-03-23 17:18:40.049,-2.4005803203578115
2025-03-23 17:18:40.050,-0.48589731215960236
2025-03-23 17:18:40.059,2.943731975877091
2025-03-23 17:18:40.059,3.32563038152697
2025-03-23 17:18:40.059,-0.12140210379682523
2025-03-23 17:18:40.059,-3.2910998967517235
2025-03-23 17:18:40.059,-2.584924461393005
2025-03-23 17:18:40.069,0.6795390493446956
2025-03-23 17:18:40.069,2.416488622126173
2025-03-23 17:18:40.069,1.0176496694721278
2025-03-23 17:18:40.069,-1.195714198188624
2025-03-23 17:18:40.070,-1.4422448250520299
2025-03-23 17:18:40.077,0.1867983493864897
2025-03-23 17:18:40.077,1.433370011099888
2025-03-23 17:18:40.078,0.9108364750249583
2025-03-23 17:18:40.078,-0.5364580312278583
2025-03-23 17:18:40.078,-1.2581155486895381
2025-03-23 17:18:40.089,-0.7375705238497963
2025-03-23 17:18:40.089,0.19984177963796457
2025-03-23 17:18:40.089,0.6954183371033218
2025-03-23 17:18:40.089,0.7452286722061462
2025-03-23 17:18:40.089,0.6227445263146595
2025-03-23 17:18:40.097,0.09010470555038401
2025-03-23 17:18:40.097,-1.0182529666957796
2025-03-23 17:18:40.098,-1.7599763388255758
2025-03-23 17:18:40.098,-0.821167765244817
2025-03-23 17:18:40.098,1.4413847054577524
2025-03-23 17:18:40.107,2.7613456959452805
2025-03-23 17:18:40.108,1.4745058762732723
2025-03-23 17:18:40.108,-1.3521771973475556
2025-03-23 17:18:40.108,-3.035165864541395
2025-03-23 17:18:40.108,-2.189507053893115
2025-03-23 17:18:40.117,0.13670791538624089
2025-03-23 17:18:40.118,2.0338635064762465
2025-03-23 17:18:40.118,2.6055450500073363
2025-03-23 17:18:40.118,2.0339478811700658
2025-03-23 17:18:40.118,0.5289299060898376
2025-03-23 17:18:40.127,-1.8388178329998204
2025-03-23 17:18:40.127,-4.098479746330152
2025-03-23 17:18:40.128,-4.0870948914517795
2025-03-23 17:18:40.128,-0.45043446127611997
2025-03-23 17:18:40.137,4.807514037914191
2025-03-23 17:18:40.137,6.997720821763437
2025-03-23 17:18:40.137,3.2883624548224692
2025-03-23 17:18:40.138,-3.6236074557994065
2025-03-23 17:18:40.138,-7.583938569387726
2025-03-23 17:18:40.147,-5.119943709539691
2025-03-23 17:18:40.147,1.1551335769632793
2025-03-23 17:18:40.147,5.5469402430204315
2025-03-23 17:18:40.148,4.977497388796288
2025-03-23 17:18:40.148,1.1702842566799652
2025-03-23 17:18:40.157,-2.147835127688664
2025-03-23 17:18:40.157,-3.02647981265425
2025-03-23 17:18:40.157,-2.099947030357712
2025-03-23 17:18:40.158,-0.7543635749768975
2025-03-23 17:18:40.158,0.3973749276733537
2025-03-23 17:18:40.167,1.3312810758073716
2025-03-23 17:18:40.167,1.8656866237354324
2025-03-23 17:18:40.168,1.633468428208649
2025-03-23 17:18:40.168,0.5374557202735791
2025-03-23 17:18:40.168,-1.060358968128407
2025-03-23 17:18:40.177,-2.420347239193644
2025-03-23 17:18:40.177,-2.571246705092382
2025-03-23 17:18:40.177,-0.8754942927700825
2025-03-23 17:18:40.177,1.9872066362182885
2025-03-23 17:18:40.178,3.8852037760196385
2025-03-23 17:18:40.187,2.911698030728742
2025-03-23 17:18:40.187,-0.5350951721996953
2025-03-23 17:18:40.187,-3.773958480478591
2025-03-23 17:18:40.187,-4.2150806298356285
2025-03-23 17:18:40.188,-1.599512746559297
2025-03-23 17:18:40.197,2.031599210218877
2025-03-23 17:18:40.197,4.171502457367815
2025-03-23 17:18:40.197,3.5667185803450234
2025-03-23 17:18:40.198,0.7195131308301186
2025-03-23 17:18:40.198,-2.6004277007209446
2025-03-23 17:18:40.207,-4.313053453265271
2025-03-23 17:18:40.207,-3.1977064681793053
2025-03-23 17:18:40.207,0.16945126258033072
2025-03-23 17:18:40.208,3.5053065322519625
2025-03-23 17:18:40.208,4.28949497606631
2025-03-23 17:18:40.217,1.8013572496164176
2025-03-23 17:18:40.217,-1.9649041479579328
2025-03-23 17:18:40.217,-3.7754273046132214
2025-03-23 17:18:40.217,-2.1867864582915257
2025-03-23 17:18:40.217,0.9078351135934999
2025-03-23 17:18:40.227,2.312916562929424
2025-03-23 17:18:40.227,1.0500556484395578
2025-03-23 17:18:40.227,-0.8668745151694195
2025-03-23 17:18:40.228,-1.1573050678688126
2025-03-23 17:18:40.228,0.19893943348506943
2025-03-23 17:18:40.237,1.4949097392185475
2025-03-23 17:18:40.237,1.4138426878717352
2025-03-23 17:18:40.237,-0.036373499366658166
2025-03-23 17:18:40.237,-1.9287118543215291
2025-03-23 17:18:40.237,-2.869699119649536
2025-03-23 17:18:40.247,-1.6487870023808933
2025-03-23 17:18:40.247,1.3881801008654033
2025-03-23 17:18:40.247,3.842685434510483
2025-03-23 17:18:40.247,3.360619958434163
2025-03-23 17:18:40.248,0.31586337506149076
2025-03-23 17:18:40.255,-2.6032706374292283
2025-03-23 17:18:40.256,-3.4636467661308554
2025-03-23 17:18:40.256,-2.5816610940451556
2025-03-23 17:18:40.256,-0.9247606772403818
2025-03-23 17:18:40.256,1.3793512238497987
2025-03-23 17:18:40.265,4.009680189087878
2025-03-23 17:18:40.266,5.04377495391284
2025-03-23 17:18:40.266,2.3186976312806236
2025-03-23 17:18:40.266,-3.3683215992388997
2025-03-23 17:18:40.266,-7.536149284505771
2025-03-23 17:18:40.277,-5.8856406279574855
2025-03-23 17:18:40.277,0.8603533484852041
2025-03-23 17:18:40.277,6.950875801852678
2025-03-23 17:18:40.277,7.195792778033383
2025-03-23 17:18:40.277,2.082273862661942
2025-03-23 17:18:40.285,-3.3966523872134635
2025-03-23 17:18:40.285,-5.3716214364772075
2025-03-23 17:18:40.286,-4.125776701938549
2025-03-23 17:18:40.286,-1.6701978644349198
2025-03-23 17:18:40.286,1.3677460958924812
2025-03-23 17:18:40.295,4.769118904531589
2025-03-23 17:18:40.296,6.230225014170829
2025-03-23 17:18:40.296,2.9095297953409034
2025-03-23 17:18:40.296,-3.974961489295916
2025-03-23 17:18:40.305,-8.496583508732295
2025-03-23 17:18:40.305,-5.829246824790074
2025-03-23 17:18:40.305,2.044430032149368
2025-03-23 17:18:40.306,7.919638420439469
2025-03-23 17:18:40.306,6.66195427733829
2025-03-23 17:18:40.306,0.061200401814076544
2025-03-23 17:18:40.315,-5.553766975474671
2025-03-23 17:18:40.315,-5.6597605001616245
2025-03-23 17:18:40.316,-1.230029267897215
2025-03-23 17:18:40.316,3.1069520558692822
2025-03-23 17:18:40.325,3.7727530461729555
2025-03-23 17:18:40.325,1.1491013111358792
2025-03-23 17:18:40.326,-1.5899202246503663
2025-03-23 17:18:40.326,-1.9967842603878352
2025-03-23 17:18:40.326,-0.4729184038558567
2025-03-23 17:18:40.335,0.8954742611490145
2025-03-23 17:18:40.335,0.9268094955101385
2025-03-23 17:18:40.335,0.19427226469410427
2025-03-23 17:18:40.335,-0.3830407009047733
2025-03-23 17:18:40.336,-0.7482175226933233
2025-03-23 17:18:40.345,-1.0279778729850122
2025-03-23 17:18:40.345,-0.5587932071059112
2025-03-23 17:18:40.345,1.1787305289122145
2025-03-23 17:18:40.346,2.8853649771789507
2025-03-23 17:18:40.346,2.1998662521674714
2025-03-23 17:18:40.355,-1.2358048689992875
2025-03-23 17:18:40.355,-4.499145403756064
2025-03-23 17:18:40.355,-4.174068696803126
2025-03-23 17:18:40.355,-0.09598074738900159
2025-03-23 17:18:40.356,4.339053792283328
2025-03-23 17:18:40.365,5.445293901924924
2025-03-23 17:18:40.365,2.451447808590552
2025-03-23 17:18:40.365,-2.1963290511201974
2025-03-23 17:18:40.366,-5.047668395241422
2025-03-23 17:18:40.366,-4.218689018106446
2025-03-23 17:18:40.375,-0.5752137052936622
2025-03-23 17:18:40.375,3.0705974487568763
2025-03-23 17:18:40.375,4.178308350258824
2025-03-23 17:18:40.376,2.3956734709906566
2025-03-23 17:18:40.376,-0.5258092227637505
2025-03-23 17:18:40.385,-2.5414385352774773
2025-03-23 17:18:40.385,-2.7773425882344314
2025-03-23 17:18:40.385,-1.4860183968693093
2025-03-23 17:18:40.386,0.5580709131024643
2025-03-23 17:18:40.386,2.2362507370623086
2025-03-23 17:18:40.395,2.371415565863851
2025-03-23 17:18:40.395,0.6884056942393395
2025-03-23 17:18:40.395,-1.521564240741547
2025-03-23 17:18:40.395,-2.303985730932181
2025-03-23 17:18:40.396,-0.9562484466420018
2025-03-23 17:18:40.405,1.1441482266798575
2025-03-23 17:18:40.405,1.9041668805249667
2025-03-23 17:18:40.405,0.6669650700349198
2025-03-23 17:18:40.406,-1.1846239863381536
2025-03-23 17:18:40.406,-1.7280058589224585
2025-03-23 17:18:40.415,-0.4279361230113021
2025-03-23 17:18:40.415,1.4165090575967365
2025-03-23 17:18:40.415,1.9948866969458945
2025-03-23 17:18:40.415,0.6964481409991987
2025-03-23 17:18:40.416,-1.400881111428511
2025-03-23 17:18:40.425,-2.5306741199062346
2025-03-23 17:18:40.425,-1.6512641703480953
2025-03-23 17:18:40.425,0.74545758314159
2025-03-23 17:18:40.426,2.817956569740151
2025-03-23 17:18:40.426,2.7171782188394435
2025-03-23 17:18:40.433,0.4024882240534898
2025-03-23 17:18:40.434,-2.0639521635833225
2025-03-23 17:18:40.434,-2.6509162625845044
2025-03-23 17:18:40.434,-1.4931016526291736
2025-03-23 17:18:40.434,-0.138586143839301
2025-03-23 17:18:40.445,0.8426447580109473
2025-03-23 17:18:40.445,2.0538912739521993
2025-03-23 17:18:40.445,3.0544989431320584
2025-03-23 17:18:40.445,1.9002649812989725
2025-03-23 17:18:40.446,-1.8556079110394923
2025-03-23 17:18:40.455,-5.096552064229913
2025-03-23 17:18:40.455,-4.075242832012386
2025-03-23 17:18:40.455,0.8470568903282316
2025-03-23 17:18:40.455,5.087680892175623
2025-03-23 17:18:40.456,4.7756527281488665
2025-03-23 17:18:40.463,0.6452978595007511
2025-03-23 17:18:40.463,-3.3098058843483877
2025-03-23 17:18:40.464,-4.0471703069048255
2025-03-23 17:18:40.464,-1.7904886803646654
2025-03-23 17:18:40.464,1.0745141085885062
2025-03-23 17:18:40.473,2.4591068428739016
2025-03-23 17:18:40.473,1.9415949054349066
2025-03-23 17:18:40.474,0.44130329707997407
2025-03-23 17:18:40.474,-0.8600862326320858
2025-03-23 17:18:40.483,-1.2890939194720181
2025-03-23 17:18:40.483,-0.8375512436474296
2025-03-23 17:18:40.483,0.018972926283252194
2025-03-23 17:18:40.484,0.6010616182219801
2025-03-23 17:18:40.484,0.4564289649536272
2025-03-23 17:18:40.493,-0.15905279972164815
2025-03-23 17:18:40.493,-0.3982104411287588
2025-03-23 17:18:40.494,0.15859475536299503
2025-03-23 17:18:40.494,0.7652129328951395
2025-03-23 17:18:40.494,0.4268727195086723
2025-03-23 17:18:40.503,-0.5411496574949645
2025-03-23 17:18:40.503,-0.8042886070669184
2025-03-23 17:18:40.503,-0.045152942265595464
2025-03-23 17:18:40.503,0.4055838232412672
2025-03-23 17:18:40.504,-0.3554211309847584
2025-03-23 17:18:40.513,-1.1037618016182125
2025-03-23 17:18:40.513,-0.08433333561742286
2025-03-23 17:18:40.514,2.117714191915821
2025-03-23 17:18:40.514,2.7362431797747364
2025-03-23 17:18:40.514,0.2715522251570559
2025-03-23 17:18:40.523,-3.1899008814574685
2025-03-23 17:18:40.523,-3.9766917477123194
2025-03-23 17:18:40.524,-0.9641456492200207
2025-03-23 17:18:40.524,2.9782156337776415
2025-03-23 17:18:40.524,3.972279145090962
2025-03-23 17:18:40.533,1.2957805456406137
2025-03-23 17:18:40.533,-1.957797155921663
2025-03-23 17:18:40.533,-2.5404456116611818
2025-03-23 17:18:40.534,-0.6845945511073515
2025-03-23 17:18:40.534,0.7641221617962815
2025-03-23 17:18:40.543,0.36904895278102345
2025-03-23 17:18:40.543,-0.35161882057109817
2025-03-23 17:18:40.543,0.21597265012883554
2025-03-23 17:18:40.543,1.179880660716387
2025-03-23 17:18:40.544,0.8102044368159893
2025-03-23 17:18:40.553,-0.496211181090626
2025-03-23 17:18:40.553,-0.9318029093051591
2025-03-23 17:18:40.553,-0.3389673956378704
2025-03-23 17:18:40.553,-0.2704967310429174
2025-03-23 17:18:40.554,-0.9281296582437121
2025-03-23 17:18:40.563,-0.4760297629507557
2025-03-23 17:18:40.563,1.6389404919844022
2025-03-23 17:18:40.563,2.8693131914790135
2025-03-23 17:18:40.563,0.9062800891897584
2025-03-23 17:18:40.564,-2.534352961561684
2025-03-23 17:18:40.573,-3.4857425826085993
2025-03-23 17:18:40.573,-0.8717571968813583
2025-03-23 17:18:40.573,2.2060922824091866
2025-03-23 17:18:40.573,2.5999282480971218
2025-03-23 17:18:40.574,0.7174570851414103
2025-03-23 17:18:40.581,-0.8751954000505343
2025-03-23 17:18:40.582,-1.0095049548261033
2025-03-23 17:18:40.582,-0.6089788820228839
2025-03-23 17:18:40.582,-0.5203496380695014
2025-03-23 17:18:40.582,-0.32478850163357986
2025-03-23 17:18:40.591,0.44995173115808823
2025-03-23 17:18:40.591,1.1702279353899225
2025-03-23 17:18:40.592,0.910748075399619
2025-03-23 17:18:40.592,-0.14419081651960708
2025-03-23 17:18:40.592,-0.9017015412567312
2025-03-23 17:18:40.601,-0.8039097119392604
2025-03-23 17:18:40.601,-0.3306924479715121
2025-03-23 17:18:40.602,0.015457358768335342
2025-03-23 17:18:40.602,0.3997013151148132
2025-03-23 17:18:40.611,0.9025358883294478
2025-03-23 17:18:40.611,0.8769380822122705
2025-03-23 17:18:40.611,-0.12141918525450832
2025-03-23 17:18:40.612,-1.2586603005475787
2025-03-23 17:18:40.612,-1.2316413887333357
2025-03-23 17:18:40.621,0.0006629626442148373
2025-03-23 17:18:40.621,1.122489254949759
2025-03-23 17:18:40.621,1.0970924779976552
2025-03-23 17:18:40.622,0.18478761751471107
2025-03-23 17:18:40.622,-0.7075167222445589
2025-03-23 17:18:40.631,-0.9520926210419363
2025-03-23 17:18:40.631,-0.36497933609992367
2025-03-23 17:18:40.631,0.6997532465967289
2025-03-23 17:18:40.632,1.1556385934755846
2025-03-23 17:18:40.632,0.09207665636765239
2025-03-23 17:18:40.641,-1.5917756014262225
2025-03-23 17:18:40.641,-1.593834832410924
2025-03-23 17:18:40.642,0.7643670857857872
2025-03-23 17:18:40.642,2.907286808151191
2025-03-23 17:18:40.642,1.8826520899513333
2025-03-23 17:18:40.651,-1.5591061004397468
2025-03-23 17:18:40.651,-3.4559415523289485
2025-03-23 17:18:40.651,-1.5775373147810747
2025-03-23 17:18:40.652,1.6282790633832998
2025-03-23 17:18:40.652,2.243663159672873
2025-03-23 17:18:40.661,0.11568236671623622
2025-03-23 17:18:40.661,-1.0941141173387128
2025-03-23 17:18:40.661,0.6669030509268105
2025-03-23 17:18:40.662,2.5533865314789823
2025-03-23 17:18:40.662,0.7156663693153924
2025-03-23 17:18:40.671,-3.7531654156999665
2025-03-23 17:18:40.671,-5.367323260250756
2025-03-23 17:18:40.672,-1.148501354846067
2025-03-23 17:18:40.672,5.100579780911261
2025-03-23 17:18:40.672,6.8508284065860305
2025-03-23 17:18:40.681,2.234642243605461
2025-03-23 17:18:40.681,-4.091890598646014
2025-03-23 17:18:40.681,-6.266568331260183
2025-03-23 17:18:40.682,-3.0927758262339116
2025-03-23 17:18:40.682,1.7098047814466544
2025-03-23 17:18:40.691,3.98541062203289
2025-03-23 17:18:40.691,2.886360887701077
2025-03-23 17:18:40.691,0.510437128694655
2025-03-23 17:18:40.691,-1.0362889665194532
2025-03-23 17:18:40.692,-1.4897305554007838
2025-03-23 17:18:40.701,-1.60618056660919
2025-03-23 17:18:40.701,-1.434300418279848
2025-03-23 17:18:40.701,-0.2687550646159789
2025-03-23 17:18:40.701,1.6830612048975502
2025-03-23 17:18:40.702,2.612337695426859
2025-03-23 17:18:40.711,1.082971433984276
2025-03-23 17:18:40.711,-1.6400837288671661
2025-03-23 17:18:40.712,-2.538967230741186
2025-03-23 17:18:40.712,-0.4759058894398428
2025-03-23 17:18:40.712,2.2150157873540577
2025-03-23 17:18:40.721,2.4001808437175356
2025-03-23 17:18:40.721,-0.36206384056576146
2025-03-23 17:18:40.721,-3.463614344177197
2025-03-23 17:18:40.721,-3.706597899657525
2025-03-23 17:18:40.722,-0.07942492377147839
2025-03-23 17:18:40.731,4.850921155297395
2025-03-23 17:18:40.731,6.3402884145969916
2025-03-23 17:18:40.731,1.8745426656611253
2025-03-23 17:18:40.731,-5.249412782363002
2025-03-23 17:18:40.732,-8.254372393439516
2025-03-23 17:18:40.741,-3.893441928525272
2025-03-23 17:18:40.741,3.785327016350889
2025-03-23 17:18:40.741,7.705609596969167
2025-03-23 17:18:40.741,5.0353349240123455
2025-03-23 17:18:40.742,-0.8872997407788017
2025-03-23 17:18:40.749,-5.01105860465882
2025-03-23 17:18:40.750,-5.10252622204033
2025-03-23 17:18:40.750,-2.044076622615299
2025-03-23 17:18:40.750,2.0092868449150445
2025-03-23 17:18:40.750,4.591431257873913
2025-03-23 17:18:40.759,3.7338604538649456
2025-03-23 17:18:40.760,-0.2001634258369542
2025-03-23 17:18:40.760,-3.875112699385991
2025-03-23 17:18:40.760,-3.8327617715363704
2025-03-23 17:18:40.769,-0.2916932356661496
2025-03-23 17:18:40.769,2.9802214634416444
2025-03-23 17:18:40.770,2.9324005697496123
2025-03-23 17:18:40.770,0.34589374754315144
2025-03-23 17:18:40.770,-1.8299991546365972
2025-03-23 17:18:40.779,-2.057537404757856
2025-03-23 17:18:40.779,-0.9733428101462143
2025-03-23 17:18:40.780,0.4939454401393581
2025-03-23 17:18:40.780,1.9375697081007164
2025-03-23 17:18:40.780,2.4641994238247795
2025-03-23 17:18:40.789,0.8229921179065341
2025-03-23 17:18:40.789,-2.424208291691295
2025-03-23 17:18:40.789,-4.146423829393434
2025-03-23 17:18:40.790,-1.781963127214966
2025-03-23 17:18:40.790,2.9204721591051537
2025-03-23 17:18:40.799,4.969924731339138
2025-03-23 17:18:40.799,1.7785895432502798
2025-03-23 17:18:40.799,-3.316832993405087
2025-03-23 17:18:40.800,-4.532963028164199
2025-03-23 17:18:40.800,-0.43146602765497843
2025-03-23 17:18:40.809,4.126749050697427
2025-03-23 17:18:40.809,3.527636779995977
2025-03-23 17:18:40.809,-1.8183378327332642
2025-03-23 17:18:40.810,-5.558432203777143
2025-03-23 17:18:40.810,-2.748462421587362
2025-03-23 17:18:40.819,3.9039511741116026
2025-03-23 17:18:40.819,6.702218071622404
2025-03-23 17:18:40.819,2.014901472018719
2025-03-23 17:18:40.819,-5.004973231967747
2025-03-23 17:18:40.820,-6.231926957407638
2025-03-23 17:18:40.829,-0.3778504035168104
2025-03-23 17:18:40.829,5.25328318976967
2025-03-23 17:18:40.829,3.759406077436687
2025-03-23 17:18:40.829,-2.574591641553814
2025-03-23 17:18:40.830,-5.1569709399863255
2025-03-23 17:18:40.837,-0.34576930366491754
2025-03-23 17:18:40.838,5.619671574056468
2025-03-23 17:18:40.838,4.7571583889218
2025-03-23 17:18:40.838,-2.188536867639252
2025-03-23 17:18:40.838,-6.81027543991261
2025-03-23 17:18:40.847,-3.856683380013521
2025-03-23 17:18:40.848,2.6760657896784865
2025-03-23 17:18:40.848,5.402533118252725
2025-03-23 17:18:40.848,2.5462914594302988
2025-03-23 17:18:40.848,-1.4190459947356737
2025-03-23 17:18:40.857,-2.489535824303933
2025-03-23 17:18:40.857,-1.2597036587015844
2025-03-23 17:18:40.858,-0.22273340834535807
2025-03-23 17:18:40.858,0.09461336604663657
2025-03-23 17:18:40.867,0.6152611982422622
2025-03-23 17:18:40.867,1.07800296483037
2025-03-23 17:18:40.868,0.3106989977346125
2025-03-23 17:18:40.868,-1.1748993305057585
2025-03-23 17:18:40.868,-1.1223448715807067
2025-03-23 17:18:40.877,1.1248708344921219
2025-03-23 17:18:40.877,2.8799195534460384
2025-03-23 17:18:40.877,1.2422174335155682
2025-03-23 17:18:40.878,-2.7623655885733984
2025-03-23 17:18:40.878,-4.803642857905515
2025-03-23 17:18:40.887,-2.190984181069075
2025-03-23 17:18:40.887,2.8977369112179208
2025-03-23 17:18:40.887,5.6641925705472715
2025-03-23 17:18:40.888,3.63078836024642
2025-03-23 17:18:40.888,-1.1609209272686594
2025-03-23 17:18:40.897,-4.561597052368234
2025-03-23 17:18:40.897,-4.260183727345784
2025-03-23 17:18:40.897,-1.2740806966919287
2025-03-23 17:18:40.898,1.7565646554245842
2025-03-23 17:18:40.898,3.0519934579656027
2025-03-23 17:18:40.907,2.5786904054115953
2025-03-23 17:18:40.907,1.2009636227130942
2025-03-23 17:18:40.907,-0.3924357666592088
2025-03-23 17:18:40.908,-1.8187957969607589
2025-03-23 17:18:40.908,-2.5578636744866423
2025-03-23 17:18:40.917,-2.026139799906518
2025-03-23 17:18:40.917,-0.2655534224894237
2025-03-23 17:18:40.917,1.760800659141362
2025-03-23 17:18:40.918,2.78883830484884
2025-03-23 17:18:40.918,2.1549823207179593
2025-03-23 17:18:40.927,0.198263802372937
2025-03-23 17:18:40.927,-1.9643868776271995
2025-03-23 17:18:40.927,-3.0113754739723992
2025-03-23 17:18:40.928,-2.0899037527740285
2025-03-23 17:18:40.928,0.5380055350420255
2025-03-23 17:18:40.937,3.196193114464194
2025-03-23 17:18:40.937,3.571455349336338
2025-03-23 17:18:40.937,0.7375593862467809
2025-03-23 17:18:40.937,-3.273960009692641
2025-03-23 17:18:40.938,-4.7031606498608065
2025-03-23 17:18:40.947,-1.7300528214927111
2025-03-23 17:18:40.947,3.164633897034362
2025-03-23 17:18:40.947,5.246901118029732
2025-03-23 17:18:40.947,2.3491331415423247
2025-03-23 17:18:40.948,-2.6730266620132426
2025-03-23 17:18:40.955,-4.8033983161575176
2025-03-23 17:18:40.956,-2.1493571655139316
2025-03-23 17:18:40.956,2.1421897107535197
2025-03-23 17:18:40.956,3.474138607352653
2025-03-23 17:18:40.956,0.8601469193621625
2025-03-23 17:18:40.965,-2.2237121499545083
2025-03-23 17:18:40.966,-2.067475027268989
2025-03-23 17:18:40.966,0.9548265106689009
2025-03-23 17:18:40.966,3.0164692928081407
2025-03-23 17:18:40.966,1.4729000882460221
2025-03-23 17:18:40.975,-2.1212536744637407
2025-03-23 17:18:40.975,-3.8942714339177833
2025-03-23 17:18:40.976,-1.8755516415811926
2025-03-23 17:18:40.976,2.0719734150910916
2025-03-23 17:18:40.985,4.208187574396953
2025-03-23 17:18:40.985,2.562424516230423
2025-03-23 17:18:40.985,-1.2230091751406058
2025-03-23 17:18:40.986,-3.6187471746120417
2025-03-23 17:18:40.986,-2.741739699690756
2025-03-23 17:18:40.995,0.07286127897168743
2025-03-23 17:18:40.995,2.1557937628059647
2025-03-23 17:18:40.995,2.26395948733047
2025-03-23 17:18:40.995,1.0754551795518328
2025-03-23 17:18:40.996,-0.32515266548462646
2025-03-23 17:18:41.005,-1.4188448323733094
2025-03-23 17:18:41.005,-1.8227403219366984
2025-03-23 17:18:41.005,-1.0539904720358462
2025-03-23 17:18:41.006,0.6325666700369666
2025-03-23 17:18:41.006,1.8444964451413124
2025-03-23 17:18:41.015,1.3708640735852324
2025-03-23 17:18:41.015,-0.2659597126089128
2025-03-23 17:18:41.015,-1.2961863125548496
2025-03-23 17:18:41.015,-0.7733855635358081
2025-03-23 17:18:41.015,0.41350851077315987
2025-03-23 17:18:41.023,0.7543441507229668
2025-03-23 17:18:41.024,-0.08366063281969459
2025-03-23 17:18:41.024,-0.95215772131402
2025-03-23 17:18:41.024,-0.5883764973816579
2025-03-23 17:18:41.024,0.8621050114162138
2025-03-23 17:18:41.033,1.7650945989400604
2025-03-23 17:18:41.034,0.6850466023010957
2025-03-23 17:18:41.034,-1.6976429784221863
2025-03-23 17:18:41.034,-2.8069190981530574
2025-03-23 17:18:41.043,-0.9247000417989906
2025-03-23 17:18:41.043,2.472941260022843
2025-03-23 17:18:41.044,3.913219972508358
2025-03-23 17:18:41.044,1.6166386714836842
2025-03-23 17:18:41.044,-2.5201925419149354
2025-03-23 17:18:41.053,-4.736000040895706
2025-03-23 17:18:41.053,-2.9081360808829726
2025-03-23 17:18:41.054,1.5268930134831653
2025-03-23 17:18:41.054,4.7275589386525665
2025-03-23 17:18:41.054,3.855071594006421
2025-03-23 17:18:41.063,-0.13093207108832067
2025-03-23 17:18:41.063,-3.3651899907889766
2025-03-23 17:18:41.063,-3.165531164436275
2025-03-23 17:18:41.064,-0.6868283505797224
2025-03-23 17:18:41.064,1.0575095992160817
2025-03-23 17:18:41.073,0.9776534009954496
2025-03-23 17:18:41.073,0.45702155138497735
2025-03-23 17:18:41.074,0.6013988045511685
2025-03-23 17:18:41.074,0.771559375120828
2025-03-23 17:18:41.074,0.2788620510314556
2025-03-23 17:18:41.083,-0.22199694233912154
2025-03-23 17:18:41.083,-0.1523691562385814
2025-03-23 17:18:41.083,-0.3959820605718251
2025-03-23 17:18:41.084,-1.6839013348326974
2025-03-23 17:18:41.084,-2.544284029999477
2025-03-23 17:18:41.093,-0.7937869030361808
2025-03-23 17:18:41.093,3.0123032303693975
2025-03-23 17:18:41.093,5.254921284730167
2025-03-23 17:18:41.094,3.0218863249224315
2025-03-23 17:18:41.094,-2.4409510144530104
2025-03-23 17:18:41.103,-6.478436090040497
2025-03-23 17:18:41.103,-5.216206838708307
2025-03-23 17:18:41.103,0.6693150735303851
2025-03-23 17:18:41.104,6.0951402126974825
2025-03-23 17:18:41.104,6.073632315436783
2025-03-23 17:18:41.113,0.7409218718724002
2025-03-23 17:18:41.113,-4.5506868291372395
2025-03-23 17:18:41.113,-4.882950199286823
2025-03-23 17:18:41.113,-0.9620976062390887
2025-03-23 17:18:41.114,2.3633420544137778
2025-03-23 17:18:41.121,2.1773812382387554
2025-03-23 17:18:41.122,0.30782452521061365
2025-03-23 17:18:41.122,-0.18388880845533412
2025-03-23 17:18:41.122,0.651845008957902
2025-03-23 17:18:41.122,0.4104341240048316
2025-03-23 17:18:41.133,-1.4737631580391026
2025-03-23 17:18:41.133,-2.4615926705627356
2025-03-23 17:18:41.133,-0.5231813781546956
2025-03-23 17:18:41.133,2.5027194866024582
2025-03-23 17:18:41.134,2.854405966932426
2025-03-23 17:18:41.141,-0.16335427559659066
2025-03-23 17:18:41.142,-2.9532921094479243
2025-03-23 17:18:41.142,-2.132890144642652
2025-03-23 17:18:41.142,1.132850818280118
2025-03-23 17:18:41.142,2.780106863809938
2025-03-23 17:18:41.151,1.126405037593477
2025-03-23 17:18:41.152,-1.3822831178233628
2025-03-23 17:18:41.152,-1.8833021597704926
2025-03-23 17:18:41.152,-0.6288820872935877
2025-03-23 17:18:41.161,0.3273873434345046
2025-03-23 17:18:41.161,0.46634636548759634
2025-03-23 17:18:41.162,0.8676174656465144
2025-03-23 17:18:41.162,1.510349156149171
2025-03-23 17:18:41.162,0.790636024865579
2025-03-23 17:18:41.171,-1.6030636770042332
2025-03-23 17:18:41.172,-3.1307583033778505
2025-03-23 17:18:41.172,-1.3209802138920124
2025-03-23 17:18:41.172,2.4608586082599033
2025-03-23 17:18:41.172,3.973973180874113
2025-03-23 17:18:41.181,1.1950025581298567
2025-03-23 17:18:41.181,-2.9444210285972456
2025-03-23 17:18:41.181,-3.911402911703361
2025-03-23 17:18:41.182,-0.8798319495325266
2025-03-23 17:18:41.182,2.577907715506755
2025-03-23 17:18:41.191,2.9604162592812644
2025-03-23 17:18:41.191,0.6832109808502882
2025-03-23 17:18:41.192,-1.1970276955615768
2025-03-23 17:18:41.192,-1.150389377989393
2025-03-23 17:18:41.192,-0.5798524573956558
2025-03-23 17:18:41.201,-0.9573293401208145
2025-03-23 17:18:41.201,-1.2418252179068585
2025-03-23 17:18:41.201,0.39283874891023085
2025-03-23 17:18:41.202,3.0562335060561514
2025-03-23 17:18:41.202,3.4238042304955716
2025-03-23 17:18:41.211,0.06421280345910488
2025-03-23 17:18:41.211,-4.028594460241302
2025-03-23 17:18:41.212,-4.516924475582644
2025-03-23 17:18:41.212,-0.7692376470960517
2025-03-23 17:18:41.212,3.4189059114290896
2025-03-23 17:18:41.221,4.158988861735442
2025-03-23 17:18:41.221,1.4292992895494874
2025-03-23 17:18:41.221,-1.6837909523426662
2025-03-23 17:18:41.222,-2.6957351045296987
2025-03-23 17:18:41.222,-1.7164410343870065
2025-03-23 17:18:41.231,-0.20724189676944263
2025-03-23 17:18:41.231,0.9508298373076947
2025-03-23 17:18:41.231,1.6174120963985057
2025-03-23 17:18:41.232,1.459153634235777
2025-03-23 17:18:41.232,0.10271294091050358
2025-03-23 17:18:41.241,-1.6120822117516884
2025-03-23 17:18:41.241,-1.762585444106318
2025-03-23 17:18:41.241,0.2572143181281686
2025-03-23 17:18:41.242,2.2106006625440036
2025-03-23 17:18:41.242,1.3562331338420384
2025-03-23 17:18:41.251,-1.763576872491344
2025-03-23 17:18:41.251,-3.39326969867131
2025-03-23 17:18:41.252,-1.066279952637762
2025-03-23 17:18:41.252,3.071411042307832
2025-03-23 17:18:41.252,4.525634696866
2025-03-23 17:18:41.259,1.5797799638894219
2025-03-23 17:18:41.260,-2.9077600683304867
2025-03-23 17:18:41.260,-4.772218375238728
2025-03-23 17:18:41.260,-2.6602502775985313
2025-03-23 17:18:41.260,1.2726697637105893
2025-03-23 17:18:41.269,3.8280373046620237
2025-03-23 17:18:41.270,3.381798455234387
2025-03-23 17:18:41.270,0.699786981071123
2025-03-23 17:18:41.270,-2.0326784823241155
2025-03-23 17:18:41.270,-2.9947679431815803
2025-03-23 17:18:41.279,-1.9788372718732938
2025-03-23 17:18:41.280,-0.0924223685352565
2025-03-23 17:18:41.280,1.5484619361680152
2025-03-23 17:18:41.280,2.42923007233546
2025-03-23 17:18:41.289,2.105700185504847
2025-03-23 17:18:41.289,0.16371423172578956
2025-03-23 17:18:41.290,-2.5410571213569666
2025-03-23 17:18:41.290,-3.54311794718004
2025-03-23 17:18:41.290,-1.2016243669120417
2025-03-23 17:18:41.299,2.6349311766907895
2025-03-23 17:18:41.299,3.948867079594168
2025-03-23 17:18:41.300,1.1475693855376
2025-03-23 17:18:41.300,-2.72857805669551
2025-03-23 17:18:41.300,-3.3392683580508122
2025-03-23 17:18:41.309,-0.12473839456163324
2025-03-23 17:18:41.309,2.9945578460761553
2025-03-23 17:18:41.309,2.2580036369416083
2025-03-23 17:18:41.310,-1.4165030839086947
2025-03-23 17:18:41.310,-3.511855735315905
2025-03-23 17:18:41.319,-1.3751436477826893
2025-03-23 17:18:41.319,2.6000244005330964
2025-03-23 17:18:41.319,3.925401298381568
2025-03-23 17:18:41.319,1.2577547285808826
2025-03-23 17:18:41.320,-2.4836042120607478
2025-03-23 17:18:41.329,-3.8364319952150616
2025-03-23 17:18:41.329,-2.179197614426408
2025-03-23 17:18:41.330,0.7850242944085245
2025-03-23 17:18:41.330,3.2588033723562404
2025-03-23 17:18:41.330,3.948443796172843
2025-03-23 17:18:41.339,1.833007774000057
2025-03-23 17:18:41.339,-2.5250938770446014
2025-03-23 17:18:41.340,-5.755180957454741
2025-03-23 17:18:41.340,-4.154766695143116
2025-03-23 17:18:41.340,1.6814044044258778
2025-03-23 17:18:41.349,6.368017821895452
2025-03-23 17:18:41.349,5.247600100030748
2025-03-23 17:18:41.349,-0.44126733152037356
2025-03-23 17:18:41.350,-5.103304084647091
2025-03-23 17:18:41.350,-4.892860055936875
2025-03-23 17:18:41.359,-1.0370365692630645
2025-03-23 17:18:41.359,2.5590474948308817
2025-03-23 17:18:41.359,3.4375282335844437
2025-03-23 17:18:41.360,1.938312792670181
2025-03-23 17:18:41.360,-0.2026030454810328
2025-03-23 17:18:41.369,-1.5218648436293103
2025-03-23 17:18:41.369,-1.5655281640510146
2025-03-23 17:18:41.370,-0.8369616114926756
2025-03-23 17:18:41.370,-0.13751999290656197
2025-03-23 17:18:41.370,0.2217127800537003
2025-03-23 17:18:41.377,0.5029669681991954
2025-03-23 17:18:41.378,0.889036053025155
2025-03-23 17:18:41.378,1.0441542270362358
2025-03-23 17:18:41.378,0.4984832298128769
2025-03-23 17:18:41.387,-0.6142700947457779
2025-03-23 17:18:41.388,-1.4155473532961858
2025-03-23 17:18:41.388,-1.1254476889674216
2025-03-23 17:18:41.388,-0.06306425161830854
2025-03-23 17:18:41.388,0.6042961442715388
2025-03-23 17:18:41.388,0.40095250883619094
2025-03-23 17:18:41.397,0.31579456858811644
2025-03-23 17:18:41.397,1.2515104401091772
2025-03-23 17:18:41.398,2.0225178517129216
2025-03-23 17:18:41.398,0.3498125310593969
2025-03-23 17:18:41.407,-3.4990109142490673
2025-03-23 17:18:41.407,-5.4691885769020505
2025-03-23 17:18:41.408,-1.9464282646479143
2025-03-23 17:18:41.408,4.974553776404515
2025-03-23 17:18:41.408,8.406773353208264
2025-03-23 17:18:41.415,3.978658824520485
2025-03-23 17:18:41.416,-4.703009271372365
2025-03-23 17:18:41.416,-9.295067591248703
2025-03-23 17:18:41.416,-5.434314637136349
2025-03-23 17:18:41.416,2.8245910151267055
2025-03-23 17:18:41.425,7.614690282170747
2025-03-23 17:18:41.426,5.34593942864218
2025-03-23 17:18:41.426,-0.5768600664863599
2025-03-23 17:18:41.426,-4.342332585583172
2025-03-23 17:18:41.426,-3.601782501861089
2025-03-23 17:18:41.435,-0.595987341407413
2025-03-23 17:18:41.436,1.2913665841336759
2025-03-23 17:18:41.436,1.0221399680460608
2025-03-23 17:18:41.436,0.11439234967831752
2025-03-23 17:18:41.447,0.21595158776043283
2025-03-23 17:18:41.447,1.0918697996561213
2025-03-23 17:18:41.447,1.1668783907580227
2025-03-23 17:18:41.448,-0.20891116946994995
2025-03-23 17:18:41.448,-1.648189266427999
2025-03-23 17:18:41.448,-1.4183153854413661
2025-03-23 17:18:41.455,0.0442447035997848
2025-03-23 17:18:41.456,0.4788408269205058
2025-03-23 17:18:41.456,-0.8056017213294894
2025-03-23 17:18:41.456,-1.261421034045896
2025-03-23 17:18:41.465,1.4427229447126528
2025-03-23 17:18:41.465,4.99664371530031
2025-03-23 17:18:41.466,4.105559649104086
2025-03-23 17:18:41.466,-2.480643173562999
2025-03-23 17:18:41.466,-8.709710110124254
2025-03-23 17:18:41.475,-7.2567448840461335
2025-03-23 17:18:41.475,1.6556482987974082
2025-03-23 17:18:41.476,9.58936101979132
2025-03-23 17:18:41.476,8.780847839499522
2025-03-23 17:18:41.476,0.3915388984642172
2025-03-23 17:18:41.485,-7.204322828517528
2025-03-23 17:18:41.486,-7.542422966042724
2025-03-23 17:18:41.486,-2.0161913083653653
2025-03-23 17:18:41.486,3.1443255590404355
2025-03-23 17:18:41.486,4.05386453224093
2025-03-23 17:18:41.495,2.069972913010932
2025-03-23 17:18:41.495,0.3809198220641653
2025-03-23 17:18:41.495,-0.15530053923316106
2025-03-23 17:18:41.496,-0.7958226202720966
2025-03-23 17:18:41.496,-1.9305799200363016
2025-03-23 17:18:41.505,-2.244119192117726
2025-03-23 17:18:41.505,-0.843017683676033
2025-03-23 17:18:41.506,1.2963443209800007
2025-03-23 17:18:41.506,2.5199909270379424
2025-03-23 17:18:41.506,2.1700722500293277
2025-03-23 17:18:41.515,0.6320503527581187
2025-03-23 17:18:41.515,-1.364001773175219
2025-03-23 17:18:41.515,-2.80898217407376
2025-03-23 17:18:41.516,-2.516984768036081
2025-03-23 17:18:41.516,-0.22506667591834462
2025-03-23 17:18:41.525,2.492646118622917
2025-03-23 17:18:41.525,3.3181927360678487
2025-03-23 17:18:41.525,1.5332803747336297
2025-03-23 17:18:41.526,-1.2122253666504268
2025-03-23 17:18:41.526,-2.6813205023187185
2025-03-23 17:18:41.535,-2.134267321229259
2025-03-23 17:18:41.535,-0.47558644250403126
2025-03-23 17:18:41.535,1.0427284005524051
2025-03-23 17:18:41.536,1.7603284790307678
2025-03-23 17:18:41.536,1.600163134091788
2025-03-23 17:18:41.543,0.7425285643032011
2025-03-23 17:18:41.544,-0.511055727891908
2025-03-23 17:18:41.544,-1.6772991263925925
2025-03-23 17:18:41.544,-2.0461735502188154
2025-03-23 17:18:41.553,-1.007144363909065
2025-03-23 17:18:41.554,1.1489031218329757
2025-03-23 17:18:41.554,2.792829919569645
2025-03-23 17:18:41.554,2.0803432599983296
2025-03-23 17:18:41.554,-0.8538870189672982
2025-03-23 17:18:41.563,-3.2498523079789163
2025-03-23 17:18:41.564,-2.2932597577181775
2025-03-23 17:18:41.564,1.4065414819743456
2025-03-23 17:18:41.564,3.79010574440895
2025-03-23 17:18:41.564,1.7135242972112148
2025-03-23 17:18:41.573,-2.9160863196792954
2025-03-23 17:18:41.573,-4.643204225548174
2025-03-23 17:18:41.574,-0.8103412041617493
2025-03-23 17:18:41.574,4.652905888873169
2025-03-23 17:18:41.574,5.380009608424999
2025-03-23 17:18:41.583,0.22086359599354732
2025-03-23 17:18:41.583,-5.201745130771193
2025-03-23 17:18:41.584,-5.178767913193216
2025-03-23 17:18:41.584,-0.3532644553703525
2025-03-23 17:18:41.584,3.8389327964823243
2025-03-23 17:18:41.593,3.8022426153374704
2025-03-23 17:18:41.593,0.9255694433444372
2025-03-23 17:18:41.593,-1.4179369150254642
2025-03-23 17:18:41.594,-1.8665157243052763
2025-03-23 17:18:41.594,-1.3205216142068668
2025-03-23 17:18:41.603,-0.6588634832398189
2025-03-23 17:18:41.603,0.25533978288958636
2025-03-23 17:18:41.604,1.4230996887466951
2025-03-23 17:18:41.604,1.826034197335464
2025-03-23 17:18:41.604,0.5364886473362875
2025-03-23 17:18:41.613,-1.6025254818291992
2025-03-23 17:18:41.613,-2.37217109696196
2025-03-23 17:18:41.614,-0.6925355243334654
2025-03-23 17:18:41.614,1.8741301273170787
2025-03-23 17:18:41.614,2.779085359291962
2025-03-23 17:18:41.623,1.2056044584320604
2025-03-23 17:18:41.623,-1.5026091227544323
2025-03-23 17:18:41.624,-3.4741216645902178
2025-03-23 17:18:41.624,-3.3464823638355212
2025-03-23 17:18:41.624,-0.41590686751192896
2025-03-23 17:18:41.633,4.324984357921162
2025-03-23 17:18:41.633,7.155717511934762
2025-03-23 17:18:41.633,3.9927790118835182
2025-03-23 17:18:41.633,-4.37441416991523
2025-03-23 17:18:41.634,-10.704478016742586
2025-03-23 17:18:41.641,-7.778787767278395
2025-03-23 17:18:41.642,2.9504433993758967
2025-03-23 17:18:41.642,11.429991959429662
2025-03-23 17:18:41.642,9.378260080837782
2025-03-23 17:18:41.651,-0.6609062612003432
2025-03-23 17:18:41.651,-8.464313566544456
2025-03-23 17:18:41.652,-7.539981830579478
2025-03-23 17:18:41.652,-1.0977259914856132
2025-03-23 17:18:41.652,3.4562878756719937
2025-03-23 17:18:41.661,3.277825506218677
2025-03-23 17:18:41.661,1.4232663754107453
2025-03-23 17:18:41.661,0.9955767711625627
2025-03-23 17:18:41.662,1.0918293171002296
2025-03-23 17:18:41.662,-0.5736842057863538
2025-03-23 17:18:41.671,-3.2629589409340274
2025-03-23 17:18:41.671,-3.6900184408165813
2025-03-23 17:18:41.672,-0.5456079719805786
2025-03-23 17:18:41.672,3.3341908929039006
2025-03-23 17:18:41.672,4.069266258266184
2025-03-23 17:18:41.681,1.1181552950003708
2025-03-23 17:18:41.681,-2.295654754851546
2025-03-23 17:18:41.681,-2.8938844079775032
2025-03-23 17:18:41.682,-0.7514588225487795
2025-03-23 17:18:41.682,1.2625024641328813
2025-03-23 17:18:41.691,1.0555141806418928
2025-03-23 17:18:41.691,-0.3707267316137398
2025-03-23 17:18:41.692,-0.5895435917692564
2025-03-23 17:18:41.692,0.7730549177036187
2025-03-23 17:18:41.692,1.4695713907477532
2025-03-23 17:18:41.701,-0.027318629458482978
2025-03-23 17:18:41.701,-1.959339442615521
2025-03-23 17:18:41.702,-1.5372050181690902
2025-03-23 17:18:41.702,0.9072291855111165
2025-03-23 17:18:41.702,2.027987669316578
2025-03-23 17:18:41.711,0.10101884544119097
2025-03-23 17:18:41.712,-2.249928198431903
2025-03-23 17:18:41.712,-1.3376742842491696
2025-03-23 17:18:41.712,2.4038710559787977
2025-03-23 17:18:41.712,4.283544149117754
2025-03-23 17:18:41.721,0.9647902906156848
2025-03-23 17:18:41.721,-4.860502919270155
2025-03-23 17:18:41.722,-6.770021328339182
2025-03-23 17:18:41.722,-1.7592983967792244
2025-03-23 17:18:41.722,5.900757964782146
2025-03-23 17:18:41.731,8.734687452375566
2025-03-23 17:18:41.731,3.704332227565441
2025-03-23 17:18:41.731,-4.762859551661924
2025-03-23 17:18:41.732,-9.16224197129535
2025-03-23 17:18:41.732,-5.8509203762854805
2025-03-23 17:18:41.741,2.0299156949007817
2025-03-23 17:18:41.741,7.709669931562862
2025-03-23 17:18:41.741,6.789702925354373
2025-03-23 17:18:41.741,0.8169623448729662
2025-03-23 17:18:41.742,-4.668306680564697
2025-03-23 17:18:41.751,-5.584206198268008
2025-03-23 17:18:41.751,-2.605786123647239
2025-03-23 17:18:41.751,0.8277888320771658
2025-03-23 17:18:41.752,2.6103159148244353
2025-03-23 17:18:41.752,3.0188859072176233
2025-03-23 17:18:41.759,2.520576881262644
2025-03-23 17:18:41.760,0.6111296819071492
2025-03-23 17:18:41.760,-2.44152647006462
2025-03-23 17:18:41.760,-4.247857027305418
2025-03-23 17:18:41.769,-2.482860642964981
2025-03-23 17:18:41.770,1.717040223356565
2025-03-23 17:18:41.770,4.17137259927249
2025-03-23 17:18:41.770,2.3146086764805576
2025-03-23 17:18:41.770,-1.5445425569496378
2025-03-23 17:18:41.779,-2.896310388800821
2025-03-23 17:18:41.779,-0.584662426345025
2025-03-23 17:18:41.780,1.891952435940567
2025-03-23 17:18:41.780,1.1276659013524462
2025-03-23 17:18:41.780,-1.6266013715960357
2025-03-23 17:18:41.789,-2.2083336056184812
2025-03-23 17:18:41.789,0.6733849970381572
2025-03-23 17:18:41.789,3.413849305278494
2025-03-23 17:18:41.790,2.1149452061498595
2025-03-23 17:18:41.790,-2.172264836472943
2025-03-23 17:18:41.799,-4.440296168773141
2025-03-23 17:18:41.799,-1.7516406786955887
2025-03-23 17:18:41.800,3.1608525340755933
2025-03-23 17:18:41.800,4.94789707643994
2025-03-23 17:18:41.800,1.5776009866991225
2025-03-23 17:18:41.809,-3.592012771172334
2025-03-23 17:18:41.809,-5.4695459445854855
2025-03-23 17:18:41.810,-2.2235425695663182
2025-03-23 17:18:41.810,3.3243280717049313
2025-03-23 17:18:41.810,6.382120014039792
2025-03-23 17:18:41.819,4.065565955955972
2025-03-23 17:18:41.819,-2.2095836288712816
2025-03-23 17:18:41.819,-7.327521346693975
2025-03-23 17:18:41.820,-6.381272205465038
2025-03-23 17:18:41.820,0.5278038642127345
2025-03-23 17:18:41.829,7.411203643748272
2025-03-23 17:18:41.829,7.661259976204026
2025-03-23 17:18:41.829,0.9035193276163376
2025-03-23 17:18:41.830,-6.214787683812178
2025-03-23 17:18:41.830,-6.94050124485509
2025-03-23 17:18:41.838,-1.4846074575249224
2025-03-23 17:18:41.838,3.946486189788983
2025-03-23 17:18:41.838,4.563056175290831
2025-03-23 17:18:41.838,1.5187668706232305
2025-03-23 17:18:41.838,-1.1330530044725806
2025-03-23 17:18:41.849,-1.6914873199526756
2025-03-23 17:18:41.849,-1.4313465899318842
2025-03-23 17:18:41.849,-1.380920351510751
2025-03-23 17:18:41.850,-0.7846417232336579
2025-03-23 17:18:41.850,1.0191491285129477
2025-03-23 17:18:41.857,2.798799960325569
2025-03-23 17:18:41.858,2.5337933133776667
2025-03-23 17:18:41.858,-0.08109605737083644
2025-03-23 17:18:41.858,-2.9298248450120123
2025-03-23 17:18:41.858,-3.4095245311957547
2025-03-23 17:18:41.868,-0.9617661790352958
2025-03-23 17:18:41.868,2.2953216563237757
2025-03-23 17:18:41.868,3.450449296095611
2025-03-23 17:18:41.868,1.4857439094486133
2025-03-23 17:18:41.868,-1.7271698959086006
2025-03-23 17:18:41.877,-3.112208814399217
2025-03-23 17:18:41.878,-1.3011640506574247
2025-03-23 17:18:41.878,1.8884147888070175
2025-03-23 17:18:41.878,3.032279382460527
2025-03-23 17:18:41.887,0.6285352632059215
2025-03-23 17:18:41.887,-2.9232849962001146
2025-03-23 17:18:41.888,-3.526542437314573
2025-03-23 17:18:41.888,0.04670219487768576
2025-03-23 17:18:41.888,4.328478417788551
2025-03-23 17:18:41.897,4.56771234818259
2025-03-23 17:18:41.897,-0.08803615977377646
2025-03-23 17:18:41.898,-5.316587722609211
2025-03-23 17:18:41.898,-5.800930882078667
2025-03-23 17:18:41.898,-0.680619168617471
2025-03-23 17:18:41.907,5.306469779988696
2025-03-23 17:18:41.907,6.3827963708788005
2025-03-23 17:18:41.907,1.5857765286275272
2025-03-23 17:18:41.908,-4.198227355351597
2025-03-23 17:18:41.908,-5.407611191853557
2025-03-23 17:18:41.917,-1.6662912302527264
2025-03-23 17:18:41.917,2.3520469033105185
2025-03-23 17:18:41.917,2.7497141785845103
2025-03-23 17:18:41.918,0.596351859612994
2025-03-23 17:18:41.918,-0.474902624739236
2025-03-23 17:18:41.925,0.5720704661153322
2025-03-23 17:18:41.926,1.2436236692309324
2025-03-23 17:18:41.926,-0.5133963904208079
2025-03-23 17:18:41.926,-3.1457704880383375
2025-03-23 17:18:41.926,-3.2146423804300857
2025-03-23 17:18:41.935,0.2341217647137535
2025-03-23 17:18:41.936,4.022345944271857
2025-03-23 17:18:41.936,4.2061300801281645
2025-03-23 17:18:41.936,0.7306619058118253
2025-03-23 17:18:41.936,-2.543550845802365
2025-03-23 17:18:41.946,-2.8314098951855864
2025-03-23 17:18:41.946,-1.6632768239779288
2025-03-23 17:18:41.946,-1.5687982219966516
2025-03-23 17:18:41.946,-1.3080959080551435
2025-03-23 17:18:41.946,2.185468153846336
2025-03-23 17:18:41.955,7.217821792505398
2025-03-23 17:18:41.955,6.93166238848204
2025-03-23 17:18:41.956,-1.8129688159811042
2025-03-23 17:18:41.956,-11.771529451824652
2025-03-23 17:18:41.965,-11.7296454153438
2025-03-23 17:18:41.965,0.17744996471000274
2025-03-23 17:18:41.965,12.81508985350873
2025-03-23 17:18:41.966,13.571880404866892
2025-03-23 17:18:41.966,1.9994095827253267
2025-03-23 17:18:41.973,-10.080926557965459
2025-03-23 17:18:41.974,-11.597671112303306
2025-03-23 17:18:41.974,-3.1978003625228277
2025-03-23 17:18:41.974,5.3930718639827875
2025-03-23 17:18:41.974,6.824666046341313
2025-03-23 17:18:41.983,2.617860211350969
2025-03-23 17:18:41.984,-1.1492454417009155
2025-03-23 17:18:41.984,-1.5995183537262636
2025-03-23 17:18:41.984,-0.7570291485612698
2025-03-23 17:18:41.984,-1.074279012610029
2025-03-23 17:18:41.995,-1.9568598949615337
2025-03-23 17:18:41.995,-1.3017759882662538
2025-03-23 17:18:41.995,1.1541082602078985
2025-03-23 17:18:41.995,3.2542663917674477
2025-03-23 17:18:41.996,2.765720796762167
2025-03-23 17:18:42.003,-0.28367510843284155
2025-03-23 17:18:42.004,-3.3261189094046046
2025-03-23 17:18:42.004,-3.3174707622320896
2025-03-23 17:18:42.004,0.09410751548235552
2025-03-23 17:18:42.004,3.452977311260717
2025-03-23 17:18:42.014,2.8539140801632836
2025-03-23 17:18:42.014,-1.2078300310538381
2025-03-23 17:18:42.014,-3.872084112093591
2025-03-23 17:18:42.014,-1.7385651590419615
2025-03-23 17:18:42.023,2.7262422564554774
2025-03-23 17:18:42.023,4.150127495082359
2025-03-23 17:18:42.024,0.862496627566206
2025-03-23 17:18:42.024,-3.303004392904367
2025-03-23 17:18:42.024,-3.906410958975861
2025-03-23 17:18:42.033,-0.8735500087179882
2025-03-23 17:18:42.033,2.3029794539181205
2025-03-23 17:18:42.034,2.997302520233014
2025-03-23 17:18:42.034,1.563191816297069
2025-03-23 17:18:42.034,-0.34243454694414677
2025-03-23 17:18:42.043,-1.6967079275063404
2025-03-23 17:18:42.044,-2.0654597828819368
2025-03-23 17:18:42.044,-1.1526301590441235
2025-03-23 17:18:42.044,0.6080015756971807
2025-03-23 17:18:42.044,1.776657312767225
2025-03-23 17:18:42.053,1.276661260779787
2025-03-23 17:18:42.053,-0.17593341409341132
2025-03-23 17:18:42.054,-0.8672421752879856
2025-03-23 17:18:42.054,-0.28665738156727005
2025-03-23 17:18:42.054,0.32162070328685005
2025-03-23 17:18:42.063,-0.13999701573815637
2025-03-23 17:18:42.063,-0.9885437763815981
2025-03-23 17:18:42.064,-0.7142365846525961
2025-03-23 17:18:42.064,0.8139429461225477
2025-03-23 17:18:42.064,1.920379968508745
2025-03-23 17:18:42.073,1.1193395714694478
2025-03-23 17:18:42.073,-0.9542556130913326
2025-03-23 17:18:42.073,-2.147353628431005
2025-03-23 17:18:42.074,-1.2819726336535713
2025-03-23 17:18:42.074,0.5308527333609819
2025-03-23 17:18:42.083,1.3982899070765387
2025-03-23 17:18:42.083,0.9409327382676468
2025-03-23 17:18:42.084,0.32903454427117024
2025-03-23 17:18:42.084,0.236383165872548
2025-03-23 17:18:42.084,-0.11018775440966219
2025-03-23 17:18:42.093,-1.2757218397797037
2025-03-23 17:18:42.093,-1.9929424938447804
2025-03-23 17:18:42.094,-0.6007480585311102
2025-03-23 17:18:42.094,2.036665801430958
2025-03-23 17:18:42.094,2.7594894242588337
2025-03-23 17:18:42.103,0.18081993800379778
2025-03-23 17:18:42.103,-2.7844975763705127
2025-03-23 17:18:42.104,-2.1709835289143102
2025-03-23 17:18:42.104,1.667543187037391
2025-03-23 17:18:42.104,3.90407487094027
2025-03-23 17:18:42.113,1.1678503054419571
2025-03-23 17:18:42.113,-3.8536506539707407
2025-03-23 17:18:42.113,-5.270526534304016
2025-03-23 17:18:42.114,-0.9773915828815578
2025-03-23 17:18:42.114,4.779461022187558
2025-03-23 17:18:42.121,6.151054786093608
2025-03-23 17:18:42.122,1.8744941064361416
2025-03-23 17:18:42.122,-3.874474453708487
2025-03-23 17:18:42.122,-5.98884574003198
2025-03-23 17:18:42.131,-3.0450066838418746
2025-03-23 17:18:42.132,2.0215148381853503
2025-03-23 17:18:42.132,4.8808719694732
2025-03-23 17:18:42.132,3.4571628914099053
2025-03-23 17:18:42.132,-0.5655122651742892
2025-03-23 17:18:42.141,-3.419528790378297
2025-03-23 17:18:42.141,-2.7375639534698073
2025-03-23 17:18:42.142,0.27329680863159367
2025-03-23 17:18:42.142,2.236211874147402
2025-03-23 17:18:42.142,1.2876752300318144
2025-03-23 17:18:42.151,-0.997070062352988
2025-03-23 17:18:42.152,-1.6548977421746587
2025-03-23 17:18:42.152,0.09930590224241355
2025-03-23 17:18:42.152,2.0308120617604657
2025-03-23 17:18:42.152,1.644219543922967
2025-03-23 17:18:42.152,-0.8339823881820282
2025-03-23 17:18:42.161,-2.7094180387303672
2025-03-23 17:18:42.162,-1.8818441508657466
2025-03-23 17:18:42.162,0.8665139112893349
2025-03-23 17:18:42.162,2.8155894932732766
2025-03-23 17:18:42.171,2.148668338751816
2025-03-23 17:18:42.171,-0.46767189337227427
2025-03-23 17:18:42.172,-2.759143379784994
2025-03-23 17:18:42.172,-2.7385778324456873
2025-03-23 17:18:42.172,-0.09334556758863113
2025-03-23 17:18:42.181,3.278564151520454
2025-03-23 17:18:42.181,4.110452516474461
2025-03-23 17:18:42.182,0.6270367898956875
2025-03-23 17:18:42.182,-4.596280918484055
2025-03-23 17:18:42.182,-6.027656200911639
2025-03-23 17:18:42.191,-1.1225792912655188
2025-03-23 17:18:42.192,5.79272066963257
2025-03-23 17:18:42.192,7.502758227199404
2025-03-23 17:18:42.192,1.8871787234136603
2025-03-23 17:18:42.192,-5.597022602073744
2025-03-23 17:18:42.201,-7.793388126104028
2025-03-23 17:18:42.201,-3.0408904878338188
2025-03-23 17:18:42.202,3.8840606333473815
2025-03-23 17:18:42.202,6.897061927308692
2025-03-23 17:18:42.202,3.977030795884888
2025-03-23 17:18:42.211,-1.7527483152458763
2025-03-23 17:18:42.211,-5.2307641709402715
2025-03-23 17:18:42.212,-3.861827570259553
2025-03-23 17:18:42.212,0.4169466184390155
2025-03-23 17:18:42.212,3.215915433996945
2025-03-23 17:18:42.221,2.2369367137589258
2025-03-23 17:18:42.221,-0.39229106448448925
2025-03-23 17:18:42.221,-1.002150475682092
2025-03-23 17:18:42.222,0.7482011944763103
2025-03-23 17:18:42.222,1.4511286904944012
2025-03-23 17:18:42.231,-1.064262589143703
2025-03-23 17:18:42.231,-4.057693924854488
2025-03-23 17:18:42.231,-3.021911646921809
2025-03-23 17:18:42.232,2.1044937345357044
2025-03-23 17:18:42.232,6.055490696114872
2025-03-23 17:18:42.241,4.308403777715617
2025-03-23 17:18:42.241,-1.510117723923356
2025-03-23 17:18:42.241,-5.622013221699845
2025-03-23 17:18:42.242,-4.597291508106156
2025-03-23 17:18:42.242,-0.3031821040695136
2025-03-23 17:18:42.251,3.192990546283802
2025-03-23 17:18:42.251,3.8055002619455656
2025-03-23 17:18:42.252,2.1226522243484784
2025-03-23 17:18:42.252,-0.3833834640330047
2025-03-23 17:18:42.252,-2.4490196398860893
2025-03-23 17:18:42.261,-2.957257813385101
2025-03-23 17:18:42.261,-1.3606348992997783
2025-03-23 17:18:42.262,1.3007778776505061
2025-03-23 17:18:42.262,2.689832749333344
2025-03-23 17:18:42.262,1.4488369833075905
2025-03-23 17:18:42.271,-0.9761474875757504
2025-03-23 17:18:42.271,-1.7109247799328915
2025-03-23 17:18:42.272,0.04076155110021304
2025-03-23 17:18:42.272,1.7078137017348425
2025-03-23 17:18:42.272,0.47787304395683095
2025-03-23 17:18:42.281,-2.653517915471265
2025-03-23 17:18:42.281,-3.403162873302484
2025-03-23 17:18:42.282,0.46063536048013715
2025-03-23 17:18:42.282,5.391025692932894
2025-03-23 17:18:42.282,5.436523603429896
2025-03-23 17:18:42.291,-0.5387309871898491
2025-03-23 17:18:42.291,-6.733156524196221
2025-03-23 17:18:42.292,-6.63177655162981
2025-03-23 17:18:42.292,-0.3301344243166509
2025-03-23 17:18:42.292,5.776125827397138
2025-03-23 17:18:42.299,6.144268617893444
2025-03-23 17:18:42.300,1.4318514185716542
2025-03-23 17:18:42.300,-3.3022377233046694
2025-03-23 17:18:42.300,-4.214828307569751
2025-03-23 17:18:42.300,-1.7507196031306715
2025-03-23 17:18:42.311,0.9803608116146177
2025-03-23 17:18:42.311,1.7496403995076284
2025-03-23 17:18:42.311,0.9436384144935781
2025-03-23 17:18:42.312,0.27096406246666094
2025-03-23 17:18:42.312,0.4038873921849657
2025-03-23 17:18:42.320,0.4066887878443159
2025-03-23 17:18:42.320,-0.5677093012860105
2025-03-23 17:18:42.320,-1.7399645896202436
2025-03-23 17:18:42.320,-1.5108151406360744
2025-03-23 17:18:42.320,0.35499274840835354
2025-03-23 17:18:42.330,2.09748071200142
2025-03-23 17:18:42.330,1.9089442450544865
2025-03-23 17:18:42.330,0.06266470440885336
2025-03-23 17:18:42.330,-1.5124159942585869
2025-03-23 17:18:42.330,-1.5514151227174415
2025-03-23 17:18:42.339,-0.5768303532556494
2025-03-23 17:18:42.340,0.29707212648429676
2025-03-23 17:18:42.340,0.7570387364814265
2025-03-23 17:18:42.340,1.0314158588195856
2025-03-23 17:18:42.349,0.947803813100464
2025-03-23 17:18:42.350,0.08317916582500907
2025-03-23 17:18:42.350,-1.2298061316679825
2025-03-23 17:18:42.350,-1.7520623279087368
2025-03-23 17:18:42.350,-0.6556981072611927
2025-03-23 17:18:42.350,1.1901985728503128
2025-03-23 17:18:42.359,1.8517679874155295
2025-03-23 17:18:42.360,0.5792347029903354
2025-03-23 17:18:42.360,-1.040167123421727
2025-03-23 17:18:42.360,-0.9379350029594803
2025-03-23 17:18:42.369,0.5511372860917115
2025-03-23 17:18:42.370,0.8452583660484083
2025-03-23 17:18:42.370,-1.1620891144597145
2025-03-23 17:18:42.370,-2.7497700891520336
2025-03-23 17:18:42.370,-0.5989974407087423
2025-03-23 17:18:42.370,3.9005426263441145
2025-03-23 17:18:42.380,5.107275883282959
2025-03-23 17:18:42.380,0.23339388839633904
2025-03-23 17:18:42.380,-5.967329214256632
2025-03-23 17:18:42.380,-6.164603597584908
2025-03-23 17:18:42.389,0.41686001501085646
2025-03-23 17:18:42.390,6.5063764581513945
2025-03-23 17:18:42.390,5.289611822664798
2025-03-23 17:18:42.390,-1.5668384682394603
2025-03-23 17:18:42.390,-6.096797907765194
2025-03-23 17:18:42.399,-3.3873434203406023
2025-03-23 17:18:42.400,3.103616612918864
2025-03-23 17:18:42.400,5.896678133103462
2025-03-23 17:18:42.400,1.9303111920270635
2025-03-23 17:18:42.400,-4.340698389038564
2025-03-23 17:18:42.409,-6.1072003408793645
2025-03-23 17:18:42.410,-1.5863627580509065
2025-03-23 17:18:42.410,4.397663873030691
2025-03-23 17:18:42.410,5.912586996975951
2025-03-23 17:18:42.410,2.0119881589050292
2025-03-23 17:18:42.419,-3.0427011977819696
2025-03-23 17:18:42.420,-4.727702707370617
2025-03-23 17:18:42.420,-2.4081792123031103
2025-03-23 17:18:42.420,1.0937383314175038
2025-03-23 17:18:42.420,2.8318406700253953
2025-03-23 17:18:42.429,2.127967755780259
2025-03-23 17:18:42.430,0.3155391995978951
2025-03-23 17:18:42.430,-1.0025769334044146
2025-03-23 17:18:42.430,-1.216175265191021
2025-03-23 17:18:42.430,-0.696099504939269
2025-03-23 17:18:42.439,-0.08099491767823103
2025-03-23 17:18:42.439,0.29388621846340857
2025-03-23 17:18:42.440,0.4738746156170386
2025-03-23 17:18:42.440,0.5409312736952371
2025-03-23 17:18:42.440,0.27022935861462727
2025-03-23 17:18:42.450,-0.5786560570804791
2025-03-23 17:18:42.450,-1.433636786042166
2025-03-23 17:18:42.450,-0.9223078823766337
2025-03-23 17:18:42.450,1.4045607097381303
2025-03-23 17:18:42.450,3.5026727359798238
2025-03-23 17:18:42.459,2.340793969276467
2025-03-23 17:18:42.460,-2.1995287931043097
2025-03-23 17:18:42.460,-5.914915443873778
2025-03-23 17:18:42.460,-4.304175760058296
2025-03-23 17:18:42.460,1.9741531019240295
2025-03-23 17:18:42.469,7.005006831985189
2025-03-23 17:18:42.469,5.698337493767439
2025-03-23 17:18:42.469,-0.71920404222126
2025-03-23 17:18:42.470,-6.06023982495627
2025-03-23 17:18:42.470,-5.666150842789991
2025-03-23 17:18:42.479,-0.7272061236090162
2025-03-23 17:18:42.479,3.7639180230220055
2025-03-23 17:18:42.480,4.30957014492401
2025-03-23 17:18:42.480,1.5852639137053801
2025-03-23 17:18:42.480,-1.3684407096901745
2025-03-23 17:18:42.489,-2.398262734889082
2025-03-23 17:18:42.490,-1.5482893815997947
2025-03-23 17:18:42.490,-0.12102142536536695
2025-03-23 17:18:42.490,0.7533321609033088
2025-03-23 17:18:42.490,0.7782881029606693
2025-03-23 17:18:42.499,0.36108023785122506
2025-03-23 17:18:42.499,0.10091693207533227
2025-03-23 17:18:42.499,0.21839843572017986
2025-03-23 17:18:42.500,0.32738469917828
2025-03-23 17:18:42.500,-0.0866310324903163
2025-03-23 17:18:42.509,-0.8619654287754335
2025-03-23 17:18:42.510,-1.1381051731905705
2025-03-23 17:18:42.510,-0.4175454598589622
2025-03-23 17:18:42.510,0.6836607997600479
2025-03-23 17:18:42.510,1.1896418612511588
2025-03-23 17:18:42.518,0.9351878739443125
2025-03-23 17:18:42.518,0.3998339311730788
2025-03-23 17:18:42.518,-0.26336167182825854
2025-03-23 17:18:42.518,-1.16768711795288
2025-03-23 17:18:42.518,-1.7951766020726947
2025-03-23 17:18:42.529,-1.1547099579435547
2025-03-23 17:18:42.529,0.8482598826874296
2025-03-23 17:18:42.529,2.7931623922856494
2025-03-23 17:18:42.529,2.819483403185363
2025-03-23 17:18:42.530,0.2530941212822449
2025-03-23 17:18:42.538,-3.442118120454224
2025-03-23 17:18:42.538,-5.0365970567189144
2025-03-23 17:18:42.538,-1.9644131266456588
2025-03-23 17:18:42.538,4.215527055705653
2025-03-23 17:18:42.538,7.600674321666502
2025-03-23 17:18:42.547,3.5688010882969423
2025-03-23 17:18:42.548,-4.971752166098905
2025-03-23 17:18:42.548,-9.28661875468871
2025-03-23 17:18:42.548,-4.317272838080572
2025-03-23 17:18:42.557,5.016998041799619
2025-03-23 17:18:42.558,9.02661585047181
2025-03-23 17:18:42.558,4.08871557735764
2025-03-23 17:18:42.558,-3.896587970998579
2025-03-23 17:18:42.558,-6.935253432866269
2025-03-23 17:18:42.567,-3.45962850012367
2025-03-23 17:18:42.568,1.7172858778558926
2025-03-23 17:18:42.568,3.946990917161384
2025-03-23 17:18:42.568,2.9046091539850325
2025-03-23 17:18:42.568,0.8222566668330575
2025-03-23 17:18:42.568,-0.8873283315112178
2025-03-23 17:18:42.578,-2.1536643890177265
2025-03-23 17:18:42.578,-2.7137008049304643
2025-03-23 17:18:42.578,-1.7428296616607502
2025-03-23 17:18:42.578,0.7472612803541336
2025-03-23 17:18:42.587,3.1039132004998184
2025-03-23 17:18:42.588,3.377282890563576
2025-03-23 17:18:42.588,1.2810595606827138
2025-03-23 17:18:42.588,-1.6399084750443316
2025-03-23 17:18:42.588,-3.5482703261812243
2025-03-23 17:18:42.597,-3.4486573015029616
2025-03-23 17:18:42.598,-1.1951728438482783
2025-03-23 17:18:42.598,2.3600655560717327
2025-03-23 17:18:42.598,4.95940257636139
2025-03-23 17:18:42.598,4.096770117536613
2025-03-23 17:18:42.607,-0.28346633014910444
2025-03-23 17:18:42.608,-4.890713868427308
2025-03-23 17:18:42.608,-5.889455435850127
2025-03-23 17:18:42.608,-2.395636403248742
2025-03-23 17:18:42.608,3.054735273397268
2025-03-23 17:18:42.617,6.619931735689276
2025-03-23 17:18:42.617,5.433720234811427
2025-03-23 17:18:42.617,-0.4641895718524324
2025-03-23 17:18:42.618,-6.98387568661542
2025-03-23 17:18:42.618,-8.144620966274761
2025-03-23 17:18:42.627,-1.7948518241056979
2025-03-23 17:18:42.627,6.868745791425406
2025-03-23 17:18:42.627,9.568441233101662
2025-03-23 17:18:42.627,3.511940797876214
2025-03-23 17:18:42.628,-5.493620124548901
2025-03-23 17:18:42.637,-9.117710203254864
2025-03-23 17:18:42.637,-4.736821027511229
2025-03-23 17:18:42.638,2.897997038367004
2025-03-23 17:18:42.638,7.038213268842133
2025-03-23 17:18:42.638,4.980457255850767
2025-03-23 17:18:42.646,-0.45932805117830067
2025-03-23 17:18:42.646,-4.201773634802816
2025-03-23 17:18:42.646,-3.5804712158447023
2025-03-23 17:18:42.646,-0.40275038506192934
2025-03-23 17:18:42.646,1.5247514877286383
2025-03-23 17:18:42.655,0.8022904490947151
2025-03-23 17:18:42.656,-0.3809027091398691
2025-03-23 17:18:42.656,0.29486433850176696
2025-03-23 17:18:42.656,1.9070874286456088
2025-03-23 17:18:42.665,1.6783835086867052
2025-03-23 17:18:42.665,-0.8894879069481565
2025-03-23 17:18:42.666,-3.034711830601741
2025-03-23 17:18:42.666,-2.284286531823294
2025-03-23 17:18:42.666,0.42686707762802834
2025-03-23 17:18:42.675,2.1807403796704494
2025-03-23 17:18:42.675,1.7389842429161815
2025-03-23 17:18:42.676,0.449912989620992
2025-03-23 17:18:42.676,-0.2090917973377797
2025-03-23 17:18:42.676,-0.4540479574095288
2025-03-23 17:18:42.685,-1.0300992488536347
2025-03-23 17:18:42.685,-1.4823998611738847
2025-03-23 17:18:42.686,-0.7835679536831069
2025-03-23 17:18:42.686,0.8498571906867916
2025-03-23 17:18:42.686,1.9827152228643292
2025-03-23 17:18:42.695,1.6932230038134677
2025-03-23 17:18:42.695,0.28597009461440925
2025-03-23 17:18:42.696,-1.5122007477984125
2025-03-23 17:18:42.696,-2.8100035262371548
2025-03-23 17:18:42.696,-2.178559394623986
2025-03-23 17:18:42.705,1.0633568704204217
2025-03-23 17:18:42.705,4.562563884734079
2025-03-23 17:18:42.705,4.061898242637951
2025-03-23 17:18:42.706,-1.3178398595807828
2025-03-23 17:18:42.706,-6.347970477233014
2025-03-23 17:18:42.715,-4.942737467736407
2025-03-23 17:18:42.715,2.026173680903375
2025-03-23 17:18:42.716,6.913304035104304
2025-03-23 17:18:42.716,4.29087869381714
2025-03-23 17:18:42.716,-2.4999243518487715
2025-03-23 17:18:42.725,-5.654532007344413
2025-03-23 17:18:42.726,-2.3439310272284817
2025-03-23 17:18:42.726,2.6022674446118104
2025-03-23 17:18:42.726,3.320574341988248
2025-03-23 17:18:42.726,-0.13039296962505703
2025-03-23 17:18:42.733,-2.7419169413280864
2025-03-23 17:18:42.734,-1.2625182505640322
2025-03-23 17:18:42.734,2.0771042267809765
2025-03-23 17:18:42.734,2.9415379267755872
2025-03-23 17:18:42.734,0.40709107908097697
2025-03-23 17:18:42.744,-2.426989213722002
2025-03-23 17:18:42.744,-2.748167042725821
2025-03-23 17:18:42.744,-1.0173623614102856
2025-03-23 17:18:42.744,0.7662594617561086
2025-03-23 17:18:42.753,1.9126805302222638
2025-03-23 17:18:42.754,2.6791417158342843
2025-03-23 17:18:42.754,2.227786633050332
2025-03-23 17:18:42.754,-0.6936938519891741
2025-03-23 17:18:42.754,-4.59937556773917
2025-03-23 17:18:42.763,-5.062860208974259
2025-03-23 17:18:42.764,0.06345112616496451
2025-03-23 17:18:42.764,6.149429777114652
2025-03-23 17:18:42.764,5.8692198900624755
2025-03-23 17:18:42.764,-1.2057237784581185
2025-03-23 17:18:42.773,-6.584460224873672
2025-03-23 17:18:42.774,-3.401626373327128
2025-03-23 17:18:42.774,3.835671017514825
2025-03-23 17:18:42.774,4.941051198397768
2025-03-23 17:18:42.774,-1.5640932762161721
2025-03-23 17:18:42.783,-5.975673347518031
2025-03-23 17:18:42.783,-1.241555587006669
2025-03-23 17:18:42.784,6.505949442157304
2025-03-23 17:18:42.784,6.190234370647185
2025-03-23 17:18:42.784,-2.7000821376678195
2025-03-23 17:18:42.793,-9.128175885549146
2025-03-23 17:18:42.793,-5.041073864616935
2025-03-23 17:18:42.794,4.608130240715947
2025-03-23 17:18:42.794,8.769802167940515
2025-03-23 17:18:42.794,3.6976941049769287
2025-03-23 17:18:42.803,-3.9872425078745692
2025-03-23 17:18:42.803,-6.225436117169539
2025-03-23 17:18:42.804,-2.174897128679337
2025-03-23 17:18:42.804,2.515609531144521
2025-03-23 17:18:42.804,2.8965827672107287
2025-03-23 17:18:42.813,-0.2569175737524688
2025-03-23 17:18:42.814,-2.202213453558294
2025-03-23 17:18:42.814,-0.12301585426524364
2025-03-23 17:18:42.814,3.4251165045570056
2025-03-23 17:18:42.814,3.5094632928607856
2025-03-23 17:18:42.823,-1.0190666901761047
2025-03-23 17:18:42.824,-5.653497180587358
2025-03-23 17:18:42.824,-5.266738344931142
2025-03-23 17:18:42.824,-0.03191344886361064
2025-03-23 17:18:42.824,5.022260298082075
2025-03-23 17:18:42.833,5.841759156772712
2025-03-23 17:18:42.833,2.8832235171216927
2025-03-23 17:18:42.833,-1.2061023511410676
2025-03-23 17:18:42.834,-4.7367373805601165
2025-03-23 17:18:42.834,-6.251967089270434
2025-03-23 17:18:42.843,-3.485607198624707
2025-03-23 17:18:42.843,3.320214948942007
2025-03-23 17:18:42.844,8.404792968844491
2025-03-23 17:18:42.844,5.500159173282272
2025-03-23 17:18:42.844,-3.327450402321505
2025-03-23 17:18:42.853,-8.18893325532756
2025-03-23 17:18:42.853,-3.275633765729891
2025-03-23 17:18:42.854,5.047222621154671
2025-03-23 17:18:42.854,5.965826569592465
2025-03-23 17:18:42.854,-1.5975876019021302
2025-03-23 17:18:42.863,-7.350406588788718
2025-03-23 17:18:42.863,-3.118396283319181
2025-03-23 17:18:42.864,6.262986089068022
2025-03-23 17:18:42.864,8.924791756620365
2025-03-23 17:18:42.864,0.9334326249090197
2025-03-23 17:18:42.873,-8.78700110344741
2025-03-23 17:18:42.873,-9.171767302152192
2025-03-23 17:18:42.874,0.23652457687200057
2025-03-23 17:18:42.874,9.18264967456458
2025-03-23 17:18:42.874,8.211106990997665
2025-03-23 17:18:42.882,-1.376722753156409
2025-03-23 17:18:42.882,-9.137271967935273
2025-03-23 17:18:42.882,-6.56796814547643
2025-03-23 17:18:42.882,3.5770148932117074
2025-03-23 17:18:42.891,9.837816095091247
2025-03-23 17:18:42.892,4.818966566934714
2025-03-23 17:18:42.892,-5.857542715010126
2025-03-23 17:18:42.892,-9.888760785609225
2025-03-23 17:18:42.892,-3.1001344616571447
2025-03-23 17:18:42.901,5.853534710439316
2025-03-23 17:18:42.901,6.983828911075024
2025-03-23 17:18:42.902,1.216400547427975
2025-03-23 17:18:42.902,-2.7099014693195005
2025-03-23 17:18:42.902,-1.1787096228080094
2025-03-23 17:18:42.911,0.36316124151276485
2025-03-23 17:18:42.912,-2.5523430900918296
2025-03-23 17:18:42.912,-5.214969434774663
2025-03-23 17:18:42.912,-0.5859989592741607
2025-03-23 17:18:42.912,8.35252230755686
2025-03-23 17:18:42.919,9.98576463416573
2025-03-23 17:18:42.920,-0.4917838649985638
2025-03-23 17:18:42.920,-12.56619549890659
2025-03-23 17:18:42.920,-12.02256517949864
2025-03-23 17:18:42.929,1.4072685530215678
2025-03-23 17:18:42.930,13.236169655251315
2025-03-23 17:18:42.930,11.228891993827666
2025-03-23 17:18:42.930,-1.1785865502368107
2025-03-23 17:18:42.930,-10.389044855286008
2025-03-23 17:18:42.939,-8.41225337949501
2025-03-23 17:18:42.939,0.17817491005414088
2025-03-23 17:18:42.940,5.854884924169905
2025-03-23 17:18:42.940,4.844116538929091
2025-03-23 17:18:42.940,0.8000064883442497
2025-03-23 17:18:42.949,-1.6237935340817191
2025-03-23 17:18:42.950,-1.6935581096076389
2025-03-23 17:18:42.950,-1.17188007129894
2025-03-23 17:18:42.950,-0.8413946279075646
2025-03-23 17:18:42.950,-0.20938378278563793
2025-03-23 17:18:42.959,0.637809165794342
2025-03-23 17:18:42.959,0.8971906690820057
2025-03-23 17:18:42.960,0.5561213393059862
2025-03-23 17:18:42.960,0.4506862097137707
2025-03-23 17:18:42.960,0.6579635130612778
2025-03-23 17:18:42.969,0.22889211468560197
2025-03-23 17:18:42.970,-1.0203672130364363
2025-03-23 17:18:42.970,-1.7717971721568186
2025-03-23 17:18:42.970,-1.101946025461848
2025-03-23 17:18:42.970,0.05544346186448327
2025-03-23 17:18:42.979,0.5501947893482417
2025-03-23 17:18:42.979,1.0121100774589022
