timestamp,bandpass_and_notch
2025-03-23 17:47:49.083,-0.1936547002228287
2025-03-23 17:47:49.083,4.9416649314521575
2025-03-23 17:47:49.084,6.178063766623309
2025-03-23 17:47:49.084,-2.942812826435024
2025-03-23 17:47:49.093,-18.77708198084833
2025-03-23 17:47:49.093,-21.396070858091342
2025-03-23 17:47:49.093,2.6982796638275435
2025-03-23 17:47:49.093,34.465938505802306
2025-03-23 17:47:49.094,36.34159890170651
2025-03-23 17:47:49.101,-2.004719495110311
2025-03-23 17:47:49.101,-44.58483125864772
2025-03-23 17:47:49.102,-46.33567922127736
2025-03-23 17:47:49.102,-4.006096269094941
2025-03-23 17:47:49.109,40.37833006386027
2025-03-23 17:47:49.109,45.90431489590128
2025-03-23 17:47:49.110,13.470324866471499
2025-03-23 17:47:49.110,-22.06404531616914
2025-03-23 17:47:49.110,-31.660711771683445
2025-03-23 17:47:49.119,-16.537689443102593
2025-03-23 17:47:49.119,2.975926041694763
2025-03-23 17:47:49.119,12.331130119456326
2025-03-23 17:47:49.120,12.169755414253036
2025-03-23 17:47:49.129,8.895626863936604
2025-03-23 17:47:49.129,4.3860626101684215
2025-03-23 17:47:49.129,-2.723465444253539
2025-03-23 17:47:49.129,-10.251687496995846
2025-03-23 17:47:49.129,-12.23312356652231
2025-03-23 17:47:49.139,-5.939643347034916
2025-03-23 17:47:49.139,3.8955871401794964
2025-03-23 17:47:49.139,9.545588865720363
2025-03-23 17:47:49.139,7.759539449692101
2025-03-23 17:47:49.139,1.7218367143122757
2025-03-23 17:47:49.149,-3.23254745018631
2025-03-23 17:47:49.149,-4.3621688600291995
2025-03-23 17:47:49.149,-2.563486175000984
2025-03-23 17:47:49.149,-0.40274549643862906
2025-03-23 17:47:49.150,0.32106808164582606
2025-03-23 17:47:49.159,-0.17007200262466976
2025-03-23 17:47:49.159,-0.23334731763569322
2025-03-23 17:47:49.159,1.1103874732501295
2025-03-23 17:47:49.159,2.6351943464598184
2025-03-23 17:47:49.159,2.123331583200413
2025-03-23 17:47:49.169,-0.5683366752968284
2025-03-23 17:47:49.169,-2.6364865413965566
2025-03-23 17:47:49.169,-1.6092277497933576
2025-03-23 17:47:49.169,1.1294809968127133
2025-03-23 17:47:49.170,1.7804001347452685
2025-03-23 17:47:49.179,-0.7286379061647335
2025-03-23 17:47:49.179,-2.916867393546793
2025-03-23 17:47:49.179,-1.3082316314181943
2025-03-23 17:47:49.179,2.565469201857448
2025-03-23 17:47:49.179,3.830494692298882
2025-03-23 17:47:49.189,0.7151644921390758
2025-03-23 17:47:49.189,-2.924678687733823
2025-03-23 17:47:49.189,-2.602582560661516
2025-03-23 17:47:49.189,0.8659614400880092
2025-03-23 17:47:49.189,2.4972696436477433
2025-03-23 17:47:49.199,-0.0646053747281505
2025-03-23 17:47:49.199,-3.2249376816341244
2025-03-23 17:47:49.199,-2.2467038991624406
2025-03-23 17:47:49.199,2.174092214984988
2025-03-23 17:47:49.199,4.560596398371118
2025-03-23 17:47:49.207,1.8041452176185766
2025-03-23 17:47:49.207,-2.7745421048000143
2025-03-23 17:47:49.208,-3.770302200046497
2025-03-23 17:47:49.208,-0.4894509827658069
2025-03-23 17:47:49.208,2.5803920417140556
2025-03-23 17:47:49.217,1.7325806086060271
2025-03-23 17:47:49.217,-1.4593336931183418
2025-03-23 17:47:49.218,-2.527873070601111
2025-03-23 17:47:49.218,0.017722342664906132
2025-03-23 17:47:49.218,2.8704301611103427
2025-03-23 17:47:49.227,2.395594178654035
2025-03-23 17:47:49.227,-0.5756685761622468
2025-03-23 17:47:49.227,-2.15898585800564
2025-03-23 17:47:49.228,-1.0256798957414814
2025-03-23 17:47:49.237,0.003208133028003962
2025-03-23 17:47:49.237,-1.137150674791329
2025-03-23 17:47:49.237,-1.9188039842882292
2025-03-23 17:47:49.238,0.9932022350315202
2025-03-23 17:47:49.238,5.454386461936562
2025-03-23 17:47:49.238,5.145175263700566
2025-03-23 17:47:49.247,-1.777775236435065
2025-03-23 17:47:49.247,-8.422630581272742
2025-03-23 17:47:49.247,-6.571988260078417
2025-03-23 17:47:49.247,2.6163984815299437
2025-03-23 17:47:49.257,8.818400686535739
2025-03-23 17:47:49.257,4.77410214495567
2025-03-23 17:47:49.257,-4.390602327784642
2025-03-23 17:47:49.257,-7.215512701600553
2025-03-23 17:47:49.257,-0.36752206437805335
2025-03-23 17:47:49.267,7.005526612879462
2025-03-23 17:47:49.267,5.00972582678644
2025-03-23 17:47:49.267,-4.1774554037376
2025-03-23 17:47:49.267,-8.992876369525307
2025-03-23 17:47:49.267,-3.1495351339519444
2025-03-23 17:47:49.275,6.543204559873718
2025-03-23 17:47:49.275,8.855743425743372
2025-03-23 17:47:49.275,1.8359469485582949
2025-03-23 17:47:49.276,-5.747970590619947
2025-03-23 17:47:49.276,-6.075904443378445
2025-03-23 17:47:49.285,-1.1754464199580954
2025-03-23 17:47:49.285,1.8839371485872227
2025-03-23 17:47:49.285,1.2402597775040638
2025-03-23 17:47:49.286,1.1658752744268217
2025-03-23 17:47:49.295,3.6158455216829974
2025-03-23 17:47:49.295,4.167060192772889
2025-03-23 17:47:49.295,-1.0716232585515393
2025-03-23 17:47:49.295,-7.962316320578677
2025-03-23 17:47:49.296,-8.125088785729872
2025-03-23 17:47:49.305,0.19997498992035073
2025-03-23 17:47:49.305,8.862518865787768
2025-03-23 17:47:49.305,8.937329177281077
2025-03-23 17:47:49.305,0.908546022940951
2025-03-23 17:47:49.305,-6.480418069694213
2025-03-23 17:47:49.315,-6.538509577999417
2025-03-23 17:47:49.315,-1.2263952854846947
2025-03-23 17:47:49.315,2.916753545154286
2025-03-23 17:47:49.316,2.8912050459034364
2025-03-23 17:47:49.316,1.0531670564566942
2025-03-23 17:47:49.325,0.050687300356468054
2025-03-23 17:47:49.325,-0.6246756789081963
2025-03-23 17:47:49.325,-1.94163586553147
2025-03-23 17:47:49.325,-2.1456503578915562
2025-03-23 17:47:49.326,0.7430632446767393
2025-03-23 17:47:49.335,4.436160611360504
2025-03-23 17:47:49.335,3.898451226145365
2025-03-23 17:47:49.335,-1.8434640374818647
2025-03-23 17:47:49.335,-7.053381562137403
2025-03-23 17:47:49.335,-5.420856233533602
2025-03-23 17:47:49.345,2.2049090354611605
2025-03-23 17:47:49.345,8.119924458037376
2025-03-23 17:47:49.345,6.035854799544675
2025-03-23 17:47:49.345,-1.9730414642115426
2025-03-23 17:47:49.345,-7.523568189513576
2025-03-23 17:47:49.355,-4.92793027976933
2025-03-23 17:47:49.355,2.491712901005087
2025-03-23 17:47:49.355,6.0907180010148165
2025-03-23 17:47:49.355,1.9836998108133894
2025-03-23 17:47:49.355,-4.252617171398795
2025-03-23 17:47:49.365,-4.471455624975313
2025-03-23 17:47:49.365,1.725156867592374
2025-03-23 17:47:49.365,6.365428635980766
2025-03-23 17:47:49.365,3.185775863366715
2025-03-23 17:47:49.366,-4.4051569766503285
2025-03-23 17:47:49.375,-7.5080439647211
2025-03-23 17:47:49.375,-2.537075077670547
2025-03-23 17:47:49.375,4.842809738905973
2025-03-23 17:47:49.375,6.854949543867546
2025-03-23 17:47:49.376,2.315765471569829
2025-03-23 17:47:49.383,-3.2837677071466427
2025-03-23 17:47:49.383,-4.781590287581768
2025-03-23 17:47:49.384,-2.1310137839372922
2025-03-23 17:47:49.384,1.3108166272351756
2025-03-23 17:47:49.384,2.788145898308082
2025-03-23 17:47:49.395,1.7478476924475443
2025-03-23 17:47:49.395,-0.649132950143756
2025-03-23 17:47:49.395,-2.258858544260653
2025-03-23 17:47:49.395,-1.2945049012581564
2025-03-23 17:47:49.396,1.6214452434396422
2025-03-23 17:47:49.403,3.2941054816433004
2025-03-23 17:47:49.404,1.2571286977620273
2025-03-23 17:47:49.404,-2.8813721107049073
2025-03-23 17:47:49.404,-4.717744718909496
2025-03-23 17:47:49.413,-1.9811077190931126
2025-03-23 17:47:49.413,2.842240140313846
2025-03-23 17:47:49.413,5.263663401404402
2025-03-23 17:47:49.413,3.3329710878559746
2025-03-23 17:47:49.414,-1.0748581919784983
2025-03-23 17:47:49.414,-4.568317502689581
2025-03-23 17:47:49.423,-4.84372858039115
2025-03-23 17:47:49.423,-1.6924174091888369
2025-03-23 17:47:49.423,2.957651482843815
2025-03-23 17:47:49.424,5.7505921369534985
2025-03-23 17:47:49.424,4.145740506895518
2025-03-23 17:47:49.433,-0.9285120836285141
2025-03-23 17:47:49.433,-5.238910968980028
2025-03-23 17:47:49.433,-5.068444745102111
2025-03-23 17:47:49.434,-0.8691700171070635
2025-03-23 17:47:49.443,3.3589285824882236
2025-03-23 17:47:49.443,4.177489728454983
2025-03-23 17:47:49.443,1.7395498008694221
2025-03-23 17:47:49.444,-1.1423355553497503
2025-03-23 17:47:49.444,-2.2198142864949397
2025-03-23 17:47:49.453,-1.5791646284543093
2025-03-23 17:47:49.453,-0.5232351496880899
2025-03-23 17:47:49.453,0.3101816881479077
2025-03-23 17:47:49.454,1.067169359819402
2025-03-23 17:47:49.454,1.4824715359309857
2025-03-23 17:47:49.463,0.7677485668664349
2025-03-23 17:47:49.463,-0.9537992114751933
2025-03-23 17:47:49.463,-2.0197190417331514
2025-03-23 17:47:49.463,-0.9635266087499555
2025-03-23 17:47:49.464,1.3743922379992508
2025-03-23 17:47:49.473,2.4176297492653895
2025-03-23 17:47:49.473,0.8216664558512361
2025-03-23 17:47:49.473,-1.783325221063424
2025-03-23 17:47:49.474,-2.570366863601563
2025-03-23 17:47:49.474,-0.7475438416488149
2025-03-23 17:47:49.483,1.6014300598599023
2025-03-23 17:47:49.483,1.994241863438135
2025-03-23 17:47:49.483,0.3760946743799704
2025-03-23 17:47:49.483,-0.9924976668914197
2025-03-23 17:47:49.484,-0.41885972338231126
2025-03-23 17:47:49.493,1.0168022518376838
2025-03-23 17:47:49.493,0.7520175651929656
2025-03-23 17:47:49.493,-1.7472003698724377
2025-03-23 17:47:49.493,-3.5744288037790324
2025-03-23 17:47:49.493,-1.4569467743679567
2025-03-23 17:47:49.503,3.713621315251133
2025-03-23 17:47:49.503,6.610247210627304
2025-03-23 17:47:49.503,2.9758100184846175
2025-03-23 17:47:49.503,-4.787975161172366
2025-03-23 17:47:49.503,-9.018186889647863
2025-03-23 17:47:49.511,-4.740406464219427
2025-03-23 17:47:49.511,4.456579754644461
2025-03-23 17:47:49.512,9.704968608113896
2025-03-23 17:47:49.512,6.054844904117805
2025-03-23 17:47:49.512,-2.578227630174582
2025-03-23 17:47:49.521,-7.9564411440555105
2025-03-23 17:47:49.521,-6.038616322946385
2025-03-23 17:47:49.522,-0.1079125350018465
2025-03-23 17:47:49.522,3.9640470760071387
2025-03-23 17:47:49.531,3.9540438719174436
2025-03-23 17:47:49.531,2.0535478259488116
2025-03-23 17:47:49.531,0.6731661892031553
2025-03-23 17:47:49.532,-0.3528301938503675
2025-03-23 17:47:49.532,-1.910647703510895
2025-03-23 17:47:49.541,-3.0774413693266225
2025-03-23 17:47:49.541,-2.3778088660243015
2025-03-23 17:47:49.541,-0.4583783211127882
2025-03-23 17:47:49.541,0.8370998699465728
2025-03-23 17:47:49.542,1.6116435703309033
2025-03-23 17:47:49.551,3.4112856510996346
2025-03-23 17:47:49.551,5.233213497926917
2025-03-23 17:47:49.551,3.140760184148371
2025-03-23 17:47:49.551,-4.090654595329096
2025-03-23 17:47:49.552,-10.900626440344832
2025-03-23 17:47:49.561,-9.539974617505473
2025-03-23 17:47:49.561,0.9516572772839738
2025-03-23 17:47:49.561,12.170743223024214
2025-03-23 17:47:49.561,13.911186996507624
2025-03-23 17:47:49.561,4.173671526874782
2025-03-23 17:47:49.569,-8.667902742770163
2025-03-23 17:47:49.569,-13.70712423480495
2025-03-23 17:47:49.570,-7.560429072182325
2025-03-23 17:47:49.570,3.202108863888598
2025-03-23 17:47:49.579,9.209791300323255
2025-03-23 17:47:49.579,7.116575370355166
2025-03-23 17:47:49.579,1.082241955933665
2025-03-23 17:47:49.579,-3.190196100489021
2025-03-23 17:47:49.580,-3.933789109225192
2025-03-23 17:47:49.589,-2.8073313642328297
2025-03-23 17:47:49.589,-1.2709544496871736
2025-03-23 17:47:49.589,0.5922456331049091
2025-03-23 17:47:49.589,2.4271262970644374
2025-03-23 17:47:49.590,2.8959978743359063
2025-03-23 17:47:49.599,1.2685926362088518
2025-03-23 17:47:49.599,-1.2767876428639011
2025-03-23 17:47:49.599,-2.6207828407234977
2025-03-23 17:47:49.599,-1.635581912915965
2025-03-23 17:47:49.600,0.9316645121222713
2025-03-23 17:47:49.609,2.852463575899482
2025-03-23 17:47:49.609,1.7620195978869935
2025-03-23 17:47:49.609,-2.4593990434118007
2025-03-23 17:47:49.609,-5.979867911861941
2025-03-23 17:47:49.609,-3.552942162147088
2025-03-23 17:47:49.617,5.012470443478319
2025-03-23 17:47:49.617,11.838923674085242
2025-03-23 17:47:49.618,7.826968327412204
2025-03-23 17:47:49.618,-6.06844208657663
2025-03-23 17:47:49.627,-16.95653506940515
2025-03-23 17:47:49.627,-12.596179799992607
2025-03-23 17:47:49.627,4.360690820732814
2025-03-23 17:47:49.627,17.65843719551645
2025-03-23 17:47:49.627,14.367156146429311
2025-03-23 17:47:49.637,-1.3713154238130978
2025-03-23 17:47:49.637,-13.483597716760109
2025-03-23 17:47:49.637,-11.56801584525992
2025-03-23 17:47:49.637,-0.5712718146632674
2025-03-23 17:47:49.638,7.090551474860096
2025-03-23 17:47:49.645,5.74528834309971
2025-03-23 17:47:49.645,0.44060254093057305
2025-03-23 17:47:49.646,-1.5728417463979767
2025-03-23 17:47:49.646,0.3307183136494173
2025-03-23 17:47:49.646,1.2044660113874248
2025-03-23 17:47:49.655,-1.643505982707898
2025-03-23 17:47:49.655,-4.737673085360224
2025-03-23 17:47:49.655,-3.138687644929216
2025-03-23 17:47:49.656,2.6546819758912434
2025-03-23 17:47:49.665,6.659647462426488
2025-03-23 17:47:49.665,4.413714179473916
2025-03-23 17:47:49.665,-1.8095800750356577
2025-03-23 17:47:49.666,-5.884623982971838
2025-03-23 17:47:49.666,-4.667706940148624
2025-03-23 17:47:49.675,-0.40888928301585165
2025-03-23 17:47:49.675,2.9241961662116265
2025-03-23 17:47:49.675,3.74815640389396
2025-03-23 17:47:49.676,2.9004483731980533
2025-03-23 17:47:49.676,1.181741211824525
2025-03-23 17:47:49.685,-1.5220122889274381
2025-03-23 17:47:49.685,-4.560627767043508
2025-03-23 17:47:49.685,-5.3658300849990415
2025-03-23 17:47:49.685,-1.6833469994477046
2025-03-23 17:47:49.686,4.75113536876819
2025-03-23 17:47:49.695,8.336342111242304
2025-03-23 17:47:49.695,4.951091224405839
2025-03-23 17:47:49.695,-3.1167559206520785
2025-03-23 17:47:49.695,-8.824407559483413
2025-03-23 17:47:49.695,-7.192906496526218
2025-03-23 17:47:49.705,0.09910729196007145
2025-03-23 17:47:49.705,6.74757267325348
2025-03-23 17:47:49.705,7.626800648347478
2025-03-23 17:47:49.705,2.7127344003954645
2025-03-23 17:47:49.705,-3.5617378824797084
2025-03-23 17:47:49.715,-6.228461148246283
2025-03-23 17:47:49.715,-3.7346267956460286
2025-03-23 17:47:49.715,1.1289315875603692
2025-03-23 17:47:49.715,4.020649261286387
2025-03-23 17:47:49.716,2.929163260272292
2025-03-23 17:47:49.725,-0.4572970093046237
2025-03-23 17:47:49.725,-2.748763540248183
2025-03-23 17:47:49.725,-1.905630116723961
2025-03-23 17:47:49.725,1.2134342126409132
2025-03-23 17:47:49.726,3.584621925976567
2025-03-23 17:47:49.733,2.4397853786123522
2025-03-23 17:47:49.734,-2.028938869248732
2025-03-23 17:47:49.734,-5.949588662680233
2025-03-23 17:47:49.734,-4.7651678144094145
2025-03-23 17:47:49.734,1.782562772542998
2025-03-23 17:47:49.743,7.988540216230527
2025-03-23 17:47:49.743,7.211141618606068
2025-03-23 17:47:49.743,-0.6811330294684277
2025-03-23 17:47:49.744,-8.17985710103419
2025-03-23 17:47:49.753,-7.8043739380547335
2025-03-23 17:47:49.753,-0.26837897204786487
2025-03-23 17:47:49.754,6.465193122616924
2025-03-23 17:47:49.754,6.093130284031248
2025-03-23 17:47:49.754,0.34033721096267955
2025-03-23 17:47:49.754,-4.040187563285557
2025-03-23 17:47:49.763,-3.1465271604720226
2025-03-23 17:47:49.763,0.5836821975287947
2025-03-23 17:47:49.764,2.2704412130860008
2025-03-23 17:47:49.764,0.3962983497209635
2025-03-23 17:47:49.773,-2.070841852221148
2025-03-23 17:47:49.773,-1.7574652227644934
2025-03-23 17:47:49.774,1.0619690508743538
2025-03-23 17:47:49.774,3.073087296561992
2025-03-23 17:47:49.774,2.0430295078488414
2025-03-23 17:47:49.783,-0.7551420405251738
2025-03-23 17:47:49.783,-2.4771632979151788
2025-03-23 17:47:49.783,-2.03112073559253
2025-03-23 17:47:49.784,-0.6260377547310092
2025-03-23 17:47:49.784,0.3571975614701485
2025-03-23 17:47:49.793,0.8492713365836109
2025-03-23 17:47:49.793,1.3873766635853368
2025-03-23 17:47:49.793,1.8619548777245445
2025-03-23 17:47:49.794,1.4822822063842893
2025-03-23 17:47:49.794,-0.25677818302035743
2025-03-23 17:47:49.803,-2.730032322022627
2025-03-23 17:47:49.803,-4.137977139495049
2025-03-23 17:47:49.803,-2.6005812792932197
2025-03-23 17:47:49.804,1.8367424443616387
2025-03-23 17:47:49.804,6.056053619254661
2025-03-23 17:47:49.813,5.839979122824341
2025-03-23 17:47:49.813,0.22438445852729108
2025-03-23 17:47:49.813,-6.381630013020753
2025-03-23 17:47:49.813,-7.787214859932755
2025-03-23 17:47:49.813,-2.3610422902652886
2025-03-23 17:47:49.823,4.9092218620596695
2025-03-23 17:47:49.823,7.389147669082055
2025-03-23 17:47:49.823,3.468079058455343
2025-03-23 17:47:49.823,-2.370004873441604
2025-03-23 17:47:49.824,-4.778162986200992
2025-03-23 17:47:49.833,-2.8267015014635954
2025-03-23 17:47:49.833,0.15706431887110564
2025-03-23 17:47:49.833,1.059651026316989
2025-03-23 17:47:49.833,0.28127531579551757
2025-03-23 17:47:49.834,0.41999810166554913
2025-03-23 17:47:49.843,2.300742269544331
2025-03-23 17:47:49.843,3.3765300629888273
2025-03-23 17:47:49.843,0.8759986504326416
2025-03-23 17:47:49.843,-3.9454938221498934
2025-03-23 17:47:49.843,-6.229336205924948
2025-03-23 17:47:49.853,-2.903760728624041
2025-03-23 17:47:49.853,3.3355868631829777
2025-03-23 17:47:49.853,6.588389963995448
2025-03-23 17:47:49.853,4.032942888076681
2025-03-23 17:47:49.854,-1.3515815674663092
2025-03-23 17:47:49.861,-4.443808921668833
2025-03-23 17:47:49.861,-3.3668837786511343
2025-03-23 17:47:49.862,-0.5044157262614687
2025-03-23 17:47:49.862,1.1840804033399355
2025-03-23 17:47:49.862,1.3809558552110885
2025-03-23 17:47:49.873,1.4539733284610197
2025-03-23 17:47:49.873,1.5837852949775215
2025-03-23 17:47:49.873,0.5157440671203882
2025-03-23 17:47:49.873,-1.8074729108748107
2025-03-23 17:47:49.874,-3.0500803906293585
2025-03-23 17:47:49.881,-1.2013896857917334
2025-03-23 17:47:49.882,2.216531199168146
2025-03-23 17:47:49.882,3.329380197448448
2025-03-23 17:47:49.882,0.6536538264934979
2025-03-23 17:47:49.882,-2.6950007493189267
2025-03-23 17:47:49.891,-2.639397321821882
2025-03-23 17:47:49.891,0.6551101338339442
2025-03-23 17:47:49.892,2.754641343517242
2025-03-23 17:47:49.892,0.6686655391760474
2025-03-23 17:47:49.892,-2.7369257106397784
2025-03-23 17:47:49.901,-2.0385311246574025
2025-03-23 17:47:49.901,2.945962137297646
2025-03-23 17:47:49.902,5.464683586156397
2025-03-23 17:47:49.902,0.3950300772306966
2025-03-23 17:47:49.911,-7.403261928574693
2025-03-23 17:47:49.911,-7.671432124006588
2025-03-23 17:47:49.911,1.7776885654356134
2025-03-23 17:47:49.911,10.635235158626317
2025-03-23 17:47:49.912,8.124735920094286
2025-03-23 17:47:49.921,-3.384554987729861
2025-03-23 17:47:49.921,-10.971718433700106
2025-03-23 17:47:49.921,-6.682224820451293
2025-03-23 17:47:49.921,3.6800014355746153
2025-03-23 17:47:49.922,8.523587490874219
2025-03-23 17:47:49.931,4.008839412557771
2025-03-23 17:47:49.931,-3.1541960639344206
2025-03-23 17:47:49.931,-4.983317284781912
2025-03-23 17:47:49.931,-0.9880070924706468
2025-03-23 17:47:49.932,3.021342092982596
2025-03-23 17:47:49.939,2.512844526947545
2025-03-23 17:47:49.939,-1.3235491964287769
2025-03-23 17:47:49.940,-3.9563625489473844
2025-03-23 17:47:49.940,-2.502271455647657
2025-03-23 17:47:49.940,1.88730935953396
2025-03-23 17:47:49.949,5.348824046816371
2025-03-23 17:47:49.949,4.527108505646466
2025-03-23 17:47:49.950,-0.5054540346388183
2025-03-23 17:47:49.950,-5.776834382917831
2025-03-23 17:47:49.959,-6.523736422432071
2025-03-23 17:47:49.959,-1.7425000894689315
2025-03-23 17:47:49.959,4.447938463047531
2025-03-23 17:47:49.960,6.633538465790799
2025-03-23 17:47:49.960,3.310979963866339
2025-03-23 17:47:49.969,-2.0822949805310746
2025-03-23 17:47:49.969,-4.931488215730777
2025-03-23 17:47:49.970,-3.463045708429279
2025-03-23 17:47:49.970,0.5049830880822023
2025-03-23 17:47:49.970,3.3909028573169806
2025-03-23 17:47:49.979,2.489821159323472
2025-03-23 17:47:49.979,-1.457829848208389
2025-03-23 17:47:49.979,-3.9960710546980374
2025-03-23 17:47:49.980,-1.2491846305194219
2025-03-23 17:47:49.980,4.682568118703035
2025-03-23 17:47:49.989,6.774028250768118
2025-03-23 17:47:49.989,1.1815779260338501
2025-03-23 17:47:49.989,-7.278189898971579
2025-03-23 17:47:49.990,-9.842612795998315
2025-03-23 17:47:49.990,-3.396130138452864
2025-03-23 17:47:49.999,6.316948735772111
2025-03-23 17:47:49.999,10.817937696086604
2025-03-23 17:47:49.999,6.82669741151025
2025-03-23 17:47:49.999,-1.7945929311328324
2025-03-23 17:47:50.000,-8.340291993470073
2025-03-23 17:47:50.009,-8.671630354202081
2025-03-23 17:47:50.009,-3.464261562168219
2025-03-23 17:47:50.009,3.2405968114973556
2025-03-23 17:47:50.009,7.167055064112854
2025-03-23 17:47:50.010,6.3370172320293205
2025-03-23 17:47:50.017,1.8298456302573074
2025-03-23 17:47:50.017,-3.215002983430482
2025-03-23 17:47:50.018,-5.669769526369116
2025-03-23 17:47:50.018,-4.407979376691204
2025-03-23 17:47:50.027,-0.8175234731546488
2025-03-23 17:47:50.027,2.589913766255923
2025-03-23 17:47:50.028,4.054957781126014
2025-03-23 17:47:50.028,3.202360115199389
2025-03-23 17:47:50.028,0.6236432814744555
2025-03-23 17:47:50.028,-2.286916232088955
2025-03-23 17:47:50.037,-3.5174594176728426
2025-03-23 17:47:50.038,-1.9354038150943849
2025-03-23 17:47:50.038,0.9796246192449163
2025-03-23 17:47:50.038,2.1755154968558372
2025-03-23 17:47:50.047,0.6475304169206104
2025-03-23 17:47:50.047,-1.051898916749167
2025-03-23 17:47:50.047,-0.15356489763337458
2025-03-23 17:47:50.048,2.2615210922952325
2025-03-23 17:47:50.048,2.3191121462722677
2025-03-23 17:47:50.057,-1.3462550664746873
2025-03-23 17:47:50.057,-5.023743012676173
2025-03-23 17:47:50.057,-3.948751567652782
2025-03-23 17:47:50.058,1.7054729344086281
2025-03-23 17:47:50.058,6.356132311200088
2025-03-23 17:47:50.067,5.019710254340741
2025-03-23 17:47:50.067,-1.1100825836085813
2025-03-23 17:47:50.067,-5.945699642743716
2025-03-23 17:47:50.068,-5.025448614120924
2025-03-23 17:47:50.068,0.10824025668753945
2025-03-23 17:47:50.077,4.142240151637459
2025-03-23 17:47:50.077,3.8243821477034947
2025-03-23 17:47:50.077,0.7929070477472049
2025-03-23 17:47:50.077,-1.3361424978348748
2025-03-23 17:47:50.078,-1.5044375896594349
2025-03-23 17:47:50.087,-1.4983321445874034
2025-03-23 17:47:50.087,-2.111754910296106
2025-03-23 17:47:50.087,-1.3437297495989164
2025-03-23 17:47:50.087,2.119495327798711
2025-03-23 17:47:50.088,5.300150219135698
2025-03-23 17:47:50.097,3.6636448244063398
2025-03-23 17:47:50.097,-2.393357901495523
2025-03-23 17:47:50.097,-6.615518977780301
2025-03-23 17:47:50.097,-4.200232974186756
2025-03-23 17:47:50.097,1.9021611423976472
2025-03-23 17:47:50.107,4.667585012405851
2025-03-23 17:47:50.107,2.05239612723919
2025-03-23 17:47:50.107,-0.9870850730010186
2025-03-23 17:47:50.107,-0.09402070444516665
2025-03-23 17:47:50.108,2.285709791298173
2025-03-23 17:47:50.115,0.8594847511466196
2025-03-23 17:47:50.116,-4.230614932554945
2025-03-23 17:47:50.116,-6.663913144454063
2025-03-23 17:47:50.116,-2.075666213160254
2025-03-23 17:47:50.116,5.6896830681363415
2025-03-23 17:47:50.125,8.538409609337647
2025-03-23 17:47:50.126,3.4841288658204608
2025-03-23 17:47:50.126,-4.067937013502707
2025-03-23 17:47:50.126,-6.766492916671491
2025-03-23 17:47:50.137,-3.332679833343753
2025-03-23 17:47:50.137,1.197176553247233
2025-03-23 17:47:50.137,2.3084071214054767
2025-03-23 17:47:50.137,0.9385126207969996
2025-03-23 17:47:50.138,0.8278157663534604
2025-03-23 17:47:50.138,2.613164874292235
2025-03-23 17:47:50.145,2.827402674501311
2025-03-23 17:47:50.145,-0.9364646266019382
2025-03-23 17:47:50.146,-5.805890393755144
2025-03-23 17:47:50.146,-6.300194004674088
2025-03-23 17:47:50.155,-0.8357288624835391
2025-03-23 17:47:50.155,5.966973553453071
2025-03-23 17:47:50.156,7.963953312267395
2025-03-23 17:47:50.156,3.5995346919859728
2025-03-23 17:47:50.156,-3.161925868507385
2025-03-23 17:47:50.165,-7.0980507537754205
2025-03-23 17:47:50.165,-5.929157669139657
2025-03-23 17:47:50.166,-1.002493183720806
2025-03-23 17:47:50.166,4.3601503049019215
2025-03-23 17:47:50.166,6.697811843236784
2025-03-23 17:47:50.175,4.241569536684162
2025-03-23 17:47:50.175,-1.422315044068151
2025-03-23 17:47:50.176,-5.831767003875877
2025-03-23 17:47:50.176,-5.264615331894389
2025-03-23 17:47:50.176,-0.4323821922007303
2025-03-23 17:47:50.185,4.077217196939295
2025-03-23 17:47:50.185,4.419967043376918
2025-03-23 17:47:50.185,1.0901479111403576
2025-03-23 17:47:50.185,-2.2781653882255553
2025-03-23 17:47:50.186,-2.9138068653142577
2025-03-23 17:47:50.195,-1.087791615285056
2025-03-23 17:47:50.195,1.0549702853627965
2025-03-23 17:47:50.195,1.760093861283762
2025-03-23 17:47:50.195,0.7982158311906502
2025-03-23 17:47:50.196,-0.7023227569407626
2025-03-23 17:47:50.205,-1.2138369663382556
2025-03-23 17:47:50.205,-0.22171555003187182
2025-03-23 17:47:50.205,1.0350256524284511
2025-03-23 17:47:50.205,0.8473957965078297
2025-03-23 17:47:50.205,-0.6788425400807632
2025-03-23 17:47:50.215,-1.4774966749769225
2025-03-23 17:47:50.215,-0.24087460126741483
2025-03-23 17:47:50.215,1.6218351953731738
2025-03-23 17:47:50.215,1.7390041726508612
2025-03-23 17:47:50.216,-0.1668005630432746
2025-03-23 17:47:50.225,-2.117400970690811
2025-03-23 17:47:50.225,-2.3205965664024224
2025-03-23 17:47:50.225,-0.6407251643533471
2025-03-23 17:47:50.225,1.8802363050209183
2025-03-23 17:47:50.226,3.592234413628423
2025-03-23 17:47:50.235,2.705788249655505
2025-03-23 17:47:50.235,-1.0067215451422684
2025-03-23 17:47:50.235,-4.720643621142832
2025-03-23 17:47:50.235,-4.549614476434157
2025-03-23 17:47:50.236,-0.02650445277045524
2025-03-23 17:47:50.243,4.577027510547615
2025-03-23 17:47:50.243,4.663402455666091
2025-03-23 17:47:50.244,0.48908621690582843
2025-03-23 17:47:50.244,-3.2599418452367
2025-03-23 17:47:50.244,-2.9485347520179976
2025-03-23 17:47:50.253,0.1304173109851861
2025-03-23 17:47:50.254,1.8694377000127633
2025-03-23 17:47:50.254,0.5022051980651366
2025-03-23 17:47:50.254,-1.5520165699608102
2025-03-23 17:47:50.254,-1.1762711759782407
2025-03-23 17:47:50.263,1.294835915976744
2025-03-23 17:47:50.264,2.6473082626392603
2025-03-23 17:47:50.264,1.11731468369484
2025-03-23 17:47:50.264,-1.4682416092094859
2025-03-23 17:47:50.273,-2.3542434547711673
2025-03-23 17:47:50.273,-1.21515358566978
2025-03-23 17:47:50.274,0.1962995890293972
2025-03-23 17:47:50.274,0.714401656772134
2025-03-23 17:47:50.274,0.7379006088852559
2025-03-23 17:47:50.274,1.005075383766041
2025-03-23 17:47:50.283,1.4834310555493297
2025-03-23 17:47:50.283,1.326642653492339
2025-03-23 17:47:50.284,-0.4779731340705399
2025-03-23 17:47:50.284,-3.643040457421846
2025-03-23 17:47:50.293,-5.348252079517455
2025-03-23 17:47:50.293,-2.1726244752500214
2025-03-23 17:47:50.293,5.072299357371152
2025-03-23 17:47:50.293,9.809700084599974
2025-03-23 17:47:50.294,5.8465271911032595
2025-03-23 17:47:50.303,-4.682663789615527
2025-03-23 17:47:50.303,-11.988395745195257
2025-03-23 17:47:50.303,-8.655397434101637
2025-03-23 17:47:50.303,2.2470122705049986
2025-03-23 17:47:50.303,10.424492449796999
2025-03-23 17:47:50.311,9.033736929180757
2025-03-23 17:47:50.312,0.799642021274529
2025-03-23 17:47:50.312,-6.140490459301961
2025-03-23 17:47:50.312,-6.743177691763956
2025-03-23 17:47:50.312,-2.6366457687016225
2025-03-23 17:47:50.321,1.456431959480224
2025-03-23 17:47:50.321,2.9149746697157264
2025-03-23 17:47:50.322,2.4668724212554523
2025-03-23 17:47:50.322,1.6924105413186563
2025-03-23 17:47:50.322,0.8306947310298136
2025-03-23 17:47:50.331,-0.7080730194645445
2025-03-23 17:47:50.332,-2.562077760156546
2025-03-23 17:47:50.332,-3.125035771011009
2025-03-23 17:47:50.332,-1.3423263583726293
2025-03-23 17:47:50.341,1.6050796284182323
2025-03-23 17:47:50.341,3.1358907180243056
2025-03-23 17:47:50.341,2.099972428470999
2025-03-23 17:47:50.342,0.1419548688681876
2025-03-23 17:47:50.342,-0.602592895421852
2025-03-23 17:47:50.351,-0.6003022011674426
2025-03-23 17:47:50.351,-1.92069424751671
2025-03-23 17:47:50.351,-3.9355902662204416
2025-03-23 17:47:50.352,-2.678009749237964
2025-03-23 17:47:50.352,3.340538773302861
2025-03-23 17:47:50.359,8.641354393799602
2025-03-23 17:47:50.359,5.937523506789248
2025-03-23 17:47:50.360,-3.9723559808425337
2025-03-23 17:47:50.360,-11.130527056031625
2025-03-23 17:47:50.360,-7.402139877033758
2025-03-23 17:47:50.369,3.629969385261642
2025-03-23 17:47:50.370,10.481262103810577
2025-03-23 17:47:50.370,6.690838188607848
2025-03-23 17:47:50.370,-2.695362033701066
2025-03-23 17:47:50.370,-7.816284500043561
2025-03-23 17:47:50.379,-4.793787668049276
2025-03-23 17:47:50.380,1.6064679133029063
2025-03-23 17:47:50.380,4.693163585248114
2025-03-23 17:47:50.380,2.89785172357118
2025-03-23 17:47:50.380,-0.31710023595720227
2025-03-23 17:47:50.389,-1.7309488476855837
2025-03-23 17:47:50.390,-1.5386858381305102
2025-03-23 17:47:50.390,-1.367895169044437
2025-03-23 17:47:50.390,-1.160203208966576
2025-03-23 17:47:50.399,0.460818033952569
2025-03-23 17:47:50.399,3.259408119695939
2025-03-23 17:47:50.400,4.348452163717221
2025-03-23 17:47:50.400,1.044488757778517
2025-03-23 17:47:50.400,-5.121857999484714
2025-03-23 17:47:50.409,-8.155153507934141
2025-03-23 17:47:50.409,-3.19475484846791
2025-03-23 17:47:50.409,6.799377475229799
2025-03-23 17:47:50.410,11.884519977301082
2025-03-23 17:47:50.410,5.275521741949696
2025-03-23 17:47:50.419,-7.721842090254703
2025-03-23 17:47:50.419,-13.841507589125728
2025-03-23 17:47:50.419,-6.21960650632432
2025-03-23 17:47:50.420,7.378273173750643
2025-03-23 17:47:50.420,12.83369038334127
2025-03-23 17:47:50.427,5.286506633687163
2025-03-23 17:47:50.427,-6.0759874128985585
2025-03-23 17:47:50.428,-9.205525716215568
2025-03-23 17:47:50.428,-2.582036417199796
2025-03-23 17:47:50.428,4.6509127832979855
2025-03-23 17:47:50.437,4.546139730201385
2025-03-23 17:47:50.438,-0.8699598709362916
2025-03-23 17:47:50.438,-3.6862674376873867
2025-03-23 17:47:50.438,-0.5683821638471647
2025-03-23 17:47:50.438,3.690182165619731
2025-03-23 17:47:50.447,3.045059045580034
2025-03-23 17:47:50.448,-1.9132007629509986
2025-03-23 17:47:50.448,-4.879597083814753
2025-03-23 17:47:50.448,-1.9685984081993468
2025-03-23 17:47:50.457,3.2841248093936217
2025-03-23 17:47:50.457,4.30334953467274
2025-03-23 17:47:50.457,-0.19451293116783053
2025-03-23 17:47:50.458,-4.440034243779618
2025-03-23 17:47:50.458,-2.843742297285695
2025-03-23 17:47:50.467,2.853411491469906
2025-03-23 17:47:50.467,5.638263183508551
2025-03-23 17:47:50.467,1.8726706008750649
2025-03-23 17:47:50.468,-4.324568668876669
2025-03-23 17:47:50.468,-6.1142731260173315
2025-03-23 17:47:50.477,-1.8536677088239248
2025-03-23 17:47:50.477,3.5583599186588803
2025-03-23 17:47:50.477,4.805347693761663
2025-03-23 17:47:50.478,1.8737522070061132
2025-03-23 17:47:50.478,-1.1057284280820956
2025-03-23 17:47:50.487,-1.4745255135717341
2025-03-23 17:47:50.487,-0.7208329323708107
2025-03-23 17:47:50.487,-1.3730519822756337
2025-03-23 17:47:50.487,-2.8474216631355342
2025-03-23 17:47:50.488,-2.000484314558757
2025-03-23 17:47:50.497,2.2242055070519338
2025-03-23 17:47:50.497,6.231315718995041
2025-03-23 17:47:50.497,5.217154541436525
2025-03-23 17:47:50.497,-1.0022753937759177
2025-03-23 17:47:50.498,-6.931119514386671
2025-03-23 17:47:50.507,-6.924993446699348
2025-03-23 17:47:50.507,-1.1593711344711093
2025-03-23 17:47:50.507,4.791005077574333
2025-03-23 17:47:50.508,5.985989640717446
2025-03-23 17:47:50.508,2.644597302096049
2025-03-23 17:47:50.515,-1.3552059994915169
2025-03-23 17:47:50.516,-3.052231675353519
2025-03-23 17:47:50.516,-2.5280655657848095
2025-03-23 17:47:50.516,-1.3587982101325082
2025-03-23 17:47:50.516,-0.39893215989079905
2025-03-23 17:47:50.525,0.6395125394615598
2025-03-23 17:47:50.526,2.0632016571813208
2025-03-23 17:47:50.526,3.1228446175651987
2025-03-23 17:47:50.526,2.3438981792856093
2025-03-23 17:47:50.526,-0.7158588381451539
2025-03-23 17:47:50.535,-4.155066041637561
2025-03-23 17:47:50.536,-4.905389782955208
2025-03-23 17:47:50.536,-1.7258211616748795
2025-03-23 17:47:50.536,3.145476589741107
2025-03-23 17:47:50.545,5.712125363395947
2025-03-23 17:47:50.545,3.8180951587678162
2025-03-23 17:47:50.545,-0.8678158234726739
2025-03-23 17:47:50.546,-4.446154821263173
2025-03-23 17:47:50.546,-4.357600723507744
2025-03-23 17:47:50.555,-1.3527055289388756
2025-03-23 17:47:50.555,1.8196239975029145
2025-03-23 17:47:50.555,3.1178796827620037
2025-03-23 17:47:50.556,2.45109529339678
2025-03-23 17:47:50.556,0.8647642575293683
2025-03-23 17:47:50.565,-0.7477092845035911
2025-03-23 17:47:50.565,-2.0003038435692173
2025-03-23 17:47:50.565,-2.5442714158652175
2025-03-23 17:47:50.565,-1.8048687145999418
2025-03-23 17:47:50.566,0.41952178294277986
2025-03-23 17:47:50.575,3.0235276880813498
2025-03-23 17:47:50.575,3.7403063545414423
2025-03-23 17:47:50.575,1.1445509467990098
2025-03-23 17:47:50.575,-3.0494403949490736
2025-03-23 17:47:50.576,-4.6271552209365545
2025-03-23 17:47:50.585,-1.2728940965225832
2025-03-23 17:47:50.585,3.7876451890499747
2025-03-23 17:47:50.585,4.471561498010474
2025-03-23 17:47:50.585,-0.7669181959656877
2025-03-23 17:47:50.586,-5.893244185740495
2025-03-23 17:47:50.593,-3.9080677356579367
2025-03-23 17:47:50.593,4.011804884993729
2025-03-23 17:47:50.594,8.783050413886325
2025-03-23 17:47:50.594,3.9567749227017788
2025-03-23 17:47:50.594,-6.114222983778625
2025-03-23 17:47:50.603,-10.804364825819874
2025-03-23 17:47:50.604,-5.082334394705163
2025-03-23 17:47:50.604,5.299747741385253
2025-03-23 17:47:50.604,10.496994277975286
2025-03-23 17:47:50.613,6.535537133515907
2025-03-23 17:47:50.613,-2.037454694963934
2025-03-23 17:47:50.614,-7.746866626563358
2025-03-23 17:47:50.614,-6.893567392734724
2025-03-23 17:47:50.614,-1.4457590643923033
2025-03-23 17:47:50.623,3.8189198663801838
2025-03-23 17:47:50.623,5.358159800831701
2025-03-23 17:47:50.623,3.0415966082782218
2025-03-23 17:47:50.624,-0.5234967331646538
2025-03-23 17:47:50.624,-2.5303825296077918
2025-03-23 17:47:50.633,-2.181807678537019
2025-03-23 17:47:50.633,-0.801542808561641
2025-03-23 17:47:50.633,-0.04871422813782271
2025-03-23 17:47:50.634,-0.17019812177617527
2025-03-23 17:47:50.634,-0.05602490255607803
2025-03-23 17:47:50.643,1.0767462665844778
2025-03-23 17:47:50.643,2.3914653104684067
2025-03-23 17:47:50.643,2.180231859629943
2025-03-23 17:47:50.644,-0.1451845416779334
2025-03-23 17:47:50.644,-3.1262299496017354
2025-03-23 17:47:50.653,-4.324656464650618
2025-03-23 17:47:50.653,-2.2483527065481916
2025-03-23 17:47:50.653,2.223057767357007
2025-03-23 17:47:50.654,5.7848697700731915
2025-03-23 17:47:50.654,4.8755893999789865
2025-03-23 17:47:50.663,-0.6741892362187013
2025-03-23 17:47:50.663,-6.276957148028481
2025-03-23 17:47:50.663,-6.46120493326403
2025-03-23 17:47:50.664,-0.7414987574300909
2025-03-23 17:47:50.664,5.446433660598438
2025-03-23 17:47:50.673,6.396293994545589
2025-03-23 17:47:50.673,1.9261804831924347
2025-03-23 17:47:50.673,-3.1806568868639644
2025-03-23 17:47:50.673,-4.686276199241455
2025-03-23 17:47:50.674,-2.620213878016762
2025-03-23 17:47:50.683,0.20221496297350058
2025-03-23 17:47:50.683,1.7982535410835965
2025-03-23 17:47:50.683,2.2647050239607056
2025-03-23 17:47:50.684,2.188797685982415
2025-03-23 17:47:50.684,1.2680332679506947
2025-03-23 17:47:50.693,-0.8585930442256187
2025-03-23 17:47:50.693,-3.076406648757372
2025-03-23 17:47:50.693,-3.2606216384360933
2025-03-23 17:47:50.694,-0.7205640906961284
2025-03-23 17:47:50.694,2.4633822133972374
2025-03-23 17:47:50.703,3.3614059246893295
2025-03-23 17:47:50.703,1.402477496857066
2025-03-23 17:47:50.703,-1.0557685038575246
2025-03-23 17:47:50.703,-1.6208648504773033
2025-03-23 17:47:50.704,-0.6316486094935372
2025-03-23 17:47:50.711,-0.26056442944334485
2025-03-23 17:47:50.712,-1.1800098913686738
2025-03-23 17:47:50.712,-1.403241713161325
2025-03-23 17:47:50.712,0.8272432276400044
2025-03-23 17:47:50.712,3.85086837733118
2025-03-23 17:47:50.721,3.811790505598406
2025-03-23 17:47:50.721,-0.5269872940591231
2025-03-23 17:47:50.721,-5.336811394311425
2025-03-23 17:47:50.722,-5.35623487030547
2025-03-23 17:47:50.731,0.06518084176708572
2025-03-23 17:47:50.731,5.614048575015298
2025-03-23 17:47:50.732,5.416119045149144
2025-03-23 17:47:50.732,-0.4943306328393308
2025-03-23 17:47:50.732,-5.8485178582499575
2025-03-23 17:47:50.741,-4.700695348796046
2025-03-23 17:47:50.741,1.9510934877584245
2025-03-23 17:47:50.742,6.868540977821899
2025-03-23 17:47:50.742,4.368443440458174
2025-03-23 17:47:50.742,-3.18686364375719
2025-03-23 17:47:50.751,-7.77796543098322
2025-03-23 17:47:50.751,-4.586298009810253
2025-03-23 17:47:50.752,2.8356148997071258
2025-03-23 17:47:50.752,6.923185824562202
2025-03-23 17:47:50.752,4.454650858778864
2025-03-23 17:47:50.761,-0.8987084429366534
2025-03-23 17:47:50.761,-3.8367139848285237
2025-03-23 17:47:50.761,-3.1590545769062603
2025-03-23 17:47:50.762,-1.3673783842181084
2025-03-23 17:47:50.762,-0.2527860766313507
2025-03-23 17:47:50.771,0.869378241939243
2025-03-23 17:47:50.771,2.5927775506922552
2025-03-23 17:47:50.771,3.3616033833411394
2025-03-23 17:47:50.772,1.4514766984136414
2025-03-23 17:47:50.772,-2.0473457372808315
2025-03-23 17:47:50.781,-3.9750200437085828
2025-03-23 17:47:50.781,-2.770173850655784
2025-03-23 17:47:50.781,-0.026626888772817242
2025-03-23 17:47:50.782,1.8834121969878135
2025-03-23 17:47:50.782,2.431945475243193
2025-03-23 17:47:50.791,2.3666883360970092
2025-03-23 17:47:50.791,1.6152891355083148
2025-03-23 17:47:50.791,-0.5818890080977238
2025-03-23 17:47:50.791,-3.4525075177735265
2025-03-23 17:47:50.791,-4.318933495961734
2025-03-23 17:47:50.801,-1.6078404286483943
2025-03-23 17:47:50.801,2.605082517643966
2025-03-23 17:47:50.801,4.494181425562232
2025-03-23 17:47:50.801,2.763709223045196
2025-03-23 17:47:50.802,-0.306719268593643
2025-03-23 17:47:50.809,-2.1370423458840833
2025-03-23 17:47:50.810,-2.509638470805158
2025-03-23 17:47:50.810,-2.271928306629534
2025-03-23 17:47:50.810,-1.1330799877432165
2025-03-23 17:47:50.810,1.447732466744287
2025-03-23 17:47:50.819,3.9620689706365884
2025-03-23 17:47:50.820,3.596112756311971
2025-03-23 17:47:50.820,-0.19170687715805432
2025-03-23 17:47:50.820,-4.199541039717407
2025-03-23 17:47:50.829,-4.5878709874982055
2025-03-23 17:47:50.829,-0.9848602325251234
2025-03-23 17:47:50.830,3.206433981568932
2025-03-23 17:47:50.830,4.3370501044226
2025-03-23 17:47:50.830,1.8044166989791002
2025-03-23 17:47:50.839,-1.868935739375981
2025-03-23 17:47:50.839,-3.5156150202570466
2025-03-23 17:47:50.840,-1.9517498633825154
2025-03-23 17:47:50.840,1.146782863910109
2025-03-23 17:47:50.840,2.7871787282711566
2025-03-23 17:47:50.849,1.5169770337453503
2025-03-23 17:47:50.849,-1.1089993488806018
2025-03-23 17:47:50.850,-2.2345905816775145
2025-03-23 17:47:50.850,-0.8814664470539599
2025-03-23 17:47:50.850,1.0854180302176997
2025-03-23 17:47:50.859,1.3804080937508432
2025-03-23 17:47:50.859,0.07304598893568563
2025-03-23 17:47:50.859,-0.7746499601579697
2025-03-23 17:47:50.860,-0.015714775017816818
2025-03-23 17:47:50.860,1.0382873820923697
2025-03-23 17:47:50.869,0.4811314089693925
2025-03-23 17:47:50.869,-1.3991668541601134
2025-03-23 17:47:50.869,-2.155106103919188
2025-03-23 17:47:50.870,-0.264957602983447
2025-03-23 17:47:50.870,2.4852290297518143
2025-03-23 17:47:50.879,2.6828585093540185
2025-03-23 17:47:50.879,-0.4214863466915689
2025-03-23 17:47:50.879,-3.337036694456569
2025-03-23 17:47:50.880,-2.2400284308735023
2025-03-23 17:47:50.880,1.9159719494635148
2025-03-23 17:47:50.887,3.952498209963073
2025-03-23 17:47:50.888,0.8877419705731486
2025-03-23 17:47:50.888,-3.765676046629349
2025-03-23 17:47:50.888,-4.015334656578407
2025-03-23 17:47:50.888,0.8835245192908238
2025-03-23 17:47:50.897,5.119667134880112
2025-03-23 17:47:50.898,3.4854724185204558
2025-03-23 17:47:50.898,-2.1848890565535757
2025-03-23 17:47:50.898,-5.432508096713864
2025-03-23 17:47:50.907,-2.9009071502007413
2025-03-23 17:47:50.907,2.3242288590333975
2025-03-23 17:47:50.908,4.855812212715748
2025-03-23 17:47:50.908,2.7113358674396664
2025-03-23 17:47:50.908,-1.5384005589662109
2025-03-23 17:47:50.917,-3.978243934066658
2025-03-23 17:47:50.917,-2.8134400993086306
2025-03-23 17:47:50.918,0.6397588470355215
2025-03-23 17:47:50.918,3.336036112019528
2025-03-23 17:47:50.918,2.934872575132311
2025-03-23 17:47:50.927,-0.21733786441031103
2025-03-23 17:47:50.927,-3.145853244608263
2025-03-23 17:47:50.928,-2.8896648513918692
2025-03-23 17:47:50.928,0.35930385490984923
2025-03-23 17:47:50.928,3.133684920356577
2025-03-23 17:47:50.937,2.392367580657371
2025-03-23 17:47:50.937,-0.848091230377615
2025-03-23 17:47:50.937,-2.5844026987957487
2025-03-23 17:47:50.938,-0.8563966066963338
2025-03-23 17:47:50.938,1.5497702745662927
2025-03-23 17:47:50.947,0.8357633795462676
2025-03-23 17:47:50.947,-2.1440152234770844
2025-03-23 17:47:50.947,-2.4635314149888647
2025-03-23 17:47:50.948,1.8486893458749167
2025-03-23 17:47:50.948,5.884415958872258
2025-03-23 17:47:50.957,3.5118440566927
2025-03-23 17:47:50.957,-4.069559294043499
2025-03-23 17:47:50.957,-8.583118024924163
2025-03-23 17:47:50.957,-4.370446586154635
2025-03-23 17:47:50.958,4.492127681439017
2025-03-23 17:47:50.967,8.734453182431698
2025-03-23 17:47:50.967,4.450863558196406
2025-03-23 17:47:50.967,-3.11231607391906
2025-03-23 17:47:50.967,-6.26771132737367
2025-03-23 17:47:50.968,-3.2227992862952757
2025-03-23 17:47:50.977,1.3351777529980373
2025-03-23 17:47:50.977,2.572591348971226
2025-03-23 17:47:50.977,0.6161963963323926
2025-03-23 17:47:50.978,-0.7998957176697108
2025-03-23 17:47:50.978,0.4897299408161348
2025-03-23 17:47:50.987,2.498651472327148
2025-03-23 17:47:50.987,1.8913273703072246
2025-03-23 17:47:50.987,-1.5344978836360326
2025-03-23 17:47:50.988,-4.314685218694448
2025-03-23 17:47:50.988,-3.4005491058621278
2025-03-23 17:47:50.997,0.2925442616028805
2025-03-23 17:47:50.997,3.2461454280942452
2025-03-23 17:47:50.998,3.5230310346533265
2025-03-23 17:47:50.998,2.1861837376084456
2025-03-23 17:47:50.998,0.6583955070911195
2025-03-23 17:47:51.007,-1.375297960715872
2025-03-23 17:47:51.007,-4.163939249105584
2025-03-23 17:47:51.007,-5.424410686755017
2025-03-23 17:47:51.008,-2.204377665750297
2025-03-23 17:47:51.008,4.377327538633541
2025-03-23 17:47:51.017,8.419757860092282
2025-03-23 17:47:51.017,5.182736477469341
2025-03-23 17:47:51.017,-2.8859307684957485
2025-03-23 17:47:51.017,-8.044026181171864
2025-03-23 17:47:51.018,-5.645776935654029
2025-03-23 17:47:51.027,0.8958410983331573
2025-03-23 17:47:51.027,4.575807128299409
2025-03-23 17:47:51.027,2.990985708579706
2025-03-23 17:47:51.028,0.14591718996928216
2025-03-23 17:47:51.028,0.1868803649709252
2025-03-23 17:47:51.035,1.7044897805623735
2025-03-23 17:47:51.036,0.2852748862657042
2025-03-23 17:47:51.036,-4.190460598140912
2025-03-23 17:47:51.036,-6.022580003117484
2025-03-23 17:47:51.036,-1.157807409351496
2025-03-23 17:47:51.045,6.113902791705017
2025-03-23 17:47:51.045,7.397970636296012
2025-03-23 17:47:51.046,0.9088871920416668
2025-03-23 17:47:51.046,-5.720072984183786
2025-03-23 17:47:51.055,-5.005468037132984
2025-03-23 17:47:51.055,0.9528385714629013
2025-03-23 17:47:51.056,3.827228200753111
2025-03-23 17:47:51.056,0.42861268638031724
2025-03-23 17:47:51.056,-3.479058631706975
2025-03-23 17:47:51.065,-1.702164147167206
2025-03-23 17:47:51.065,3.681290468183827
2025-03-23 17:47:51.065,5.248564662619602
2025-03-23 17:47:51.066,0.3200948325262774
2025-03-23 17:47:51.066,-5.495940457467532
2025-03-23 17:47:51.075,-5.5015338605269966
2025-03-23 17:47:51.076,0.014979361477182263
2025-03-23 17:47:51.076,4.784852837685221
2025-03-23 17:47:51.076,4.328331634259962
2025-03-23 17:47:51.076,0.3905069573463347
2025-03-23 17:47:51.085,-2.444994306627584
2025-03-23 17:47:51.085,-2.349201302018172
2025-03-23 17:47:51.085,-0.9988263803393604
2025-03-23 17:47:51.086,-0.07582418523241044
2025-03-23 17:47:51.086,0.5991166920674373
2025-03-23 17:47:51.095,1.3083007679415217
2025-03-23 17:47:51.095,1.1570886187389133
2025-03-23 17:47:51.096,-0.10809101236097027
2025-03-23 17:47:51.096,-0.7696274994379978
2025-03-23 17:47:51.096,0.30765674443288943
2025-03-23 17:47:51.105,1.0362187421697624
2025-03-23 17:47:51.105,-1.1149494870237693
2025-03-23 17:47:51.106,-4.0764390623534625
2025-03-23 17:47:51.106,-2.5942973467578376
2025-03-23 17:47:51.106,3.909981313043462
2025-03-23 17:47:51.115,8.323279246047903
2025-03-23 17:47:51.115,3.99981450556479
2025-03-23 17:47:51.116,-5.779942912531599
2025-03-23 17:47:51.116,-10.501768515833993
2025-03-23 17:47:51.116,-4.845705297776989
2025-03-23 17:47:51.125,5.002443985167027
2025-03-23 17:47:51.125,9.016068659529983
2025-03-23 17:47:51.125,4.675982476829328
2025-03-23 17:47:51.126,-1.8857827859057568
2025-03-23 17:47:51.126,-4.495820435807906
2025-03-23 17:47:51.135,-3.197476008018469
2025-03-23 17:47:51.135,-1.5056271498053944
2025-03-23 17:47:51.136,-0.6506310908917177
2025-03-23 17:47:51.136,0.8896676999390701
2025-03-23 17:47:51.136,3.319694012360155
2025-03-23 17:47:51.145,4.021683509060379
2025-03-23 17:47:51.145,1.1354382654887423
2025-03-23 17:47:51.145,-3.1255614890550607
2025-03-23 17:47:51.146,-4.548499915297797
2025-03-23 17:47:51.146,-1.915474094484626
2025-03-23 17:47:51.155,1.6452985066875376
2025-03-23 17:47:51.155,2.6179648007206375
2025-03-23 17:47:51.155,1.1208245931061984
2025-03-23 17:47:51.156,-0.007334943704721611
2025-03-23 17:47:51.156,0.5743212743416619
2025-03-23 17:47:51.165,0.9722045239086518
2025-03-23 17:47:51.165,-0.9080461638695568
2025-03-23 17:47:51.165,-3.725691680998253
2025-03-23 17:47:51.166,-3.656009616358141
2025-03-23 17:47:51.166,0.7592722389125127
2025-03-23 17:47:51.175,5.8716561321003615
2025-03-23 17:47:51.175,6.173224413549411
2025-03-23 17:47:51.175,0.3320243959892066
2025-03-23 17:47:51.175,-6.677972364019696
2025-03-23 17:47:51.176,-8.029949138723657
2025-03-23 17:47:51.185,-1.864682740408636
2025-03-23 17:47:51.185,6.368739529202187
2025-03-23 17:47:51.185,8.813355904512411
2025-03-23 17:47:51.186,2.9983118618843925
2025-03-23 17:47:51.186,-5.345746981238459
2025-03-23 17:47:51.195,-7.982295187456622
2025-03-23 17:47:51.195,-2.829904264934986
2025-03-23 17:47:51.196,4.004879132558366
2025-03-23 17:47:51.196,5.370088788755896
2025-03-23 17:47:51.196,1.0478328391083302
2025-03-23 17:47:51.203,-2.8583640519771336
2025-03-23 17:47:51.204,-1.8821497125895208
2025-03-23 17:47:51.204,1.6596067205760365
2025-03-23 17:47:51.204,2.3732307154622543
2025-03-23 17:47:51.204,-0.9606569083344445
2025-03-23 17:47:51.213,-3.9277678431383913
2025-03-23 17:47:51.214,-2.3625338762033463
2025-03-23 17:47:51.214,2.1935476366838738
2025-03-23 17:47:51.214,4.435469974303348
2025-03-23 17:47:51.214,1.9922479275932274
2025-03-23 17:47:51.223,-1.831509220225633
2025-03-23 17:47:51.223,-2.644263870154012
2025-03-23 17:47:51.224,-0.5663214133668912
2025-03-23 17:47:51.224,0.6054490982316647
2025-03-23 17:47:51.233,-0.8236140266899314
2025-03-23 17:47:51.233,-1.9610168038413114
2025-03-23 17:47:51.234,0.34106028307847674
2025-03-23 17:47:51.234,4.376496198175646
2025-03-23 17:47:51.234,4.952670616152656
2025-03-23 17:47:51.243,-0.0986458065277229
2025-03-23 17:47:51.243,-6.404989200346736
2025-03-23 17:47:51.243,-7.220022811444889
2025-03-23 17:47:51.244,-0.9267885695954421
2025-03-23 17:47:51.244,6.550561437902852
2025-03-23 17:47:51.253,7.611009733459172
2025-03-23 17:47:51.253,1.1908209820692068
2025-03-23 17:47:51.254,-5.813119944052291
2025-03-23 17:47:51.254,-6.030000752992927
2025-03-23 17:47:51.254,0.14901304818386374
2025-03-23 17:47:51.263,5.2099981267958535
2025-03-23 17:47:51.263,3.4841311931980523
2025-03-23 17:47:51.264,-2.2773454302961835
2025-03-23 17:47:51.264,-4.702798593595039
2025-03-23 17:47:51.264,-1.0409221314057562
2025-03-23 17:47:51.273,3.8247561030256314
2025-03-23 17:47:51.273,3.923328618798295
2025-03-23 17:47:51.274,-0.5840497462366114
2025-03-23 17:47:51.274,-4.319854218540609
2025-03-23 17:47:51.274,-3.390330164381108
2025-03-23 17:47:51.283,0.8655169215643941
2025-03-23 17:47:51.283,4.2755684470414845
2025-03-23 17:47:51.283,3.9929193105417418
2025-03-23 17:47:51.284,0.23611009709388422
2025-03-23 17:47:51.284,-4.197232636881621
2025-03-23 17:47:51.293,-5.56102744333955
2025-03-23 17:47:51.293,-2.031979992174151
2025-03-23 17:47:51.294,3.8416970091019285
2025-03-23 17:47:51.294,6.668753703438119
2025-03-23 17:47:51.294,3.5561821202681685
2025-03-23 17:47:51.301,-2.5570601480202053
2025-03-23 17:47:51.302,-5.942946641526969
2025-03-23 17:47:51.302,-4.073313377367723
2025-03-23 17:47:51.302,0.4049307489040759
2025-03-23 17:47:51.302,3.3136139541156555
2025-03-23 17:47:51.313,3.203580398592959
2025-03-23 17:47:51.313,1.581568914834956
2025-03-23 17:47:51.313,0.08420578747498123
2025-03-23 17:47:51.314,-1.167132847370023
2025-03-23 17:47:51.314,-2.390798152316973
2025-03-23 17:47:51.323,-2.7232877762829286
2025-03-23 17:47:51.323,-1.1128647870290662
2025-03-23 17:47:51.324,1.7441400176897839
2025-03-23 17:47:51.324,3.500218368207352
2025-03-23 17:47:51.324,2.5435187826653505
2025-03-23 17:47:51.331,-0.2480538484427046
2025-03-23 17:47:51.332,-2.4577666848152915
2025-03-23 17:47:51.332,-2.5248686476868847
2025-03-23 17:47:51.332,-0.927857000975695
2025-03-23 17:47:51.332,0.7308416875827787
2025-03-23 17:47:51.341,1.3491464588309898
2025-03-23 17:47:51.342,1.0064638966955504
2025-03-23 17:47:51.342,0.41464721885678935
2025-03-23 17:47:51.342,-0.001128982139771556
2025-03-23 17:47:51.351,-0.3690547256283048
2025-03-23 17:47:51.351,-0.7114218421827774
2025-03-23 17:47:51.352,-0.4524281700436128
2025-03-23 17:47:51.352,0.6219623760960251
2025-03-23 17:47:51.352,1.1170677497599095
2025-03-23 17:47:51.361,-0.6349363138747338
2025-03-23 17:47:51.361,-3.3141624779814514
2025-03-23 17:47:51.362,-2.712329700078987
2025-03-23 17:47:51.362,2.7578188488754174
2025-03-23 17:47:51.362,7.913196687656735
2025-03-23 17:47:51.371,5.485284098334146
2025-03-23 17:47:51.371,-4.312590899288153
2025-03-23 17:47:51.372,-11.835323896982784
2025-03-23 17:47:51.372,-8.142340130469227
2025-03-23 17:47:51.372,4.099707259257617
2025-03-23 17:47:51.379,12.67744758936464
2025-03-23 17:47:51.380,9.132595060823228
2025-03-23 17:47:51.380,-2.270583332686908
2025-03-23 17:47:51.380,-9.994880127977362
2025-03-23 17:47:51.389,-7.8258705145209655
2025-03-23 17:47:51.390,-0.03455173363714714
2025-03-23 17:47:51.390,5.179622215692634
2025-03-23 17:47:51.390,4.67364013133806
2025-03-23 17:47:51.390,1.6331356202447447
2025-03-23 17:47:51.390,-0.2486408156031677
2025-03-23 17:47:51.399,-1.0093588046116175
2025-03-23 17:47:51.400,-2.252679273575275
2025-03-23 17:47:51.400,-3.184355787046646
2025-03-23 17:47:51.400,-1.4377686634043434
2025-03-23 17:47:51.409,2.5192019512833137
2025-03-23 17:47:51.409,4.556175954146843
2025-03-23 17:47:51.410,1.8350363939879797
2025-03-23 17:47:51.410,-3.011268588306326
2025-03-23 17:47:51.410,-4.543525324607968
2025-03-23 17:47:51.419,-0.9123285195912973
2025-03-23 17:47:51.420,3.924677751233102
2025-03-23 17:47:51.420,4.559901792429679
2025-03-23 17:47:51.420,-0.06286743609756484
2025-03-23 17:47:51.420,-5.371615963583038
2025-03-23 17:47:51.429,-5.56622377424338
2025-03-23 17:47:51.429,0.3394386599787327
2025-03-23 17:47:51.430,6.832911348765004
2025-03-23 17:47:51.430,7.0962658950077175
2025-03-23 17:47:51.430,0.3131450574483525
2025-03-23 17:47:51.439,-7.015526937520178
2025-03-23 17:47:51.440,-7.757180618324509
2025-03-23 17:47:51.440,-1.5536045464493302
2025-03-23 17:47:51.440,5.270673602009032
2025-03-23 17:47:51.440,6.6863910034425205
2025-03-23 17:47:51.449,2.61747840195662
2025-03-23 17:47:51.449,-2.3389998056018366
2025-03-23 17:47:51.450,-4.277172532270216
2025-03-23 17:47:51.450,-2.9939526209673666
2025-03-23 17:47:51.450,-0.5389138586237305
2025-03-23 17:47:51.459,1.4817259524035786
2025-03-23 17:47:51.459,2.5942102278694383
2025-03-23 17:47:51.460,2.532182690852089
2025-03-23 17:47:51.460,0.9778658591058159
2025-03-23 17:47:51.460,-1.5114388330039277
2025-03-23 17:47:51.469,-3.180851724372729
2025-03-23 17:47:51.469,-2.534285396227448
2025-03-23 17:47:51.470,-0.02897060575352617
2025-03-23 17:47:51.470,2.2735110572826653
2025-03-23 17:47:51.470,2.77125879413813
2025-03-23 17:47:51.479,1.5603251926272939
2025-03-23 17:47:51.479,-0.28488323400344767
2025-03-23 17:47:51.479,-1.861759799157338
2025-03-23 17:47:51.480,-2.544325043598521
2025-03-23 17:47:51.480,-1.7018576152061002
2025-03-23 17:47:51.489,0.6884809312283272
2025-03-23 17:47:51.489,3.0681814856910545
2025-03-23 17:47:51.489,2.9649020866381677
2025-03-23 17:47:51.490,-0.2901994909123121
2025-03-23 17:47:51.490,-3.7934998614869597
2025-03-23 17:47:51.499,-3.5154929051218344
2025-03-23 17:47:51.499,0.8262789532640392
2025-03-23 17:47:51.499,4.640770107309509
2025-03-23 17:47:51.500,3.5322838258982734
2025-03-23 17:47:51.500,-1.3211568881141158
2025-03-23 17:47:51.509,-4.529236813344926
2025-03-23 17:47:51.509,-2.962288113749912
2025-03-23 17:47:51.509,0.9674365610034049
2025-03-23 17:47:51.510,2.9022792887911457
2025-03-23 17:47:51.510,1.7065870487849126
2025-03-23 17:47:51.519,-0.17364893061849138
2025-03-23 17:47:51.519,-0.5380298397651315
2025-03-23 17:47:51.519,0.049680250236402546
2025-03-23 17:47:51.520,-0.1789436987026746
2025-03-23 17:47:51.520,-1.3272737439402726
2025-03-23 17:47:51.529,-1.6611271235833587
2025-03-23 17:47:51.529,-0.15644653189838859
2025-03-23 17:47:51.529,1.8876326467092586
2025-03-23 17:47:51.530,2.35629152437959
2025-03-23 17:47:51.530,0.8260049524982227
2025-03-23 17:47:51.537,-1.1120795217922617
2025-03-23 17:47:51.538,-1.787124275906691
2025-03-23 17:47:51.538,-1.1364626664029915
2025-03-23 17:47:51.538,-0.35227517104805267
2025-03-23 17:47:51.547,-0.10907045815404433
2025-03-23 17:47:51.547,0.33288770338044027
2025-03-23 17:47:51.548,1.7198422060819922
2025-03-23 17:47:51.548,2.8962273496268103
2025-03-23 17:47:51.548,1.6451892843385434
2025-03-23 17:47:51.557,-2.084454734329289
2025-03-23 17:47:51.557,-5.043981889087357
2025-03-23 17:47:51.558,-3.9371606263130112
2025-03-23 17:47:51.558,0.7001797052329118
2025-03-23 17:47:51.558,4.8739576954794295
2025-03-23 17:47:51.567,5.212197044823863
2025-03-23 17:47:51.567,1.9096539813314144
2025-03-23 17:47:51.568,-2.2003378468280648
2025-03-23 17:47:51.568,-4.469795621824527
2025-03-23 17:47:51.568,-3.997983494803768
2025-03-23 17:47:51.577,-1.372047740098737
2025-03-23 17:47:51.577,1.973710676257414
2025-03-23 17:47:51.578,4.14841927826712
2025-03-23 17:47:51.578,3.6593148682775345
2025-03-23 17:47:51.578,0.7496404334049287
2025-03-23 17:47:51.587,-2.3705559543272945
2025-03-23 17:47:51.587,-3.3999423191789484
2025-03-23 17:47:51.588,-2.139487809038453
2025-03-23 17:47:51.588,-0.2754508378891277
2025-03-23 17:47:51.588,0.9220648723274185
2025-03-23 17:47:51.597,1.7152066358839704
2025-03-23 17:47:51.597,2.4455114373580624
2025-03-23 17:47:51.597,2.1871935271691076
2025-03-23 17:47:51.598,-0.008253871128065969
2025-03-23 17:47:51.598,-3.023964901215181
2025-03-23 17:47:51.607,-4.143237777701537
2025-03-23 17:47:51.608,-1.9705302895615202
2025-03-23 17:47:51.608,1.8012757167978033
2025-03-23 17:47:51.608,4.027253798086739
2025-03-23 17:47:51.608,3.176641243031758
2025-03-23 17:47:51.617,0.3756567675432759
2025-03-23 17:47:51.617,-2.1850392079493295
2025-03-23 17:47:51.617,-3.1239560308158554
2025-03-23 17:47:51.618,-2.273813596957784
2025-03-23 17:47:51.618,-0.21000622440913327
2025-03-23 17:47:51.627,2.032510114624434
2025-03-23 17:47:51.627,3.140494204943662
2025-03-23 17:47:51.627,2.122715534375644
2025-03-23 17:47:51.628,-0.7311373129842139
2025-03-23 17:47:51.628,-3.3488091077075794
2025-03-23 17:47:51.637,-3.066286319834993
2025-03-23 17:47:51.637,0.5069976387472419
2025-03-23 17:47:51.638,3.9335575768793585
2025-03-23 17:47:51.638,2.9690736107075106
2025-03-23 17:47:51.638,-2.019724600583027
2025-03-23 17:47:51.647,-5.285692496027077
2025-03-23 17:47:51.647,-2.1893827671030577
2025-03-23 17:47:51.647,4.39788722913189
2025-03-23 17:47:51.648,6.649549040507663
2025-03-23 17:47:51.648,1.2272580767019752
2025-03-23 17:47:51.657,-6.0729147681575615
2025-03-23 17:47:51.657,-6.879834351819839
2025-03-23 17:47:51.657,-0.26592450686476704
2025-03-23 17:47:51.658,6.182005535288633
2025-03-23 17:47:51.658,5.502340419601066
2025-03-23 17:47:51.666,-0.6971500443526066
2025-03-23 17:47:51.666,-4.940844436660181
2025-03-23 17:47:51.666,-3.0947552728229377
2025-03-23 17:47:51.666,1.5275343227052196
2025-03-23 17:47:51.666,3.244267146755523
2025-03-23 17:47:51.675,0.8172625668924769
2025-03-23 17:47:51.676,-2.132024224721217
2025-03-23 17:47:51.676,-2.1314013167123638
2025-03-23 17:47:51.676,0.47536474776967563
2025-03-23 17:47:51.676,2.6218180932557575
2025-03-23 17:47:51.685,1.9974430558315073
2025-03-23 17:47:51.686,-0.8122272550480645
2025-03-23 17:47:51.686,-3.0082555727892393
2025-03-23 17:47:51.686,-2.2468144640202325
2025-03-23 17:47:51.695,0.9236400735343417
2025-03-23 17:47:51.696,3.2640366665026948
2025-03-23 17:47:51.696,2.084937174075691
2025-03-23 17:47:51.696,-1.5169270253194873
2025-03-23 17:47:51.696,-3.4583289125000594
2025-03-23 17:47:51.705,-1.3615321815301014
2025-03-23 17:47:51.705,2.348954420485067
2025-03-23 17:47:51.706,3.287672046692233
2025-03-23 17:47:51.706,0.5722952366753016
2025-03-23 17:47:51.706,-2.3032711863997224
2025-03-23 17:47:51.715,-2.2367424736412387
2025-03-23 17:47:51.716,-0.2121901028639931
2025-03-23 17:47:51.716,0.8452585849162855
2025-03-23 17:47:51.716,0.3283652409876024
2025-03-23 17:47:51.716,0.16107474999459515
2025-03-23 17:47:51.716,1.2752049680230586
2025-03-23 17:47:51.725,1.9079396242220878
2025-03-23 17:47:51.725,0.1683574208019699
2025-03-23 17:47:51.726,-2.852195749811996
2025-03-23 17:47:51.726,-3.816723718622855
2025-03-23 17:47:51.735,-1.0445067022850505
2025-03-23 17:47:51.735,3.1412922069908564
2025-03-23 17:47:51.736,4.630117714923485
2025-03-23 17:47:51.736,1.9611299518425889
2025-03-23 17:47:51.736,-2.135649123896321
2025-03-23 17:47:51.745,-3.8533976508732946
2025-03-23 17:47:51.745,-2.239389927218055
2025-03-23 17:47:51.746,0.5341127840306384
2025-03-23 17:47:51.746,2.0584056049736925
2025-03-23 17:47:51.746,1.7599921112065169
2025-03-23 17:47:51.755,0.466509204609891
2025-03-23 17:47:51.756,-0.7130018137713949
2025-03-23 17:47:51.756,-0.8385356977753421
2025-03-23 17:47:51.756,0.2617913622497518
2025-03-23 17:47:51.756,1.192030451159135
2025-03-23 17:47:51.765,-0.026227458990047747
2025-03-23 17:47:51.766,-2.986781480598585
2025-03-23 17:47:51.766,-3.9404756047470935
2025-03-23 17:47:51.766,0.11109066573461061
2025-03-23 17:47:51.766,6.377123607874426
2025-03-23 17:47:51.775,7.778221859922272
2025-03-23 17:47:51.775,1.0619793982652035
2025-03-23 17:47:51.776,-8.04132865655084
2025-03-23 17:47:51.776,-10.164402209437965
2025-03-23 17:47:51.776,-2.811315651691749
2025-03-23 17:47:51.785,6.616753420006652
2025-03-23 17:47:51.785,9.164647994629835
2025-03-23 17:47:51.786,3.818770247784383
2025-03-23 17:47:51.786,-2.9255640684641655
2025-03-23 17:47:51.786,-5.345119042172166
2025-03-23 17:47:51.795,-3.59966162246129
2025-03-23 17:47:51.796,-0.9482784581533487
2025-03-23 17:47:51.796,0.9737614565745938
2025-03-23 17:47:51.796,2.49996561032305
2025-03-23 17:47:51.796,3.366984433667388
2025-03-23 17:47:51.805,2.236030973776092
2025-03-23 17:47:51.805,-1.0134588080671736
2025-03-23 17:47:51.805,-3.993925932990995
2025-03-23 17:47:51.806,-3.8426856975015085
2025-03-23 17:47:51.806,-0.3680503970491507
2025-03-23 17:47:51.815,3.408541598617771
2025-03-23 17:47:51.815,4.088212110206263
2025-03-23 17:47:51.816,1.2113516074271138
2025-03-23 17:47:51.816,-2.3569404268408034
2025-03-23 17:47:51.816,-3.375655719404663
2025-03-23 17:47:51.825,-1.3943989899375766
2025-03-23 17:47:51.825,1.240394527930951
2025-03-23 17:47:51.825,2.24746995170737
2025-03-23 17:47:51.825,1.476370595140246
2025-03-23 17:47:51.826,0.009463228765575524
2025-03-23 17:47:51.835,-1.4991775200941488
2025-03-23 17:47:51.835,-2.4834060687247383
2025-03-23 17:47:51.836,-1.5740950989201767
2025-03-23 17:47:51.836,1.7507849586597286
2025-03-23 17:47:51.836,4.695164085117349
2025-03-23 17:47:51.844,3.066535517463273
2025-03-23 17:47:51.844,-2.8740053768494285
2025-03-23 17:47:51.844,-6.811741678405596
2025-03-23 17:47:51.844,-3.405802850539829
2025-03-23 17:47:51.844,4.180746898988591
2025-03-23 17:47:51.853,7.134318199197153
2025-03-23 17:47:51.854,1.8382610768169227
2025-03-23 17:47:51.854,-5.2273835216402125
2025-03-23 17:47:51.854,-5.433210925982434
2025-03-23 17:47:51.854,1.1309931861602194
2025-03-23 17:47:51.863,5.888310792751586
2025-03-23 17:47:51.864,2.8474994662357407
2025-03-23 17:47:51.864,-3.85014147104324
2025-03-23 17:47:51.864,-5.623932887809789
2025-03-23 17:47:51.873,-0.5947598770139524
2025-03-23 17:47:51.874,4.570791333954822
2025-03-23 17:47:51.874,3.8703206558590044
2025-03-23 17:47:51.874,-0.7203093655150996
2025-03-23 17:47:51.874,-3.0371477223423597
2025-03-23 17:47:51.883,-1.152865221795145
2025-03-23 17:47:51.883,1.1874529657596278
2025-03-23 17:47:51.884,0.7208002581444654
2025-03-23 17:47:51.884,-1.1085843277099037
2025-03-23 17:47:51.884,-1.1230387588784891
2025-03-23 17:47:51.893,0.7801193071395234
2025-03-23 17:47:51.894,1.8987931770546236
2025-03-23 17:47:51.894,0.8077991750447273
2025-03-23 17:47:51.894,-0.9860738471899728
2025-03-23 17:47:51.894,-1.4938983070136076
2025-03-23 17:47:51.894,-0.6238673415605797
2025-03-23 17:47:51.903,0.4228406465597834
2025-03-23 17:47:51.904,0.8753798687541768
2025-03-23 17:47:51.904,0.7334715002367429
2025-03-23 17:47:51.904,0.1841888235584389
2025-03-23 17:47:51.913,-0.4995880865648227
2025-03-23 17:47:51.914,-0.8442861156539571
2025-03-23 17:47:51.914,-0.5688016264832784
2025-03-23 17:47:51.914,0.06804447897838345
2025-03-23 17:47:51.914,0.6173355681647421
2025-03-23 17:47:51.923,0.8684970387027221
2025-03-23 17:47:51.923,0.7120023639904208
2025-03-23 17:47:51.924,0.004616638921767557
2025-03-23 17:47:51.924,-1.030789112801683
2025-03-23 17:47:51.924,-1.5728474627333946
2025-03-23 17:47:51.933,-0.874385764054008
2025-03-23 17:47:51.934,0.7695414204885079
2025-03-23 17:47:51.934,1.993719365254233
2025-03-23 17:47:51.934,1.579916045025862
2025-03-23 17:47:51.934,-0.1944345894248917
2025-03-23 17:47:51.943,-1.6598696698358266
2025-03-23 17:47:51.943,-1.5072457337639618
2025-03-23 17:47:51.944,-0.22304291046720787
2025-03-23 17:47:51.944,0.6639994762555772
2025-03-23 17:47:51.944,0.5200393362078664
2025-03-23 17:47:51.953,0.11677368323343677
2025-03-23 17:47:51.953,0.29574003843842017
2025-03-23 17:47:51.954,0.8497368730605728
2025-03-23 17:47:51.954,0.8621882812365819
2025-03-23 17:47:51.954,-0.2750137162920934
2025-03-23 17:47:51.963,-2.0879722050758676
2025-03-23 17:47:51.964,-2.9046779181604307
2025-03-23 17:47:51.964,-1.0638935997196148
2025-03-23 17:47:51.964,2.842653322543858
2025-03-23 17:47:51.964,5.340336347072849
2025-03-23 17:47:51.973,3.1441242651837453
2025-03-23 17:47:51.973,-2.6845397812542227
2025-03-23 17:47:51.974,-6.784168111604868
2025-03-23 17:47:51.974,-4.76257024553426
2025-03-23 17:47:51.974,1.7997947296704992
2025-03-23 17:47:51.981,6.500725012247744
2025-03-23 17:47:51.982,4.698224356277608
2025-03-23 17:47:51.982,-1.4377972892182058
2025-03-23 17:47:51.982,-5.17949836928956
2025-03-23 17:47:51.982,-2.7029236130101566
2025-03-23 17:47:51.992,2.5697241300923555
2025-03-23 17:47:51.992,4.031127856688528
2025-03-23 17:47:51.992,-0.12687346168288777
2025-03-23 17:47:51.992,-4.586160375555447
2025-03-23 17:47:51.992,-3.3934695127088674
2025-03-23 17:47:52.002,2.442712301676232
2025-03-23 17:47:52.002,5.866647326648188
2025-03-23 17:47:52.002,2.5007295581415754
2025-03-23 17:47:52.002,-3.699391712023044
2025-03-23 17:47:52.002,-5.284287911237363
2025-03-23 17:47:52.012,-0.6339441408415468
2025-03-23 17:47:52.012,4.150620665818099
2025-03-23 17:47:52.012,3.1014037143158255
2025-03-23 17:47:52.012,-2.1127909000885308
2025-03-23 17:47:52.021,-4.417957741753173
2025-03-23 17:47:52.022,-0.3968155902598732
2025-03-23 17:47:52.022,5.107599912823242
2025-03-23 17:47:52.022,4.759008633329042
2025-03-23 17:47:52.022,-1.9198845740045358
2025-03-23 17:47:52.031,-7.319166829137549
2025-03-23 17:47:52.032,-4.7755639424895024
2025-03-23 17:47:52.032,3.1147579036053803
2025-03-23 17:47:52.032,7.553036803186285
2025-03-23 17:47:52.032,4.155372407185097
2025-03-23 17:47:52.041,-2.445338847278978
2025-03-23 17:47:52.041,-5.245843068870918
2025-03-23 17:47:52.042,-3.1144445616583556
2025-03-23 17:47:52.042,-0.16417104649511152
2025-03-23 17:47:52.042,0.9812585496851212
2025-03-23 17:47:52.051,1.7331905949558868
2025-03-23 17:47:52.051,3.3908314507250443
2025-03-23 17:47:52.052,3.804644132264639
2025-03-23 17:47:52.052,0.2917603750998229
2025-03-23 17:47:52.052,-5.395289602472774
2025-03-23 17:47:52.061,-7.497981589427868
2025-03-23 17:47:52.061,-2.597578051562183
2025-03-23 17:47:52.062,5.518971860738357
2025-03-23 17:47:52.062,8.94064545524702
2025-03-23 17:47:52.062,4.001108060703183
2025-03-23 17:47:52.071,-4.458355895456984
2025-03-23 17:47:52.072,-8.097761402696316
2025-03-23 17:47:52.072,-3.859965257047868
2025-03-23 17:47:52.072,3.2458007233333572
2025-03-23 17:47:52.072,6.000382172633732
2025-03-23 17:47:52.081,2.511818709107027
2025-03-23 17:47:52.081,-2.580693644104361
2025-03-23 17:47:52.082,-3.7346871882150623
2025-03-23 17:47:52.082,-0.44959440610529555
2025-03-23 17:47:52.082,2.6909639936227943
2025-03-23 17:47:52.091,1.6834848841370822
2025-03-23 17:47:52.091,-1.9522367889166417
2025-03-23 17:47:52.092,-3.0417268562952353
2025-03-23 17:47:52.092,0.3428654140438127
2025-03-23 17:47:52.092,3.828052952525513
2025-03-23 17:47:52.101,2.3859820850580413
2025-03-23 17:47:52.101,-2.431646519996727
2025-03-23 17:47:52.102,-4.114592461929952
2025-03-23 17:47:52.102,-0.14746654432991319
2025-03-23 17:47:52.102,4.194287567037769
2025-03-23 17:47:52.110,2.9163499962802693
2025-03-23 17:47:52.110,-2.4877661041601447
2025-03-23 17:47:52.110,-5.058349602863946
2025-03-23 17:47:52.110,-1.556754649330144
2025-03-23 17:47:52.110,3.719991989886666
2025-03-23 17:47:52.120,4.818617145697533
2025-03-23 17:47:52.120,1.108638414506086
2025-03-23 17:47:52.120,-3.0743232189984617
2025-03-23 17:47:52.120,-3.9403901698930897
2025-03-23 17:47:52.129,-1.5190013543852638
2025-03-23 17:47:52.130,1.6401392037608902
2025-03-23 17:47:52.130,3.1059817510557544
2025-03-23 17:47:52.130,2.0072130724947237
2025-03-23 17:47:52.130,-0.6054423324607772
2025-03-23 17:47:52.139,-2.42429187759547
2025-03-23 17:47:52.139,-1.8792399608680115
2025-03-23 17:47:52.140,0.15136298420009797
2025-03-23 17:47:52.140,1.3469472836389098
2025-03-23 17:47:52.140,0.8605225232582178
2025-03-23 17:47:52.149,0.20754311647279464
2025-03-23 17:47:52.150,0.6696715345697771
2025-03-23 17:47:52.150,1.0117677167216206
2025-03-23 17:47:52.150,-0.7037092282019711
2025-03-23 17:47:52.150,-3.4706403679857996
2025-03-23 17:47:52.159,-3.5025542252868886
2025-03-23 17:47:52.159,0.966370219983486
2025-03-23 17:47:52.160,6.213550013137811
2025-03-23 17:47:52.160,6.173807957798204
2025-03-23 17:47:52.160,-0.5239072804790682
2025-03-23 17:47:52.169,-7.8892126046215365
2025-03-23 17:47:52.169,-8.269016844111292
2025-03-23 17:47:52.170,-0.6632283319444657
2025-03-23 17:47:52.170,7.751119026148676
2025-03-23 17:47:52.170,8.912011338262225
2025-03-23 17:47:52.178,2.053463526575218
2025-03-23 17:47:52.178,-5.911663024397
2025-03-23 17:47:52.178,-7.667840673467852
2025-03-23 17:47:52.178,-2.499349481948626
2025-03-23 17:47:52.178,3.7342284976414306
2025-03-23 17:47:52.187,4.9447993029553325
2025-03-23 17:47:52.188,0.9108728194817566
2025-03-23 17:47:52.188,-2.9421992092387854
2025-03-23 17:47:52.188,-1.9048042403590026
2025-03-23 17:47:52.197,2.389231477852652
2025-03-23 17:47:52.197,3.881568298329338
2025-03-23 17:47:52.198,-0.2024645043172833
2025-03-23 17:47:52.198,-5.370304245832291
2025-03-23 17:47:52.198,-5.14130593212036
2025-03-23 17:47:52.207,0.8114321618196079
2025-03-23 17:47:52.208,6.095339307062488
2025-03-23 17:47:52.208,5.245322873895102
2025-03-23 17:47:52.208,-0.22476936214940135
2025-03-23 17:47:52.208,-4.428168422383968
2025-03-23 17:47:52.217,-4.067397411148196
2025-03-23 17:47:52.218,-0.9546061806513334
2025-03-23 17:47:52.218,1.5854064497784603
2025-03-23 17:47:52.218,2.4167476806762047
2025-03-23 17:47:52.218,2.1671108275972073
2025-03-23 17:47:52.227,1.1466661109290204
2025-03-23 17:47:52.227,-0.713599089275734
2025-03-23 17:47:52.228,-2.6584683471430552
2025-03-23 17:47:52.228,-3.2208809030461496
2025-03-23 17:47:52.228,-1.5166828267184493
2025-03-23 17:47:52.237,1.8980474854173877
2025-03-23 17:47:52.237,4.903334989252578
2025-03-23 17:47:52.238,4.586975992654006
2025-03-23 17:47:52.238,-0.23484960619832548
2025-03-23 17:47:52.238,-6.348501836884168
2025-03-23 17:47:52.247,-7.682635605704947
2025-03-23 17:47:52.248,-1.599643636711535
2025-03-23 17:47:52.248,6.9014928480007205
2025-03-23 17:47:52.248,9.428567345731162
2025-03-23 17:47:52.248,3.160830449987073
2025-03-23 17:47:52.257,-5.833916447003848
2025-03-23 17:47:52.257,-8.984374569182345
2025-03-23 17:47:52.258,-4.004335077004416
2025-03-23 17:47:52.258,3.4840703778192443
2025-03-23 17:47:52.258,6.458969910250335
2025-03-23 17:47:52.267,3.47369720123672
2025-03-23 17:47:52.267,-1.0885660126433923
2025-03-23 17:47:52.268,-2.7338058828048974
2025-03-23 17:47:52.268,-1.4773030441185482
2025-03-23 17:47:52.268,-0.38580767946640177
2025-03-23 17:47:52.277,-0.8273890755480465
2025-03-23 17:47:52.278,-0.9838560542833545
2025-03-23 17:47:52.278,0.7845374282035943
2025-03-23 17:47:52.278,2.934751341656456
2025-03-23 17:47:52.278,2.5554022312514193
2025-03-23 17:47:52.287,-0.5371952928754454
2025-03-23 17:47:52.287,-3.176256323671094
2025-03-23 17:47:52.288,-2.601183561513945
2025-03-23 17:47:52.288,0.32093282275838014
2025-03-23 17:47:52.288,2.323115419725963
2025-03-23 17:47:52.297,1.5565125483810085
2025-03-23 17:47:52.297,-0.6252677010040741
2025-03-23 17:47:52.298,-1.5850734508804083
2025-03-23 17:47:52.298,-0.4306763972848558
2025-03-23 17:47:52.298,1.2472040682868784
2025-03-23 17:47:52.307,1.449981623789942
2025-03-23 17:47:52.307,0.03516892597965868
2025-03-23 17:47:52.308,-1.3991542834157318
2025-03-23 17:47:52.308,-1.496632093576582
2025-03-23 17:47:52.308,-0.4099118836491779
2025-03-23 17:47:52.317,0.7632896224868743
2025-03-23 17:47:52.317,1.1545831202030357
2025-03-23 17:47:52.318,0.683789491444686
2025-03-23 17:47:52.318,-0.04464100890060593
2025-03-23 17:47:52.318,-0.3160370839373184
2025-03-23 17:47:52.325,-0.06485879004199963
2025-03-23 17:47:52.326,0.05038059364910616
2025-03-23 17:47:52.326,-0.4232924393299383
2025-03-23 17:47:52.326,-1.0253859249981843
2025-03-23 17:47:52.336,-0.9254908261448405
2025-03-23 17:47:52.336,0.14343386763170346
2025-03-23 17:47:52.336,1.6878177574839517
2025-03-23 17:47:52.336,2.618260974889641
2025-03-23 17:47:52.336,1.5277703823042208
2025-03-23 17:47:52.336,-1.9135861079973442
2025-03-23 17:47:52.346,-5.1438385472251955
2025-03-23 17:47:52.346,-4.009746820906835
2025-03-23 17:47:52.346,2.1419584176608275
2025-03-23 17:47:52.346,7.7251960932631105
2025-03-23 17:47:52.346,6.0922810567378995
2025-03-23 17:47:52.356,-2.1741183930040844
2025-03-23 17:47:52.356,-8.702129621860053
2025-03-23 17:47:52.356,-6.554652520033304
2025-03-23 17:47:52.356,1.6831916834564107
2025-03-23 17:47:52.365,7.084613535628646
2025-03-23 17:47:52.365,4.825884820995839
2025-03-23 17:47:52.366,-1.0344384825020199
2025-03-23 17:47:52.366,-3.61354432611529
2025-03-23 17:47:52.366,-1.5215214069821192
2025-03-23 17:47:52.376,0.8990258594663415
2025-03-23 17:47:52.376,0.29198679676412187
2025-03-23 17:47:52.376,-1.6772974356515211
2025-03-23 17:47:52.376,-1.5582719289829143
2025-03-23 17:47:52.376,0.9140385701384849
2025-03-23 17:47:52.376,2.877776814475432
2025-03-23 17:47:52.385,2.4105769342173615
2025-03-23 17:47:52.386,0.5163912340343282
2025-03-23 17:47:52.386,-1.0904573820460033
2025-03-23 17:47:52.386,-2.258436689037122
2025-03-23 17:47:52.395,-3.2432268645664313
2025-03-23 17:47:52.396,-2.7377441102334434
2025-03-23 17:47:52.396,0.6504678060210544
2025-03-23 17:47:52.396,5.085734832060558
2025-03-23 17:47:52.396,6.071033135879719
2025-03-23 17:47:52.405,1.5869483759647607
2025-03-23 17:47:52.406,-4.696041148568253
2025-03-23 17:47:52.406,-6.89823560453429
2025-03-23 17:47:52.406,-3.198629654994053
2025-03-23 17:47:52.406,2.537633836479051
2025-03-23 17:47:52.415,5.191373972027521
2025-03-23 17:47:52.415,3.342927965054378
2025-03-23 17:47:52.416,-0.30337935524794235
2025-03-23 17:47:52.416,-2.368104062818613
2025-03-23 17:47:52.416,-1.943074126483395
2025-03-23 17:47:52.425,-0.622154595246822
2025-03-23 17:47:52.426,-0.09188289674051775
2025-03-23 17:47:52.426,-0.21476719726859067
2025-03-23 17:47:52.426,0.24373170906138567
2025-03-23 17:47:52.426,1.4049705972954432
2025-03-23 17:47:52.435,1.8201997144807598
2025-03-23 17:47:52.435,0.5559327379400628
2025-03-23 17:47:52.436,-1.2990851825044318
2025-03-23 17:47:52.436,-2.04265603502045
2025-03-23 17:47:52.436,-1.421396190325286
2025-03-23 17:47:52.445,-0.21347208064071563
2025-03-23 17:47:52.445,1.328084483432179
2025-03-23 17:47:52.446,2.903844353799708
2025-03-23 17:47:52.446,2.700781827193278
2025-03-23 17:47:52.446,-0.8648524509283385
2025-03-23 17:47:52.455,-5.392121314144495
2025-03-23 17:47:52.455,-5.338243090715444
2025-03-23 17:47:52.456,1.1714550194371918
2025-03-23 17:47:52.456,8.119513125229743
2025-03-23 17:47:52.456,7.304970197452904
2025-03-23 17:47:52.464,-1.6420404892039864
2025-03-23 17:47:52.464,-9.636601861326373
2025-03-23 17:47:52.464,-7.978485990838375
2025-03-23 17:47:52.464,1.6619661730647588
2025-03-23 17:47:52.473,9.044785507944743
2025-03-23 17:47:52.474,6.8715748511683925
2025-03-23 17:47:52.474,-1.4673160355046242
2025-03-23 17:47:52.474,-6.581325118375436
2025-03-23 17:47:52.474,-4.02821955843899
2025-03-23 17:47:52.483,1.5757040581544186
2025-03-23 17:47:52.483,3.348576325454695
2025-03-23 17:47:52.484,0.5085294455332805
2025-03-23 17:47:52.484,-1.9803512841169477
2025-03-23 17:47:52.484,-0.7403445499099075
2025-03-23 17:47:52.493,2.0443354697401497
2025-03-23 17:47:52.494,2.4469954673446144
2025-03-23 17:47:52.494,-0.01567447389960705
2025-03-23 17:47:52.494,-2.6209889958677373
2025-03-23 17:47:52.494,-3.15259445167952
2025-03-23 17:47:52.503,-1.4646797467742048
2025-03-23 17:47:52.504,1.5231795038660727
2025-03-23 17:47:52.504,4.204428040761424
2025-03-23 17:47:52.504,4.175541034694512
2025-03-23 17:47:52.504,0.22375051451050446
2025-03-23 17:47:52.513,-5.006603750529621
2025-03-23 17:47:52.513,-6.388976898629441
2025-03-23 17:47:52.514,-1.7920059014294776
2025-03-23 17:47:52.514,4.815008381302869
2025-03-23 17:47:52.514,7.103960628579818
2025-03-23 17:47:52.523,2.947824722208254
2025-03-23 17:47:52.523,-3.6027020322972003
2025-03-23 17:47:52.524,-6.608949804352538
2025-03-23 17:47:52.524,-3.786438897829137
2025-03-23 17:47:52.524,1.9438640874770485
2025-03-23 17:47:52.533,5.529151685985042
2025-03-23 17:47:52.533,4.216872254775791
2025-03-23 17:47:52.534,-0.40175704542064444
2025-03-23 17:47:52.534,-4.124228581917026
2025-03-23 17:47:52.534,-3.9105036503488257
2025-03-23 17:47:52.543,-0.418381665814674
2025-03-23 17:47:52.543,2.8356921379688442
2025-03-23 17:47:52.544,2.891942233351265
2025-03-23 17:47:52.544,0.12481253805466838
2025-03-23 17:47:52.544,-2.363171846238022
2025-03-23 17:47:52.553,-2.0574786453387737
2025-03-23 17:47:52.553,0.5177496774445767
2025-03-23 17:47:52.554,2.6717046239559257
2025-03-23 17:47:52.554,2.387856142444365
2025-03-23 17:47:52.554,-0.02499682321140606
2025-03-23 17:47:52.562,-2.660676975186695
2025-03-23 17:47:52.562,-3.6549621243874117
2025-03-23 17:47:52.562,-2.1489197150899093
2025-03-23 17:47:52.562,1.3636108992830287
2025-03-23 17:47:52.562,4.798905465872939
2025-03-23 17:47:52.572,5.132914842033703
2025-03-23 17:47:52.572,0.882562118802237
2025-03-23 17:47:52.572,-5.27817325572336
2025-03-23 17:47:52.572,-7.601124039650494
2025-03-23 17:47:52.582,-2.831629679894833
2025-03-23 17:47:52.582,5.235088183142598
2025-03-23 17:47:52.582,8.599914507317772
2025-03-23 17:47:52.582,3.5692612868563627
2025-03-23 17:47:52.582,-4.737012057504926
2025-03-23 17:47:52.592,-7.830283058522825
2025-03-23 17:47:52.592,-3.1600473570954586
2025-03-23 17:47:52.592,3.6701716066782297
2025-03-23 17:47:52.592,5.810986088787777
2025-03-23 17:47:52.592,2.3400837016265963
2025-03-23 17:47:52.602,-2.1978725211921217
2025-03-23 17:47:52.602,-3.648522103279693
2025-03-23 17:47:52.602,-1.8662288624492371
2025-03-23 17:47:52.602,0.7508113311926475
2025-03-23 17:47:52.602,2.206542768979415
2025-03-23 17:47:52.611,1.9269701278344213
2025-03-23 17:47:52.612,0.3610586232054854
2025-03-23 17:47:52.612,-1.3861565417912411
2025-03-23 17:47:52.612,-2.052481366712437
2025-03-23 17:47:52.612,-1.1007066053623176
2025-03-23 17:47:52.621,0.7794937332922459
2025-03-23 17:47:52.621,2.0452055832701648
2025-03-23 17:47:52.622,1.3817469792069836
2025-03-23 17:47:52.622,-0.8759807615465544
2025-03-23 17:47:52.622,-2.3570615231741674
2025-03-23 17:47:52.631,-0.9220336561078266
2025-03-23 17:47:52.632,2.188150692399477
2025-03-23 17:47:52.632,3.0156333455720223
2025-03-23 17:47:52.632,-0.13747425899487994
2025-03-23 17:47:52.632,-3.8243470980940453
2025-03-23 17:47:52.641,-3.3772915468555875
2025-03-23 17:47:52.642,1.0686436449661771
2025-03-23 17:47:52.642,4.538597261269635
2025-03-23 17:47:52.642,3.2167929738377894
2025-03-23 17:47:52.642,-1.301164078541323
2025-03-23 17:47:52.651,-4.285643658626928
2025-03-23 17:47:52.651,-3.0621082435897486
2025-03-23 17:47:52.652,0.8407030001897235
2025-03-23 17:47:52.652,3.7740672327470524
2025-03-23 17:47:52.652,3.2966784988354827
2025-03-23 17:47:52.661,-0.0323186476256177
2025-03-23 17:47:52.661,-3.2671130152113954
2025-03-23 17:47:52.662,-3.572492329849816
2025-03-23 17:47:52.662,-0.7663650797825201
2025-03-23 17:47:52.662,2.478199544682012
2025-03-23 17:47:52.671,3.2487020550311576
2025-03-23 17:47:52.672,1.2362390955947575
2025-03-23 17:47:52.672,-1.2481932723973497
2025-03-23 17:47:52.672,-1.989882088935484
2025-03-23 17:47:52.672,-1.091382475052466
2025-03-23 17:47:52.681,-0.2094988855828904
2025-03-23 17:47:52.681,-0.0881807726040045
2025-03-23 17:47:52.682,0.24690284512671284
2025-03-23 17:47:52.682,1.5799199958425554
2025-03-23 17:47:52.682,2.626608457759654
2025-03-23 17:47:52.691,1.198453645207772
2025-03-23 17:47:52.691,-2.54691229969145
2025-03-23 17:47:52.692,-5.0854144305633495
2025-03-23 17:47:52.692,-3.0007273766948863
2025-03-23 17:47:52.692,2.589928483361608
2025-03-23 17:47:52.700,6.395583026804939
2025-03-23 17:47:52.700,4.491470198359516
2025-03-23 17:47:52.700,-1.2892760475568472
2025-03-23 17:47:52.700,-5.425995463132608
2025-03-23 17:47:52.700,-4.653838053569481
2025-03-23 17:47:52.711,-0.7400206341528082
2025-03-23 17:47:52.711,2.4209734267225325
2025-03-23 17:47:52.712,3.011761967382626
2025-03-23 17:47:52.712,1.9943437617137838
2025-03-23 17:47:52.712,0.7875420263837701
2025-03-23 17:47:52.720,-0.34268988111817655
2025-03-23 17:47:52.720,-1.5834880184405131
2025-03-23 17:47:52.720,-2.3915129203354764
2025-03-23 17:47:52.720,-1.827921645631748
2025-03-23 17:47:52.731,0.07487781897908004
2025-03-23 17:47:52.731,1.9356749580431534
2025-03-23 17:47:52.732,2.3452180100176085
2025-03-23 17:47:52.732,1.2691852742534544
2025-03-23 17:47:52.732,-0.19902970015347338
2025-03-23 17:47:52.732,-1.1794448190563394
2025-03-23 17:47:52.740,-1.568837172110574
2025-03-23 17:47:52.740,-1.4523865165563425
2025-03-23 17:47:52.740,-0.6968809107455791
2025-03-23 17:47:52.740,0.6228608837436895
2025-03-23 17:47:52.749,1.8420098955382238
2025-03-23 17:47:52.750,2.091134905747663
2025-03-23 17:47:52.750,1.0092943189695234
2025-03-23 17:47:52.750,-0.8745272378710444
2025-03-23 17:47:52.750,-2.2863659977833497
2025-03-23 17:47:52.759,-2.016451696260336
2025-03-23 17:47:52.760,-0.18670629403867878
2025-03-23 17:47:52.760,1.4112722507657562
2025-03-23 17:47:52.760,1.1331520949202682
2025-03-23 17:47:52.760,-0.2408054563552792
2025-03-23 17:47:52.769,-0.2544458040749249
2025-03-23 17:47:52.769,1.5852940017755213
2025-03-23 17:47:52.770,2.371539134963972
2025-03-23 17:47:52.770,-0.4009894872675901
2025-03-23 17:47:52.770,-4.497991017495494
2025-03-23 17:47:52.779,-4.767639615967811
2025-03-23 17:47:52.779,0.2729360837429107
2025-03-23 17:47:52.780,5.730409898135169
2025-03-23 17:47:52.780,5.7147780326321795
2025-03-23 17:47:52.780,0.34867573488280645
2025-03-23 17:47:52.789,-4.491778183892417
2025-03-23 17:47:52.790,-4.3265551835898
2025-03-23 17:47:52.790,-0.9134276020183041
2025-03-23 17:47:52.790,1.127368582968577
2025-03-23 17:47:52.790,0.7626162956957325
2025-03-23 17:47:52.799,1.0226618842511945
2025-03-23 17:47:52.799,3.201434683162787
2025-03-23 17:47:52.800,3.7750731092776313
2025-03-23 17:47:52.800,-0.6182687210809469
2025-03-23 17:47:52.800,-6.840818831180112
2025-03-23 17:47:52.809,-7.445397197055578
2025-03-23 17:47:52.809,-8.188069520631558e-06
2025-03-23 17:47:52.810,8.498479928679687
2025-03-23 17:47:52.810,8.864376360799705
2025-03-23 17:47:52.810,0.3934408619773373
2025-03-23 17:47:52.819,-8.061332584680626
2025-03-23 17:47:52.819,-7.957712857204515
2025-03-23 17:47:52.820,-0.2417103327996225
2025-03-23 17:47:52.820,6.381686208914239
2025-03-23 17:47:52.820,5.439732480187421
2025-03-23 17:47:52.829,-0.5943261660647094
2025-03-23 17:47:52.829,-4.118769520968562
2025-03-23 17:47:52.830,-1.8219392338141742
2025-03-23 17:47:52.830,1.8126874952414669
2025-03-23 17:47:52.830,1.2217341789791116
2025-03-23 17:47:52.839,-2.308215927789021
2025-03-23 17:47:52.839,-2.5966479089336674
2025-03-23 17:47:52.840,2.0412336540113563
2025-03-23 17:47:52.840,5.537636249036752
2025-03-23 17:47:52.840,2.306579545754461
2025-03-23 17:47:52.848,-4.437879232668842
2025-03-23 17:47:52.848,-6.3884833197955775
2025-03-23 17:47:52.848,-1.0482716882809289
2025-03-23 17:47:52.848,5.054127459359544
2025-03-23 17:47:52.848,4.842839091438077
2025-03-23 17:47:52.858,-0.7058213216690223
2025-03-23 17:47:52.858,-4.505402797867711
2025-03-23 17:47:52.858,-2.3342901059977277
2025-03-23 17:47:52.858,2.559258089152103
2025-03-23 17:47:52.858,3.980446083518496
2025-03-23 17:47:52.867,0.2714594220631432
2025-03-23 17:47:52.868,-3.9646349145344115
2025-03-23 17:47:52.868,-3.5137485348775437
2025-03-23 17:47:52.868,1.1264719730340822
2025-03-23 17:47:52.877,4.2627488530213204
2025-03-23 17:47:52.878,2.02981260225374
2025-03-23 17:47:52.878,-2.586961748758039
2025-03-23 17:47:52.878,-3.426319862117855
2025-03-23 17:47:52.878,0.7759328832416892
2025-03-23 17:47:52.887,4.493007654700817
2025-03-23 17:47:52.887,2.4666628793784637
2025-03-23 17:47:52.888,-3.429344417842796
2025-03-23 17:47:52.888,-6.3359340913190065
2025-03-23 17:47:52.888,-2.57883284000627
2025-03-23 17:47:52.897,4.206856417618786
2025-03-23 17:47:52.898,7.265170398143931
2025-03-23 17:47:52.898,3.776967070190837
2025-03-23 17:47:52.898,-2.7786239498363443
2025-03-23 17:47:52.898,-6.565031480155656
2025-03-23 17:47:52.907,-4.891124703319986
2025-03-23 17:47:52.908,0.07531590079567221
2025-03-23 17:47:52.908,4.1330508147374445
2025-03-23 17:47:52.908,4.7803263910579386
2025-03-23 17:47:52.908,2.418690801275716
2025-03-23 17:47:52.918,-0.9325471877641821
2025-03-23 17:47:52.918,-3.2590481698358342
2025-03-23 17:47:52.918,-3.3840883998156888
2025-03-23 17:47:52.918,-1.397243637541734
2025-03-23 17:47:52.918,1.2425610767108313
2025-03-23 17:47:52.927,2.5818752553302002
2025-03-23 17:47:52.927,1.7812675997762948
2025-03-23 17:47:52.928,-0.11031413204391477
2025-03-23 17:47:52.928,-1.1861479625147155
2025-03-23 17:47:52.928,-0.573665896223147
2025-03-23 17:47:52.937,0.6634467766846031
2025-03-23 17:47:52.937,0.6662648583331489
2025-03-23 17:47:52.938,-0.9164957692356859
2025-03-23 17:47:52.938,-2.139973547753452
2025-03-23 17:47:52.938,-1.0900905284123144
2025-03-23 17:47:52.947,1.3186879255173634
2025-03-23 17:47:52.947,2.308909772168655
2025-03-23 17:47:52.948,1.1100035486972115
2025-03-23 17:47:52.948,-0.03142705009735218
2025-03-23 17:47:52.948,0.41052564461377095
2025-03-23 17:47:52.956,0.5099471369350004
2025-03-23 17:47:52.956,-2.008787078391693
2025-03-23 17:47:52.956,-5.091023864022635
2025-03-23 17:47:52.956,-3.769060022656605
2025-03-23 17:47:52.956,2.975967715718116
2025-03-23 17:47:52.966,9.084793388738936
2025-03-23 17:47:52.966,7.356828055218629
2025-03-23 17:47:52.966,-1.9089979913691895
2025-03-23 17:47:52.966,-10.15362326765258
2025-03-23 17:47:52.975,-9.320743269610087
2025-03-23 17:47:52.976,-0.4459089418878025
2025-03-23 17:47:52.976,7.7071833904181535
2025-03-23 17:47:52.976,8.207392156006302
2025-03-23 17:47:52.976,2.5063203803371685
2025-03-23 17:47:52.985,-2.9312482403804885
2025-03-23 17:47:52.986,-4.382149363640123
2025-03-23 17:47:52.986,-3.2208422699295935
2025-03-23 17:47:52.986,-1.7815874206051234
2025-03-23 17:47:52.986,-0.05394678602480919
2025-03-23 17:47:52.995,2.5568643882836968
2025-03-23 17:47:52.996,4.4466610417474275
2025-03-23 17:47:52.996,3.050908763072061
2025-03-23 17:47:52.996,-1.3652572178016336
2025-03-23 17:47:52.996,-4.858021754681451
2025-03-23 17:47:53.005,-3.7486057561408352
2025-03-23 17:47:53.006,0.9602236068532554
2025-03-23 17:47:53.006,4.155619633619582
2025-03-23 17:47:53.006,2.2539963820820867
2025-03-23 17:47:53.006,-2.2771609861576256
2025-03-23 17:47:53.015,-3.456435003974543
2025-03-23 17:47:53.016,0.6903814814601819
2025-03-23 17:47:53.016,4.8870200682645795
2025-03-23 17:47:53.016,2.902523749180036
2025-03-23 17:47:53.016,-3.807319350307338
2025-03-23 17:47:53.025,-6.941438810096907
2025-03-23 17:47:53.025,-1.84350612538307
2025-03-23 17:47:53.026,5.811925507227124
2025-03-23 17:47:53.026,6.691213636998284
2025-03-23 17:47:53.026,-0.2352985943367118
2025-03-23 17:47:53.035,-6.181275211804852
2025-03-23 17:47:53.036,-3.8518003001888212
2025-03-23 17:47:53.036,3.121623903100667
2025-03-23 17:47:53.036,5.1432803761543795
2025-03-23 17:47:53.036,-0.4744233311956429
2025-03-23 17:47:53.045,-5.891865631055622
2025-03-23 17:47:53.045,-3.2904306632813194
2025-03-23 17:47:53.046,4.493345974571177
2025-03-23 17:47:53.046,7.46626202175586
2025-03-23 17:47:53.046,1.4378854730286188
2025-03-23 17:47:53.055,-6.607822342444992
2025-03-23 17:47:53.056,-7.358105551875928
2025-03-23 17:47:53.056,-0.34925179475628787
2025-03-23 17:47:53.056,6.3558178236454905
2025-03-23 17:47:53.056,6.1428123655583216
2025-03-23 17:47:53.064,0.40355188071532694
2025-03-23 17:47:53.064,-4.729989229961603
2025-03-23 17:47:53.064,-5.197959033218463
2025-03-23 17:47:53.064,-1.4738525576484087
2025-03-23 17:47:53.064,3.3162385895567423
2025-03-23 17:47:53.074,5.604094554713463
2025-03-23 17:47:53.074,3.1238848971570508
2025-03-23 17:47:53.074,-2.87345731968449
2025-03-23 17:47:53.074,-7.191402757526699
2025-03-23 17:47:53.083,-4.911794019524386
2025-03-23 17:47:53.084,2.816345011279677
2025-03-23 17:47:53.084,8.683506887085521
2025-03-23 17:47:53.084,6.453841651424407
2025-03-23 17:47:53.084,-2.1257118395464607
2025-03-23 17:47:53.094,-8.81554871192814
2025-03-23 17:47:53.094,-7.311647394639411
2025-03-23 17:47:53.094,0.5900913544474855
2025-03-23 17:47:53.094,7.312742373458591
2025-03-23 17:47:53.094,7.137096009299375
2025-03-23 17:47:53.094,1.1027680992888875
2025-03-23 17:47:53.104,-4.9289170213279
2025-03-23 17:47:53.104,-6.047169780082353
2025-03-23 17:47:53.104,-2.1820713249223136
2025-03-23 17:47:53.104,2.705341152122379
2025-03-23 17:47:53.114,4.53106179545664
2025-03-23 17:47:53.114,2.3870399514142533
2025-03-23 17:47:53.114,-1.2677375147117278
2025-03-23 17:47:53.114,-3.1033058252625256
2025-03-23 17:47:53.114,-1.7799450430546835
2025-03-23 17:47:53.123,0.9733390587666493
2025-03-23 17:47:53.124,2.0174627634040534
2025-03-23 17:47:53.124,0.2125982433581536
2025-03-23 17:47:53.124,-1.8828466772103343
2025-03-23 17:47:53.124,-0.942501672017356
2025-03-23 17:47:53.133,2.320883839173843
2025-03-23 17:47:53.134,3.233399636166159
2025-03-23 17:47:53.134,-0.6433195473441562
2025-03-23 17:47:53.134,-5.170861489197944
2025-03-23 17:47:53.134,-4.076468732187924
2025-03-23 17:47:53.143,2.6265398050445956
2025-03-23 17:47:53.144,7.479311891291581
2025-03-23 17:47:53.144,4.2055562748602595
2025-03-23 17:47:53.144,-4.240769810009792
2025-03-23 17:47:53.144,-8.535424602770908
2025-03-23 17:47:53.153,-3.752239332159741
2025-03-23 17:47:53.153,4.8373897586576105
2025-03-23 17:47:53.154,7.896727142641055
2025-03-23 17:47:53.154,2.673728176118968
2025-03-23 17:47:53.154,-4.4246953274138425
2025-03-23 17:47:53.163,-5.805231916716348
2025-03-23 17:47:53.164,-1.126593650398903
2025-03-23 17:47:53.164,3.4707014158999163
2025-03-23 17:47:53.164,3.1957643680513663
2025-03-23 17:47:53.164,-0.43831681712666787
2025-03-23 17:47:53.173,-2.55777476098798
2025-03-23 17:47:53.174,-1.0146794310327076
2025-03-23 17:47:53.174,1.7063097479512996
2025-03-23 17:47:53.174,2.0862713388588916
2025-03-23 17:47:53.174,-0.23838962147329856
2025-03-23 17:47:53.182,-2.417342922763131
2025-03-23 17:47:53.182,-1.9590368833970586
2025-03-23 17:47:53.182,0.5034766540340128
2025-03-23 17:47:53.182,2.259056800774219
2025-03-23 17:47:53.182,1.7231917433687365
2025-03-23 17:47:53.192,-0.1170798335420769
2025-03-23 17:47:53.192,-1.337719355282526
2025-03-23 17:47:53.192,-1.2495990662171244
2025-03-23 17:47:53.192,-0.4634985166907408
2025-03-23 17:47:53.192,0.41517934998251455
2025-03-23 17:47:53.202,1.098818885319772
2025-03-23 17:47:53.202,0.9922308864780156
2025-03-23 17:47:53.202,-0.3464348609449133
2025-03-23 17:47:53.202,-1.871902531628975
2025-03-23 17:47:53.211,-1.5355535476833222
2025-03-23 17:47:53.212,1.0708209079358189
2025-03-23 17:47:53.212,3.4405808906690774
2025-03-23 17:47:53.212,2.577310356814908
2025-03-23 17:47:53.212,-1.4652181195583531
2025-03-23 17:47:53.212,-5.092250489788192
2025-03-23 17:47:53.222,-4.4321627226102995
2025-03-23 17:47:53.222,0.7206080095644216
2025-03-23 17:47:53.222,6.03044645325533
2025-03-23 17:47:53.222,6.237277057687902
2025-03-23 17:47:53.222,0.5478574454694591
2025-03-23 17:47:53.232,-5.79850749940152
2025-03-23 17:47:53.232,-6.527737419030618
2025-03-23 17:47:53.232,-1.1188398682511906
2025-03-23 17:47:53.232,4.564090562623936
2025-03-23 17:47:53.232,4.9301050878255035
2025-03-23 17:47:53.242,0.6892602374716656
2025-03-23 17:47:53.242,-2.851521163333734
2025-03-23 17:47:53.242,-2.438686889662347
2025-03-23 17:47:53.242,0.052899045680422085
2025-03-23 17:47:53.252,1.1174484773162743
2025-03-23 17:47:53.252,0.19282361352433106
2025-03-23 17:47:53.252,-0.5082559055360981
2025-03-23 17:47:53.252,0.2848259427840538
2025-03-23 17:47:53.252,1.1957025826812553
2025-03-23 17:47:53.261,0.5515718281365091
2025-03-23 17:47:53.261,-1.0011970372103014
2025-03-23 17:47:53.261,-1.4345171000118906
2025-03-23 17:47:53.262,-0.2609631803935551
2025-03-23 17:47:53.262,0.8949411243152914
2025-03-23 17:47:53.271,0.7041214129821375
2025-03-23 17:47:53.272,-0.17248243418457473
2025-03-23 17:47:53.272,-0.3629596620045156
2025-03-23 17:47:53.272,0.20130032886325872
2025-03-23 17:47:53.272,0.4620193272190857
2025-03-23 17:47:53.281,-0.03531729455656851
2025-03-23 17:47:53.282,-0.5582163763510819
2025-03-23 17:47:53.282,-0.3705653950765732
2025-03-23 17:47:53.282,0.23746957353887593
2025-03-23 17:47:53.282,0.4231661639043157
2025-03-23 17:47:53.290,-0.06901613224622384
2025-03-23 17:47:53.290,-0.5685008086149952
2025-03-23 17:47:53.290,-0.27511321883841655
2025-03-23 17:47:53.290,0.6654350600539263
2025-03-23 17:47:53.291,1.0641400535798664
2025-03-23 17:47:53.300,0.061608273017895225
2025-03-23 17:47:53.300,-1.4258670003289655
2025-03-23 17:47:53.300,-1.4032053895264223
2025-03-23 17:47:53.300,0.6061653256535817
2025-03-23 17:47:53.309,2.419964634293108
2025-03-23 17:47:53.310,1.5959170355295822
2025-03-23 17:47:53.310,-1.3607741689680741
2025-03-23 17:47:53.310,-3.271442657327613
2025-03-23 17:47:53.310,-1.954476359037353
2025-03-23 17:47:53.319,1.251844956907355
2025-03-23 17:47:53.320,3.1500430768311465
2025-03-23 17:47:53.320,2.259099257080449
2025-03-23 17:47:53.320,-0.03058689544210448
2025-03-23 17:47:53.320,-1.5892367401764453
2025-03-23 17:47:53.329,-1.8162490456574591
2025-03-23 17:47:53.330,-1.4231156438637937
2025-03-23 17:47:53.330,-0.7983426359625563
2025-03-23 17:47:53.330,0.38866222097584197
2025-03-23 17:47:53.330,1.9829792606970658
2025-03-23 17:47:53.339,2.7098870465501923
2025-03-23 17:47:53.339,1.4283062607633596
2025-03-23 17:47:53.340,-1.2540237193424497
2025-03-23 17:47:53.340,-3.2142176381008998
2025-03-23 17:47:53.340,-2.775084643602309
2025-03-23 17:47:53.349,-0.250440988372194
2025-03-23 17:47:53.350,2.3821746277628906
2025-03-23 17:47:53.350,3.1505723272950794
2025-03-23 17:47:53.350,1.5948986807495757
2025-03-23 17:47:53.350,-0.9799206221489307
2025-03-23 17:47:53.359,-2.5917127442465673
2025-03-23 17:47:53.360,-2.1319421834273893
2025-03-23 17:47:53.360,-0.1630570119987833
2025-03-23 17:47:53.360,1.6367690176377097
2025-03-23 17:47:53.360,1.8793362788008434
2025-03-23 17:47:53.368,0.5675881390812452
2025-03-23 17:47:53.368,-0.9801745171904902
2025-03-23 17:47:53.368,-1.3234858531593043
2025-03-23 17:47:53.368,-0.24833210811745926
2025-03-23 17:47:53.368,0.9698002065296847
2025-03-23 17:47:53.378,0.873639900488477
2025-03-23 17:47:53.378,-0.45166408076748055
2025-03-23 17:47:53.378,-1.3271054443667742
2025-03-23 17:47:53.378,-0.5371100305143297
2025-03-23 17:47:53.387,0.9940476135758297
2025-03-23 17:47:53.388,1.3481580082008229
2025-03-23 17:47:53.388,0.1950052063896859
2025-03-23 17:47:53.388,-0.8485540287571804
2025-03-23 17:47:53.388,-0.6099330332658268
2025-03-23 17:47:53.397,0.08407477501569736
2025-03-23 17:47:53.398,-0.03858454726173224
2025-03-23 17:47:53.398,-0.5843244939271018
2025-03-23 17:47:53.398,-0.1755544360818677
2025-03-23 17:47:53.398,1.1573570882628073
2025-03-23 17:47:53.408,1.6377074126669908
2025-03-23 17:47:53.408,0.1421737282072485
2025-03-23 17:47:53.408,-1.9903269378968438
2025-03-23 17:47:53.408,-2.29846841294685
2025-03-23 17:47:53.408,-0.12891034578443572
2025-03-23 17:47:53.417,2.389605411781082
2025-03-23 17:47:53.418,2.579314962620739
2025-03-23 17:47:53.418,0.18685143120209236
2025-03-23 17:47:53.418,-2.3022607749733055
2025-03-23 17:47:53.418,-2.411642321317642
2025-03-23 17:47:53.427,-0.3232202195091931
2025-03-23 17:47:53.428,1.5949487117392602
2025-03-23 17:47:53.428,1.6440301186549302
2025-03-23 17:47:53.428,0.48777300332456786
2025-03-23 17:47:53.428,-0.23626741057258505
2025-03-23 17:47:53.437,-0.25606348606214113
2025-03-23 17:47:53.438,-0.6290947944261311
2025-03-23 17:47:53.438,-1.5133191586427637
2025-03-23 17:47:53.438,-1.3707300717326951
2025-03-23 17:47:53.438,0.7298826244876663
2025-03-23 17:47:53.447,2.9913759193907863
2025-03-23 17:47:53.448,2.5951653698761246
2025-03-23 17:47:53.448,-0.5631500270039723
2025-03-23 17:47:53.448,-3.315474583878098
2025-03-23 17:47:53.448,-2.945426177683837
2025-03-23 17:47:53.457,-0.2753728843335129
2025-03-23 17:47:53.458,1.9006945794186683
2025-03-23 17:47:53.458,2.3765426011364132
2025-03-23 17:47:53.458,1.933284576088869
2025-03-23 17:47:53.458,0.8717294768371983
2025-03-23 17:47:53.467,-1.438844966839684
2025-03-23 17:47:53.468,-4.011019887637527
2025-03-23 17:47:53.468,-3.6942013004140613
2025-03-23 17:47:53.468,0.813600180066234
2025-03-23 17:47:53.468,5.6979142830249065
2025-03-23 17:47:53.477,5.375735324301516
2025-03-23 17:47:53.478,-0.6106386919602058
2025-03-23 17:47:53.478,-6.143273503178573
2025-03-23 17:47:53.478,-5.282208371889338
2025-03-23 17:47:53.478,0.7164812601680688
2025-03-23 17:47:53.487,4.946100796923439
2025-03-23 17:47:53.488,3.1836636864737717
2025-03-23 17:47:53.488,-1.3674471002813875
2025-03-23 17:47:53.488,-2.694195957849167
2025-03-23 17:47:53.488,0.2508211828841139
2025-03-23 17:47:53.497,2.6473609201671575
2025-03-23 17:47:53.498,0.6377672722064124
2025-03-23 17:47:53.498,-3.3416407740796603
2025-03-23 17:47:53.498,-3.7997628124710343
2025-03-23 17:47:53.498,0.40368996803590024
2025-03-23 17:47:53.506,4.441860735991042
2025-03-23 17:47:53.506,3.7841098185342865
2025-03-23 17:47:53.506,-0.23858136041379116
2025-03-23 17:47:53.507,-2.8838756796534444
2025-03-23 17:47:53.507,-2.395444120828454
2025-03-23 17:47:53.517,-1.1508809557766713
2025-03-23 17:47:53.518,-0.8069369370478591
2025-03-23 17:47:53.518,0.2727331012575295
2025-03-23 17:47:53.518,3.213249125300729
2025-03-23 17:47:53.518,5.019053830392053
2025-03-23 17:47:53.527,1.905858965024803
2025-03-23 17:47:53.527,-4.553034375490657
2025-03-23 17:47:53.528,-7.7664406988166625
2025-03-23 17:47:53.528,-3.620359355328817
2025-03-23 17:47:53.528,4.212666432746455
2025-03-23 17:47:53.536,7.975722625859521
2025-03-23 17:47:53.536,4.214052110569527
2025-03-23 17:47:53.536,-2.79418075196928
2025-03-23 17:47:53.536,-6.031034404114138
2025-03-23 17:47:53.536,-3.175373748136596
2025-03-23 17:47:53.546,1.6387775244079348
2025-03-23 17:47:53.546,3.127881903237305
2025-03-23 17:47:53.546,0.7916689350579632
2025-03-23 17:47:53.546,-1.3187136970894562
2025-03-23 17:47:53.555,-0.29351011660429505
2025-03-23 17:47:53.556,1.8641993521801068
2025-03-23 17:47:53.556,1.282788053469375
2025-03-23 17:47:53.556,-2.03405308692986
2025-03-23 17:47:53.556,-3.732525368533022
2025-03-23 17:47:53.565,-0.8917367710733402
2025-03-23 17:47:53.566,3.6507383164339435
2025-03-23 17:47:53.566,4.476238145503441
2025-03-23 17:47:53.566,0.3270324730093056
2025-03-23 17:47:53.566,-4.252625582320766
2025-03-23 17:47:53.576,-4.3461351690062555
2025-03-23 17:47:53.576,-0.21473817074721807
2025-03-23 17:47:53.576,3.6090029306882823
2025-03-23 17:47:53.576,3.766603428864255
2025-03-23 17:47:53.576,1.0208993798607873
2025-03-23 17:47:53.585,-1.891201997282461
2025-03-23 17:47:53.586,-3.296690621821088
2025-03-23 17:47:53.586,-2.781074265966443
2025-03-23 17:47:53.586,-0.2870890034308231
2025-03-23 17:47:53.586,3.166752270631972
2025-03-23 17:47:53.595,4.7966950638227255
2025-03-23 17:47:53.596,2.2767544927646908
2025-03-23 17:47:53.596,-2.923576334683591
2025-03-23 17:47:53.596,-5.947141628349222
2025-03-23 17:47:53.596,-3.474802506102521
2025-03-23 17:47:53.605,2.2492348437872254
2025-03-23 17:47:53.606,5.497939575564067
2025-03-23 17:47:53.606,3.3215176197218117
2025-03-23 17:47:53.606,-1.3605435026585484
2025-03-23 17:47:53.606,-3.558593343278325
2025-03-23 17:47:53.615,-1.9918657999369989
2025-03-23 17:47:53.616,0.3769451458107589
2025-03-23 17:47:53.616,0.9641309130322226
2025-03-23 17:47:53.616,0.5141073979108355
2025-03-23 17:47:53.616,0.7748215116014499
2025-03-23 17:47:53.625,1.2541922018144314
2025-03-23 17:47:53.625,0.2090707700490495
2025-03-23 17:47:53.626,-1.953131445529094
2025-03-23 17:47:53.626,-2.4795864997459662
2025-03-23 17:47:53.626,-0.02358291766903438
2025-03-23 17:47:53.635,2.933818557351502
2025-03-23 17:47:53.636,2.747261495679306
2025-03-23 17:47:53.636,-0.7202158581762304
2025-03-23 17:47:53.636,-3.501097537218643
2025-03-23 17:47:53.636,-2.2287831812119383
2025-03-23 17:47:53.644,1.5507609494559491
2025-03-23 17:47:53.644,3.182508737926411
2025-03-23 17:47:53.644,0.8249251410992245
2025-03-23 17:47:53.644,-2.193225622527859
2025-03-23 17:47:53.645,-1.8108228039355967
2025-03-23 17:47:53.654,1.3528858806850406
2025-03-23 17:47:53.654,2.7971682895497305
2025-03-23 17:47:53.654,0.13691916792262107
2025-03-23 17:47:53.654,-3.5443027630836172
2025-03-23 17:47:53.655,-3.439739389406064
2025-03-23 17:47:53.664,0.8371941618138851
2025-03-23 17:47:53.664,4.5800626667309485
2025-03-23 17:47:53.664,3.66452467031126
2025-03-23 17:47:53.664,-0.665392746955519
2025-03-23 17:47:53.665,-3.711396166643761
2025-03-23 17:47:53.675,-2.9711639713299802
2025-03-23 17:47:53.676,-0.32259911225495935
2025-03-23 17:47:53.676,1.2152629976268932
2025-03-23 17:47:53.676,1.2117576715543077
2025-03-23 17:47:53.676,1.3418083431354755
2025-03-23 17:47:53.684,2.045818538643996
2025-03-23 17:47:53.684,1.414467916017388
2025-03-23 17:47:53.684,-1.8101221280581072
2025-03-23 17:47:53.684,-5.182150013685227
2025-03-23 17:47:53.685,-4.340275898872369
2025-03-23 17:47:53.695,1.5355136659430273
2025-03-23 17:47:53.695,7.325211399741955
2025-03-23 17:47:53.696,6.689450507703403
2025-03-23 17:47:53.696,-0.6536007558473975
2025-03-23 17:47:53.696,-7.743518300242103
2025-03-23 17:47:53.705,-7.496653644338553
2025-03-23 17:47:53.706,-0.3806425476912383
2025-03-23 17:47:53.706,6.240196548754412
2025-03-23 17:47:53.706,6.288568391601027
2025-03-23 17:47:53.706,1.0759323308593416
2025-03-23 17:47:53.715,-3.3602103643801073
2025-03-23 17:47:53.716,-3.5420125221484673
2025-03-23 17:47:53.716,-1.3287898521874348
2025-03-23 17:47:53.716,0.12072850005423202
2025-03-23 17:47:53.716,0.5437247692334591
2025-03-23 17:47:53.724,1.3734485788358521
2025-03-23 17:47:53.724,2.263173546586696
2025-03-23 17:47:53.724,1.3618450281865488
2025-03-23 17:47:53.724,-1.2843604757262004
2025-03-23 17:47:53.725,-2.967601572934165
2025-03-23 17:47:53.735,-1.710698204505969
2025-03-23 17:47:53.736,1.0710757633664705
2025-03-23 17:47:53.736,2.334740194087125
2025-03-23 17:47:53.736,1.0340589339930535
2025-03-23 17:47:53.736,-1.0134734603421978
2025-03-23 17:47:53.744,-1.544030844871194
2025-03-23 17:47:53.744,-0.24438693255173055
2025-03-23 17:47:53.744,1.308919011623347
2025-03-23 17:47:53.744,1.4628581844745046
2025-03-23 17:47:53.753,0.013334102443771104
2025-03-23 17:47:53.754,-1.7044110292238184
2025-03-23 17:47:53.754,-2.029079173014508
2025-03-23 17:47:53.754,-0.49844686498154
2025-03-23 17:47:53.754,1.651163301696025
2025-03-23 17:47:53.763,2.5792204223928517
2025-03-23 17:47:53.764,1.4893003247213332
2025-03-23 17:47:53.764,-0.7826623543444684
2025-03-23 17:47:53.764,-2.561996823828537
2025-03-23 17:47:53.764,-2.511128734564392
2025-03-23 17:47:53.774,-0.4657436509640814
2025-03-23 17:47:53.774,2.1560611803736944
2025-03-23 17:47:53.774,2.961727538625989
2025-03-23 17:47:53.774,0.7798766702184291
2025-03-23 17:47:53.774,-2.3353078906642355
2025-03-23 17:47:53.783,-2.6045946265669713
2025-03-23 17:47:53.784,0.8210831525592136
2025-03-23 17:47:53.784,3.813502033606037
2025-03-23 17:47:53.784,1.8522650674703798
2025-03-23 17:47:53.784,-3.6440158529198525
2025-03-23 17:47:53.793,-6.0132376571091894
2025-03-23 17:47:53.794,-1.4072187645558731
2025-03-23 17:47:53.794,5.783411762127758
2025-03-23 17:47:53.794,7.584478692048686
2025-03-23 17:47:53.794,1.7393993387657896
2025-03-23 17:47:53.803,-5.770779220378301
2025-03-23 17:47:53.804,-7.639719193819228
2025-03-23 17:47:53.804,-2.80830572507588
2025-03-23 17:47:53.804,3.5882913748438714
2025-03-23 17:47:53.804,6.209553829184666
2025-03-23 17:47:53.812,3.9804397015575472
2025-03-23 17:47:53.812,-0.49157168389175687
2025-03-23 17:47:53.812,-3.941473765569314
2025-03-23 17:47:53.812,-4.453945001933582
2025-03-23 17:47:53.822,-1.9702069291361073
2025-03-23 17:47:53.822,1.7656947518439918
2025-03-23 17:47:53.822,3.989469786592499
2025-03-23 17:47:53.822,2.910102910602091
2025-03-23 17:47:53.822,-0.4611212908464386
2025-03-23 17:47:53.832,-2.983914644308003
2025-03-23 17:47:53.832,-2.450659910822307
2025-03-23 17:47:53.832,0.19061776113458712
2025-03-23 17:47:53.832,2.009336716573589
2025-03-23 17:47:53.832,1.3208600642982304
2025-03-23 17:47:53.832,-0.6557266510078433
2025-03-23 17:47:53.842,-1.429911369965809
2025-03-23 17:47:53.842,-0.18060711077109814
2025-03-23 17:47:53.842,1.3782228798046903
2025-03-23 17:47:53.842,1.1836332014349933
2025-03-23 17:47:53.851,-0.5773276604215584
2025-03-23 17:47:53.852,-1.6931027149241913
2025-03-23 17:47:53.852,-0.7848674944506348
2025-03-23 17:47:53.852,0.8611540657383726
2025-03-23 17:47:53.852,1.0373012461178355
2025-03-23 17:47:53.862,-0.2846250915840013
2025-03-23 17:47:53.862,-0.8766704036420837
2025-03-23 17:47:53.862,0.4466791566528402
2025-03-23 17:47:53.862,1.840445908680601
2025-03-23 17:47:53.862,0.8969911427378172
2025-03-23 17:47:53.872,-1.7487456951665097
2025-03-23 17:47:53.872,-2.9306102938335155
2025-03-23 17:47:53.872,-1.079124555325237
2025-03-23 17:47:53.872,1.7298061129374018
2025-03-23 17:47:53.872,2.596542071651824
2025-03-23 17:47:53.881,1.4110054581463054
2025-03-23 17:47:53.882,0.19449522344343173
2025-03-23 17:47:53.882,-0.43717111353263427
2025-03-23 17:47:53.882,-1.8386486911587723
2025-03-23 17:47:53.882,-3.8130959314665454
2025-03-23 17:47:53.891,-3.112818887659532
2025-03-23 17:47:53.892,2.115620557867407
2025-03-23 17:47:53.892,7.720563622008042
2025-03-23 17:47:53.892,6.7982814584810365
2025-03-23 17:47:53.892,-1.6274598132654432
2025-03-23 17:47:53.901,-9.776229283463373
2025-03-23 17:47:53.902,-9.051444702180339
2025-03-23 17:47:53.902,0.1910220894047156
2025-03-23 17:47:53.902,8.81161083026936
2025-03-23 17:47:53.902,8.798387617765272
2025-03-23 17:47:53.911,1.3592043108868648
2025-03-23 17:47:53.912,-5.507521771874129
2025-03-23 17:47:53.912,-6.110334133605453
2025-03-23 17:47:53.912,-2.0685862636085437
2025-03-23 17:47:53.912,1.4506179541635955
2025-03-23 17:47:53.921,2.1940929682694437
2025-03-23 17:47:53.922,1.8545043176960814
2025-03-23 17:47:53.922,1.902694826373506
2025-03-23 17:47:53.922,1.2323874891688318
2025-03-23 17:47:53.922,-1.22361380663513
2025-03-23 17:47:53.931,-3.61841393566743
2025-03-23 17:47:53.932,-2.9281724644941405
2025-03-23 17:47:53.932,0.8439513913933202
2025-03-23 17:47:53.932,3.8621515014640684
2025-03-23 17:47:53.932,2.64326069969687
2025-03-23 17:47:53.941,-1.5516814789618247
2025-03-23 17:47:53.942,-3.6936919460614477
2025-03-23 17:47:53.942,-0.8933626896792505
2025-03-23 17:47:53.942,3.603137939573894
2025-03-23 17:47:53.942,3.861203668287407
2025-03-23 17:47:53.950,-1.27272071547776
2025-03-23 17:47:53.950,-6.011603358798102
2025-03-23 17:47:53.950,-4.264694265881104
2025-03-23 17:47:53.950,2.7076879196980053
2025-03-23 17:47:53.951,7.324015481909325
2025-03-23 17:47:53.960,4.428574423859057
2025-03-23 17:47:53.960,-2.847594594383245
2025-03-23 17:47:53.960,-6.909930415698888
2025-03-23 17:47:53.960,-4.1381959217445825
2025-03-23 17:47:53.969,1.906173424618114
2025-03-23 17:47:53.970,5.207605272491911
2025-03-23 17:47:53.970,3.579356227576616
2025-03-23 17:47:53.970,-0.3271586311660857
2025-03-23 17:47:53.970,-2.9554307388116365
2025-03-23 17:47:53.980,-3.1316437317966477
2025-03-23 17:47:53.980,-1.5878812529228274
2025-03-23 17:47:53.980,0.7989414942219899
2025-03-23 17:47:53.980,2.9971355045919226
2025-03-23 17:47:53.980,3.279259963406989
2025-03-23 17:47:53.989,0.7136521969506532
2025-03-23 17:47:53.990,-2.8314059291666314
2025-03-23 17:47:53.990,-3.90561240394349
2025-03-23 17:47:53.990,-1.361179143564436
2025-03-23 17:47:53.990,2.1069883778582663
2025-03-23 17:47:53.999,3.0828325566995236
2025-03-23 17:47:54.000,1.2489973848786329
2025-03-23 17:47:54.000,-0.8600526518831043
2025-03-23 17:47:54.000,-1.3095878932151148
2025-03-23 17:47:54.000,-0.646731108729004
2025-03-23 17:47:54.010,-0.2948592201629915
2025-03-23 17:47:54.010,-0.3911052835369358
2025-03-23 17:47:54.010,-0.0482946862247387
2025-03-23 17:47:54.010,0.8825981694100234
2025-03-23 17:47:54.010,1.3364621832326773
2025-03-23 17:47:54.019,0.44701359848461475
2025-03-23 17:47:54.020,-1.114424925183184
2025-03-23 17:47:54.020,-1.6363419592355866
2025-03-23 17:47:54.020,-0.29857368614488977
2025-03-23 17:47:54.020,1.574154802145539
2025-03-23 17:47:54.028,1.6842725013175828
2025-03-23 17:47:54.028,-0.46397911660577523
2025-03-23 17:47:54.028,-2.4634845262071923
2025-03-23 17:47:54.028,-1.5990952262795881
2025-03-23 17:47:54.029,1.533546880664914
2025-03-23 17:47:54.038,3.25256838671639
2025-03-23 17:47:54.038,1.269265717763128
2025-03-23 17:47:54.038,-2.180964904283265
2025-03-23 17:47:54.038,-3.0196785705763256
2025-03-23 17:47:54.047,-0.5486377526528639
2025-03-23 17:47:54.048,1.820775555206242
2025-03-23 17:47:54.048,1.3313048711233055
2025-03-23 17:47:54.048,-0.5402115785182857
2025-03-23 17:47:54.048,-0.6290570502998802
2025-03-23 17:47:54.057,1.1218732352816352
2025-03-23 17:47:54.058,1.641982530941456
2025-03-23 17:47:54.058,-0.5719407191139076
2025-03-23 17:47:54.058,-2.978118634222823
2025-03-23 17:47:54.058,-2.326650090762563
2025-03-23 17:47:54.068,0.9647025584979728
2025-03-23 17:47:54.068,3.34700185536944
2025-03-23 17:47:54.068,2.4711046717303398
2025-03-23 17:47:54.068,-0.44853975588221096
2025-03-23 17:47:54.068,-2.501021283563746
2025-03-23 17:47:54.078,-2.135650457182883
2025-03-23 17:47:54.078,-0.1694394851193466
2025-03-23 17:47:54.078,1.4008182974617853
2025-03-23 17:47:54.078,1.2772256929465093
2025-03-23 17:47:54.078,0.0008388180770903947
2025-03-23 17:47:54.086,-0.6921133317330093
2025-03-23 17:47:54.086,0.0420548245494476
2025-03-23 17:47:54.086,0.9811197522376605
2025-03-23 17:47:54.086,0.40281949038137366
2025-03-23 17:47:54.096,-1.378026635140233
2025-03-23 17:47:54.096,-2.056163615485724
2025-03-23 17:47:54.096,-0.2778802931814619
2025-03-23 17:47:54.096,2.296281684706506
2025-03-23 17:47:54.096,2.6860225423755093
2025-03-23 17:47:54.106,0.13648965439310948
2025-03-23 17:47:54.106,-2.783682780670631
2025-03-23 17:47:54.106,-2.938612190815874
2025-03-23 17:47:54.106,-0.11624889229145355
2025-03-23 17:47:54.106,2.7424976766117912
2025-03-23 17:47:54.116,2.8262744096852135
2025-03-23 17:47:54.116,0.428256617637945
2025-03-23 17:47:54.116,-1.7650516545482313
2025-03-23 17:47:54.116,-1.9353342793942225
2025-03-23 17:47:54.116,-0.808029896137888
2025-03-23 17:47:54.125,0.019787355151681188
2025-03-23 17:47:54.126,0.30830226023298196
2025-03-23 17:47:54.126,0.7943920447434178
2025-03-23 17:47:54.126,1.331975921639509
2025-03-23 17:47:54.126,0.9526724567311422
2025-03-23 17:47:54.135,-0.2641358201543704
2025-03-23 17:47:54.136,-1.0045197363547234
2025-03-23 17:47:54.136,-0.8167557283024898
2025-03-23 17:47:54.136,-0.7593886830904757
2025-03-23 17:47:54.136,-1.164220425491702
2025-03-23 17:47:54.145,-0.494701989599306
2025-03-23 17:47:54.146,2.019246040922628
2025-03-23 17:47:54.146,3.9325438513987576
2025-03-23 17:47:54.146,2.0510645265032577
2025-03-23 17:47:54.146,-2.8066365044496866
2025-03-23 17:47:54.155,-5.6928810163854875
2025-03-23 17:47:54.156,-3.127466069920318
2025-03-23 17:47:54.156,2.5419473936399477
2025-03-23 17:47:54.156,5.670259568834258
2025-03-23 17:47:54.156,3.530014657371642
2025-03-23 17:47:54.164,-1.2860461132245669
2025-03-23 17:47:54.164,-4.323460663389879
2025-03-23 17:47:54.164,-3.6456120773020806
2025-03-23 17:47:54.164,-0.5432109505516867
2025-03-23 17:47:54.165,2.586555331843426
2025-03-23 17:47:54.174,3.913401115301871
2025-03-23 17:47:54.174,2.5758424844165377
2025-03-23 17:47:54.174,-0.8783588797352304
2025-03-23 17:47:54.174,-4.093064839623847
2025-03-23 17:47:54.175,-4.228697669924366
2025-03-23 17:47:54.184,-0.7714506322047733
2025-03-23 17:47:54.184,3.3804740759686642
2025-03-23 17:47:54.184,4.571143911443545
2025-03-23 17:47:54.184,2.104344935609241
2025-03-23 17:47:54.185,-1.3742699688489415
2025-03-23 17:47:54.194,-3.095048608835279
2025-03-23 17:47:54.194,-2.721120708238764
2025-03-23 17:47:54.194,-1.3789904216120634
2025-03-23 17:47:54.194,0.4641784751488621
2025-03-23 17:47:54.195,2.666551435726271
2025-03-23 17:47:54.204,3.707346108993072
2025-03-23 17:47:54.204,1.667670900145893
2025-03-23 17:47:54.204,-2.431080256043375
2025-03-23 17:47:54.204,-4.413830798002205
2025-03-23 17:47:54.214,-1.8243227760031726
2025-03-23 17:47:54.214,2.358696341577296
2025-03-23 17:47:54.214,3.135364677335908
2025-03-23 17:47:54.214,0.0052593136646582606
2025-03-23 17:47:54.215,-2.496018816472169
2025-03-23 17:47:54.215,-1.0519563613544227
2025-03-23 17:47:54.224,2.224392090868851
2025-03-23 17:47:54.224,3.0388620281390955
2025-03-23 17:47:54.224,0.3241898074538814
2025-03-23 17:47:54.224,-3.2042879581469665
2025-03-23 17:47:54.234,-4.397113610267291
2025-03-23 17:47:54.234,-2.0597694526116066
2025-03-23 17:47:54.234,2.579554109040116
2025-03-23 17:47:54.234,6.124681249243111
2025-03-23 17:47:54.234,5.001222066668194
2025-03-23 17:47:54.235,-0.815083758983723
2025-03-23 17:47:54.244,-6.599265410068443
2025-03-23 17:47:54.244,-7.0580463191556255
2025-03-23 17:47:54.244,-1.6871964461788047
2025-03-23 17:47:54.244,4.860144568300006
2025-03-23 17:47:54.254,7.342125420742341
2025-03-23 17:47:54.254,4.220551043536783
2025-03-23 17:47:54.254,-1.7395931325804175
2025-03-23 17:47:54.254,-5.936903793449795
2025-03-23 17:47:54.254,-5.417340556922118
2025-03-23 17:47:54.264,-1.1591414314575688
2025-03-23 17:47:54.264,2.962032718299425
2025-03-23 17:47:54.264,4.033967959709895
2025-03-23 17:47:54.264,2.633297852428552
2025-03-23 17:47:54.264,0.9954729648527796
2025-03-23 17:47:54.274,-0.32710087820853273
2025-03-23 17:47:54.274,-2.3342058687338523
2025-03-23 17:47:54.274,-4.437011744173834
2025-03-23 17:47:54.274,-3.7794719159972034
2025-03-23 17:47:54.274,0.9187418474107345
2025-03-23 17:47:54.283,6.111400917154171
2025-03-23 17:47:54.284,6.214987690001753
2025-03-23 17:47:54.284,0.1926292179996698
2025-03-23 17:47:54.284,-6.130712286863339
2025-03-23 17:47:54.284,-5.958139222001762
2025-03-23 17:47:54.293,0.46097051278193696
2025-03-23 17:47:54.294,5.538641172419108
2025-03-23 17:47:54.294,3.1886731710020753
2025-03-23 17:47:54.294,-3.44356805555102
2025-03-23 17:47:54.294,-5.4610555027177625
2025-03-23 17:47:54.302,0.5696339476977927
2025-03-23 17:47:54.302,7.651671431921397
2025-03-23 17:47:54.302,6.540496811505453
2025-03-23 17:47:54.303,-2.7286441769938454
2025-03-23 17:47:54.303,-10.412666814788787
2025-03-23 17:47:54.312,-8.27395347346758
2025-03-23 17:47:54.312,1.3858846272069778
2025-03-23 17:47:54.312,9.1498316262369
2025-03-23 17:47:54.313,8.907233140181592
2025-03-23 17:47:54.321,2.673756523041999
2025-03-23 17:47:54.322,-3.788400168502571
2025-03-23 17:47:54.322,-6.926172728955705
2025-03-23 17:47:54.322,-6.264410773831635
2025-03-23 17:47:54.322,-2.406436209183883
2025-03-23 17:47:54.332,3.010514532713274
2025-03-23 17:47:54.332,6.504908623408044
2025-03-23 17:47:54.332,5.07987203269225
2025-03-23 17:47:54.332,0.08211438289923553
2025-03-23 17:47:54.332,-3.425604915848587
2025-03-23 17:47:54.341,-2.4508535918061605
2025-03-23 17:47:54.342,0.22322164448954274
2025-03-23 17:47:54.342,-0.12545646592738566
2025-03-23 17:47:54.342,-3.3766873810567186
2025-03-23 17:47:54.342,-4.091244635887609
2025-03-23 17:47:54.351,1.230214489550529
2025-03-23 17:47:54.352,8.309461680930124
2025-03-23 17:47:54.352,8.953236687558944
2025-03-23 17:47:54.352,0.7785977979996681
2025-03-23 17:47:54.352,-9.070130367703428
2025-03-23 17:47:54.361,-11.248038981684893
2025-03-23 17:47:54.362,-4.144553481558605
2025-03-23 17:47:54.362,5.0715004371840795
2025-03-23 17:47:54.362,8.727797682612719
2025-03-23 17:47:54.362,5.911155341196929
2025-03-23 17:47:54.370,1.1391643787338572
2025-03-23 17:47:54.370,-1.970704775208177
2025-03-23 17:47:54.370,-3.6885878387854616
2025-03-23 17:47:54.370,-5.3857997880752135
2025-03-23 17:47:54.380,-5.930749469890456
2025-03-23 17:47:54.380,-2.4951176849423367
2025-03-23 17:47:54.380,4.937634218237904
2025-03-23 17:47:54.380,11.181579096721165
2025-03-23 17:47:54.380,9.735936478962657
2025-03-23 17:47:54.389,-0.20871733130860948
2025-03-23 17:47:54.390,-11.417360797608959
2025-03-23 17:47:54.390,-14.375114864878782
2025-03-23 17:47:54.390,-5.975274354101833
2025-03-23 17:47:54.390,7.252760804449159
2025-03-23 17:47:54.398,14.517072925744174
2025-03-23 17:47:54.398,10.047098566787371
2025-03-23 17:47:54.398,-1.8666091470024027
2025-03-23 17:47:54.398,-10.781630442019269
2025-03-23 17:47:54.408,-9.728634635835895
2025-03-23 17:47:54.408,-1.399242814594135
2025-03-23 17:47:54.408,5.470100142436142
2025-03-23 17:47:54.408,5.530054963151256
2025-03-23 17:47:54.408,1.4146988598113073
2025-03-23 17:47:54.418,-1.106333781588979
2025-03-23 17:47:54.418,-0.34660544530679693
2025-03-23 17:47:54.418,0.6535426388498298
2025-03-23 17:47:54.418,-0.6763483691290086
2025-03-23 17:47:54.418,-3.038885901644344
2025-03-23 17:47:54.428,-3.2025207209141806
2025-03-23 17:47:54.428,0.06447610394819489
2025-03-23 17:47:54.428,4.280867503763555
2025-03-23 17:47:54.428,5.155969942370659
2025-03-23 17:47:54.428,0.9252571595315235
2025-03-23 17:47:54.438,-4.781066221283081
2025-03-23 17:47:54.438,-5.825474201055831
2025-03-23 17:47:54.438,-0.5489056618146577
2025-03-23 17:47:54.438,5.418341445714417
2025-03-23 17:47:54.438,5.227236330163374
2025-03-23 17:47:54.448,-0.9425033588599838
2025-03-23 17:47:54.448,-5.908349115297143
2025-03-23 17:47:54.448,-4.045075607237244
2025-03-23 17:47:54.448,2.218236156870918
2025-03-23 17:47:54.448,5.687233182778144
2025-03-23 17:47:54.458,2.8784564447194496
2025-03-23 17:47:54.458,-2.5649398864075974
2025-03-23 17:47:54.458,-4.698823197696315
2025-03-23 17:47:54.458,-1.8804936376149821
2025-03-23 17:47:54.458,2.2136083762536654
2025-03-23 17:47:54.466,3.316763706970099
2025-03-23 17:47:54.466,1.0551161750165838
2025-03-23 17:47:54.466,-1.559162739303011
2025-03-23 17:47:54.467,-2.047861933422153
2025-03-23 17:47:54.467,-0.6720567318147722
2025-03-23 17:47:54.477,0.9218652790230251
2025-03-23 17:47:54.478,1.626934065118805
2025-03-23 17:47:54.478,1.0333566790084876
2025-03-23 17:47:54.478,-0.7263871584399525
2025-03-23 17:47:54.478,-2.333942510636906
2025-03-23 17:47:54.487,-1.882416481610281
2025-03-23 17:47:54.488,0.6702404426219505
2025-03-23 17:47:54.488,2.8381637046495065
2025-03-23 17:47:54.488,2.58018086029001
2025-03-23 17:47:54.488,0.633305323233055
2025-03-23 17:47:54.496,-1.2909168774500672
2025-03-23 17:47:54.496,-2.818309524402202
2025-03-23 17:47:54.496,-3.6531317362082047
2025-03-23 17:47:54.496,-2.0576306474303805
2025-03-23 17:47:54.497,2.531563962209369
2025-03-23 17:47:54.506,6.525280642398474
2025-03-23 17:47:54.506,5.113396255910543
2025-03-23 17:47:54.506,-1.5260040341415626
2025-03-23 17:47:54.506,-7.309933525290743
2025-03-23 17:47:54.516,-6.5012516517416845
2025-03-23 17:47:54.516,0.16460383248960725
2025-03-23 17:47:54.516,6.247244852628873
2025-03-23 17:47:54.516,6.154142352482449
2025-03-23 17:47:54.517,0.6193853798045211
2025-03-23 17:47:54.517,-4.452698614548187
2025-03-23 17:47:54.526,-4.471468475357217
2025-03-23 17:47:54.526,-0.7131182592247646
2025-03-23 17:47:54.526,2.1645841411925275
2025-03-23 17:47:54.527,2.0331408282274857
2025-03-23 17:47:54.527,0.8810350640325051
2025-03-23 17:47:54.536,0.7485082191064831
2025-03-23 17:47:54.536,0.5938481875518609
2025-03-23 17:47:54.536,-1.3345596808749096
2025-03-23 17:47:54.536,-3.6644721982374198
2025-03-23 17:47:54.537,-2.926593166700743
2025-03-23 17:47:54.546,1.4860248407467347
2025-03-23 17:47:54.546,5.414867605634358
2025-03-23 17:47:54.546,4.337556705253691
2025-03-23 17:47:54.546,-1.0739522910524917
2025-03-23 17:47:54.556,-5.310797723480027
2025-03-23 17:47:54.556,-4.216637527755326
2025-03-23 17:47:54.556,0.43346407191192854
2025-03-23 17:47:54.556,3.501537055267356
2025-03-23 17:47:54.557,2.6562587122926753
2025-03-23 17:47:54.566,0.23520071308848842
2025-03-23 17:47:54.566,-0.8183582196243481
2025-03-23 17:47:54.566,-0.6093658327818093
2025-03-23 17:47:54.566,-0.8120905708024746
2025-03-23 17:47:54.566,-1.374422518624615
2025-03-23 17:47:54.576,-0.8211385384616433
2025-03-23 17:47:54.576,0.8197278524906019
2025-03-23 17:47:54.576,1.6809517714091862
2025-03-23 17:47:54.576,0.9434831783285479
2025-03-23 17:47:54.576,0.040444049640001575
2025-03-23 17:47:54.586,0.13108745089995483
2025-03-23 17:47:54.586,0.1976144783745377
2025-03-23 17:47:54.586,-0.9493045731115765
2025-03-23 17:47:54.586,-2.2218299901669094
2025-03-23 17:47:54.586,-1.6437737221089759
2025-03-23 17:47:54.596,0.5904720763505108
2025-03-23 17:47:54.596,2.259701672440385
2025-03-23 17:47:54.596,2.072489893100747
2025-03-23 17:47:54.596,0.8684742816493076
2025-03-23 17:47:54.596,-0.19599237996039168
2025-03-23 17:47:54.606,-1.0697188710400471
2025-03-23 17:47:54.606,-1.8333441830331128
2025-03-23 17:47:54.606,-1.7113760160224172
2025-03-23 17:47:54.606,-0.25095346727488455
2025-03-23 17:47:54.606,1.351995710905667
2025-03-23 17:47:54.616,1.533402792275561
2025-03-23 17:47:54.616,0.6126355157985437
2025-03-23 17:47:54.616,0.2429131476039294
2025-03-23 17:47:54.616,0.6164223741018382
2025-03-23 17:47:54.616,0.012778387635453498
2025-03-23 17:47:54.626,-2.1288749783273593
2025-03-23 17:47:54.626,-3.3810796941181755
2025-03-23 17:47:54.626,-1.1764723331246754
2025-03-23 17:47:54.626,3.3205715906353346
2025-03-23 17:47:54.626,5.804510651974485
2025-03-23 17:47:54.635,3.267182852261505
2025-03-23 17:47:54.636,-2.8912908333163694
2025-03-23 17:47:54.636,-7.779813368974421
2025-03-23 17:47:54.636,-6.707934090453772
2025-03-23 17:47:54.636,0.6727124987221403
2025-03-23 17:47:54.644,8.801400107503417
2025-03-23 17:47:54.644,10.149679867176047
2025-03-23 17:47:54.644,2.6075511313849455
