timestamp,bandpass_and_notch
2025-03-24 17:07:07.898,0.42772027053763706
2025-03-24 17:07:07.898,-13.41313169700215
2025-03-24 17:07:07.898,-11.938361725738583
2025-03-24 17:07:07.899,1.7731365106575998
2025-03-24 17:07:08.900,9.871647239066258
2025-03-24 17:07:09.471,5.721344376688267
2025-03-24 17:07:09.471,1.7302490342010284
2025-03-24 17:07:09.471,2.7869757791888663
2025-03-24 17:07:09.471,-4.095841801612824
2025-03-24 17:07:09.480,-20.381187156424087
2025-03-24 17:07:09.480,-21.621533620812578
2025-03-24 17:07:09.481,8.456719778511163
2025-03-24 17:07:09.481,44.8408038464607
2025-03-24 17:07:09.481,42.985408870712426
2025-03-24 17:07:09.489,-6.410026152419647
2025-03-24 17:07:09.489,-58.58016544328389
2025-03-24 17:07:09.489,-59.88918108493613
2025-03-24 17:07:09.489,-6.947163904357325
2025-03-24 17:07:09.497,49.44736105396351
2025-03-24 17:07:09.497,59.12743347761047
2025-03-24 17:07:09.497,21.43577696437484
2025-03-24 17:07:09.497,-23.350916280590127
2025-03-24 17:07:09.497,-40.23882316624699
2025-03-24 17:07:09.506,-27.301274437232816
2025-03-24 17:07:09.507,-3.76867613866043
2025-03-24 17:07:09.507,14.388616794889764
2025-03-24 17:07:09.507,22.25568912475575
2025-03-24 17:07:09.515,19.508789317023435
2025-03-24 17:07:09.515,7.072690675182543
2025-03-24 17:07:09.515,-9.496114208734399
2025-03-24 17:07:09.515,-19.889874885043678
2025-03-24 17:07:09.524,-16.638332645383827
2025-03-24 17:07:09.525,-2.532252892831233
2025-03-24 17:07:09.525,11.167102096189334
2025-03-24 17:07:09.525,14.619126861621048
2025-03-24 17:07:09.525,7.500142400983762
2025-03-24 17:07:09.534,-2.3954118185610143
2025-03-24 17:07:09.534,-7.420916129395759
2025-03-24 17:07:09.535,-6.052509076649787
2025-03-24 17:07:09.535,-1.7401764220607396
2025-03-24 17:07:09.535,1.7103879550573844
2025-03-24 17:07:09.544,2.6686624213162147
2025-03-24 17:07:09.544,1.3795095442593883
2025-03-24 17:07:09.545,-0.7295660154737875
2025-03-24 17:07:09.545,-1.521862058151039
2025-03-24 17:07:09.545,0.3067907331030315
2025-03-24 17:07:09.554,3.2306264402717315
2025-03-24 17:07:09.554,3.45962040972164
2025-03-24 17:07:09.554,-0.9642947956200044
2025-03-24 17:07:09.555,-6.600499579349429
2025-03-24 17:07:09.555,-6.814911874032746
2025-03-24 17:07:09.563,0.845617044420723
2025-03-24 17:07:09.563,9.933382838340977
2025-03-24 17:07:09.563,10.180288460913735
2025-03-24 17:07:09.563,-0.9747715308398122
2025-03-24 17:07:09.572,-13.297001197828315
2025-03-24 17:07:09.572,-13.161506059925307
2025-03-24 17:07:09.573,1.1757537189205833
2025-03-24 17:07:09.573,15.924479485398939
2025-03-24 17:07:09.573,15.486121342665866
2025-03-24 17:07:09.580,-0.547617589184837
2025-03-24 17:07:09.581,-16.106911070762838
2025-03-24 17:07:09.581,-15.5172606133401
2025-03-24 17:07:09.581,-0.3978965817468634
2025-03-24 17:07:09.590,12.749573610549158
2025-03-24 17:07:09.590,11.574354202748221
2025-03-24 17:07:09.591,0.6258245019837348
2025-03-24 17:07:09.591,-6.7959168663349665
2025-03-24 17:07:09.591,-5.252279171404902
2025-03-24 17:07:09.600,-0.684934430346034
2025-03-24 17:07:09.601,0.6135309102575737
2025-03-24 17:07:09.601,-0.010754341416771507
2025-03-24 17:07:09.601,1.5181629631940536
2025-03-24 17:07:09.601,4.089587066947188
2025-03-24 17:07:09.610,2.9410477420691237
2025-03-24 17:07:09.610,-2.4793464733134183
2025-03-24 17:07:09.610,-6.638164244220968
2025-03-24 17:07:09.611,-4.762284087523792
2025-03-24 17:07:09.611,1.4646113689266664
2025-03-24 17:07:09.620,6.509184107204634
2025-03-24 17:07:09.620,6.920686581284035
2025-03-24 17:07:09.621,2.896893764378975
2025-03-24 17:07:09.621,-3.598273871911982
2025-03-24 17:07:09.621,-9.186284833643148
2025-03-24 17:07:09.630,-9.098977311638702
2025-03-24 17:07:09.630,-1.1489699086983596
2025-03-24 17:07:09.631,9.56337133322292
2025-03-24 17:07:09.631,13.395314320350302
2025-03-24 17:07:09.631,5.89101783432729
2025-03-24 17:07:09.639,-6.6877887671844665
2025-03-24 17:07:09.639,-13.232583721529116
2025-03-24 17:07:09.639,-8.547359954577594
2025-03-24 17:07:09.639,2.402081567826505
2025-03-24 17:07:09.648,9.82513222053944
2025-03-24 17:07:09.649,7.933485729877425
2025-03-24 17:07:09.649,-0.3640440739306571
2025-03-24 17:07:09.649,-6.571147029876623
2025-03-24 17:07:09.649,-4.960605135203088
2025-03-24 17:07:09.658,1.7666167810394537
2025-03-24 17:07:09.659,5.652807771087851
2025-03-24 17:07:09.659,2.213269314801349
2025-03-24 17:07:09.659,-4.732626967115004
2025-03-24 17:07:09.659,-7.064322204598208
2025-03-24 17:07:09.668,-1.0598037035316754
2025-03-24 17:07:09.669,7.762805747375896
2025-03-24 17:07:09.669,9.341737970724202
2025-03-24 17:07:09.669,0.19870964312232042
2025-03-24 17:07:09.669,-10.758057586759387
2025-03-24 17:07:09.678,-10.681992675977726
2025-03-24 17:07:09.678,1.8486517791766506
2025-03-24 17:07:09.678,13.239364290394125
2025-03-24 17:07:09.679,9.948475425872815
2025-03-24 17:07:09.679,-4.7463090819356255
2025-03-24 17:07:09.687,-13.807191418762375
2025-03-24 17:07:09.687,-6.859025794940417
2025-03-24 17:07:09.687,7.278339537244929
2025-03-24 17:07:09.687,11.791858391562062
2025-03-24 17:07:09.696,2.350166240351593
2025-03-24 17:07:09.697,-8.789297680476883
2025-03-24 17:07:09.697,-8.704717659437677
2025-03-24 17:07:09.697,1.327188865365927
2025-03-24 17:07:09.697,9.203132757685692
2025-03-24 17:07:09.706,6.832267676570781
2025-03-24 17:07:09.707,-2.134606880463573
2025-03-24 17:07:09.707,-8.360405525258777
2025-03-24 17:07:09.707,-6.811839995520395
2025-03-24 17:07:09.707,0.18627282509198512
2025-03-24 17:07:09.716,6.710838031246228
2025-03-24 17:07:09.716,7.741488016094723
2025-03-24 17:07:09.717,2.089738936578316
2025-03-24 17:07:09.717,-5.941327327519763
2025-03-24 17:07:09.717,-8.722020307059015
2025-03-24 17:07:09.726,-2.518813864194505
2025-03-24 17:07:09.726,7.0568493750561885
2025-03-24 17:07:09.727,9.637283072289522
2025-03-24 17:07:09.727,1.535459235650063
2025-03-24 17:07:09.727,-9.084006892609377
2025-03-24 17:07:09.736,-10.499258838622659
2025-03-24 17:07:09.736,-0.70985576296244
2025-03-24 17:07:09.737,9.813975125299418
2025-03-24 17:07:09.737,10.076830852965221
2025-03-24 17:07:09.737,1.0943534452457018
2025-03-24 17:07:09.745,-6.722055498071973
2025-03-24 17:07:09.745,-7.08109244482431
2025-03-24 17:07:09.745,-3.3868293665758458
2025-03-24 17:07:09.745,-0.5273145793509506
2025-03-24 17:07:09.745,2.2722059313395992
2025-03-24 17:07:09.755,6.681791621107759
2025-03-24 17:07:09.755,8.557225456884243
2025-03-24 17:07:09.755,2.415203519241895
2025-03-24 17:07:09.755,-8.636725010183474
2025-03-24 17:07:09.764,-13.435855058117912
2025-03-24 17:07:09.765,-5.429080382567463
2025-03-24 17:07:09.765,8.362608140709163
2025-03-24 17:07:09.765,14.114152382715748
2025-03-24 17:07:09.765,6.252324378687124
2025-03-24 17:07:09.774,-6.681864823101023
2025-03-24 17:07:09.775,-11.78441031646358
2025-03-24 17:07:09.775,-5.532426920209164
2025-03-24 17:07:09.775,3.9322544916003457
2025-03-24 17:07:09.775,7.314201746053582
2025-03-24 17:07:09.784,3.979633525690512
2025-03-24 17:07:09.784,-0.07579498436740759
2025-03-24 17:07:09.784,-1.2890761356061045
2025-03-24 17:07:09.785,-1.6338745250858508
2025-03-24 17:07:09.785,-3.115188550285211
2025-03-24 17:07:09.794,-3.7801208926867544
2025-03-24 17:07:09.794,-1.3567222696814207
2025-03-24 17:07:09.795,2.455760850768061
2025-03-24 17:07:09.795,4.370862085736936
2025-03-24 17:07:09.795,4.007134168529676
2025-03-24 17:07:09.803,2.826564177507569
2025-03-24 17:07:09.803,0.3093898428309585
2025-03-24 17:07:09.803,-4.774536139436183
2025-03-24 17:07:09.803,-9.476186557394705
2025-03-24 17:07:09.803,-7.422909053996151
2025-03-24 17:07:09.813,3.0084431338837843
2025-03-24 17:07:09.813,13.551729733416067
2025-03-24 17:07:09.813,12.919605478763678
2025-03-24 17:07:09.813,-0.24121584394401696
2025-03-24 17:07:09.821,-13.775215641754496
2025-03-24 17:07:09.821,-14.058070102156012
2025-03-24 17:07:09.821,-1.136883927303649
2025-03-24 17:07:09.821,11.068010256303717
2025-03-24 17:07:09.821,10.678140555068456
2025-03-24 17:07:09.830,0.8175923754620268
2025-03-24 17:07:09.831,-6.241676838425517
2025-03-24 17:07:09.831,-4.985231545220783
2025-03-24 17:07:09.831,-1.056952578061107
2025-03-24 17:07:09.840,-0.27158751027019223
2025-03-24 17:07:09.841,-0.31970578749235057
2025-03-24 17:07:09.841,3.0949865500900615
2025-03-24 17:07:09.841,7.049397365382119
2025-03-24 17:07:09.841,4.389137934484678
2025-03-24 17:07:09.850,-5.091291004167949
2025-03-24 17:07:09.851,-11.770615910080837
2025-03-24 17:07:09.851,-7.051780959381335
2025-03-24 17:07:09.851,5.199459781843091
2025-03-24 17:07:09.851,11.927551371046473
2025-03-24 17:07:09.860,6.298598743009594
2025-03-24 17:07:09.860,-3.9771014334903847
2025-03-24 17:07:09.861,-6.817903802698283
2025-03-24 17:07:09.861,-1.0924762359875677
2025-03-24 17:07:09.861,3.514064797516233
2025-03-24 17:07:09.870,0.6358315305015159
2025-03-24 17:07:09.870,-5.077685991499954
2025-03-24 17:07:09.871,-5.642748031924478
2025-03-24 17:07:09.871,0.16179371985856078
2025-03-24 17:07:09.871,6.990254759580506
2025-03-24 17:07:09.879,9.49308892111995
2025-03-24 17:07:09.879,5.809539807116477
2025-03-24 17:07:09.879,-2.6587961230619483
2025-03-24 17:07:09.879,-11.32160914647465
2025-03-24 17:07:09.888,-13.45245397840305
2025-03-24 17:07:09.889,-5.252432628107324
2025-03-24 17:07:09.889,8.621567269433843
2025-03-24 17:07:09.889,16.897917537067034
2025-03-24 17:07:09.889,11.748979823936581
2025-03-24 17:07:09.897,-2.845289260927203
2025-03-24 17:07:09.897,-14.273015634464393
2025-03-24 17:07:09.897,-13.359350298159507
2025-03-24 17:07:09.897,-2.5644226323708796
2025-03-24 17:07:09.906,7.809867850686565
2025-03-24 17:07:09.907,10.0997477231083
2025-03-24 17:07:09.907,5.0787345845681005
2025-03-24 17:07:09.907,-1.2679394465759604
2025-03-24 17:07:09.907,-4.408153814378923
2025-03-24 17:07:09.916,-4.189848353404238
2025-03-24 17:07:09.917,-2.723562556970695
2025-03-24 17:07:09.917,-1.0385258829401678
2025-03-24 17:07:09.917,1.4725234618344656
2025-03-24 17:07:09.917,4.405883729627034
2025-03-24 17:07:09.926,4.630433615255242
2025-03-24 17:07:09.926,-0.19862805360556296
2025-03-24 17:07:09.927,-6.205334840786199
2025-03-24 17:07:09.927,-5.494623906091836
2025-03-24 17:07:09.927,3.103117125177084
2025-03-24 17:07:09.936,9.286989983531729
2025-03-24 17:07:09.936,3.250976388480325
2025-03-24 17:07:09.937,-9.296458026872966
2025-03-24 17:07:09.937,-11.893475480396221
2025-03-24 17:07:09.937,1.0137330905192212
2025-03-24 17:07:09.944,14.677383740106992
2025-03-24 17:07:09.945,11.869984871440995
2025-03-24 17:07:09.945,-4.751690400459685
2025-03-24 17:07:09.945,-15.730809330814125
2025-03-24 17:07:09.954,-9.101001315220277
2025-03-24 17:07:09.954,6.025108091116586
2025-03-24 17:07:09.955,12.36080752480318
2025-03-24 17:07:09.955,4.981034464697307
2025-03-24 17:07:09.955,-5.551346897221344
2025-03-24 17:07:09.964,-7.553007075745134
2025-03-24 17:07:09.964,-0.7709938147768669
2025-03-24 17:07:09.965,5.587889392742462
2025-03-24 17:07:09.965,4.276774756162003
2025-03-24 17:07:09.965,-2.414606191746364
2025-03-24 17:07:09.974,-6.283315150152998
2025-03-24 17:07:09.975,-3.063234445948128
2025-03-24 17:07:09.975,3.0931398789291658
2025-03-24 17:07:09.975,5.358794157050086
2025-03-24 17:07:09.975,2.3995296785731584
2025-03-24 17:07:09.982,-1.2058073856893414
2025-03-24 17:07:09.983,-1.680242874593663
2025-03-24 17:07:09.983,-0.42790986836466643
2025-03-24 17:07:09.983,-0.9062620406663573
2025-03-24 17:07:09.993,-3.054237302515455
2025-03-24 17:07:09.993,-2.996595780112045
2025-03-24 17:07:09.993,1.4195186916087388
2025-03-24 17:07:09.993,6.4057395539429125
2025-03-24 17:07:09.993,5.656004084935853
2025-03-24 17:07:10.003,-1.4972149317674408
2025-03-24 17:07:10.003,-7.586435069775355
2025-03-24 17:07:10.003,-5.2730056159224805
2025-03-24 17:07:10.003,2.9567659042142176
2025-03-24 17:07:10.003,7.153562926873251
2025-03-24 17:07:10.012,2.45986908142625
2025-03-24 17:07:10.013,-4.849510819251069
2025-03-24 17:07:10.013,-5.952147521273827
2025-03-24 17:07:10.013,-0.39646479978243954
2025-03-24 17:07:10.013,4.895104799986425
2025-03-24 17:07:10.022,4.961374600596799
2025-03-24 17:07:10.023,1.1552565885084372
2025-03-24 17:07:10.023,-2.727096248740507
2025-03-24 17:07:10.023,-4.613748096489073
2025-03-24 17:07:10.023,-3.882955067086596
2025-03-24 17:07:10.032,-0.31745028526008495
2025-03-24 17:07:10.033,4.511043485882152
2025-03-24 17:07:10.033,6.599659282022737
2025-03-24 17:07:10.033,2.9761368678478863
2025-03-24 17:07:10.033,-4.127906766129308
2025-03-24 17:07:10.042,-8.315935862986828
2025-03-24 17:07:10.043,-5.036469285224795
2025-03-24 17:07:10.043,3.5844519590550643
2025-03-24 17:07:10.043,9.812217566221078
2025-03-24 17:07:10.043,6.881053661541971
2025-03-24 17:07:10.051,-3.789387071246694
2025-03-24 17:07:10.051,-12.099001787168348
2025-03-24 17:07:10.051,-8.59354618097993
2025-03-24 17:07:10.051,4.653940432231947
2025-03-24 17:07:10.052,14.619681715793924
2025-03-24 17:07:10.060,10.515770581245198
2025-03-24 17:07:10.061,-4.486887969348373
2025-03-24 17:07:10.061,-16.012252887368707
2025-03-24 17:07:10.061,-12.812447906047817
2025-03-24 17:07:10.069,2.207871657122476
2025-03-24 17:07:10.069,15.086333938325193
2025-03-24 17:07:10.069,14.335024405691346
2025-03-24 17:07:10.070,1.4099870469925446
2025-03-24 17:07:10.070,-11.482148110269842
2025-03-24 17:07:10.079,-13.292375645342878
2025-03-24 17:07:10.079,-4.081769729382272
2025-03-24 17:07:10.079,6.222398283857819
2025-03-24 17:07:10.079,8.560182426121365
2025-03-24 17:07:10.088,3.5541935713458472
2025-03-24 17:07:10.089,-1.120050478812744
2025-03-24 17:07:10.089,-1.0420616457952332
2025-03-24 17:07:10.089,0.2557971952621595
2025-03-24 17:07:10.089,-2.0812215883704006
2025-03-24 17:07:10.098,-6.096237609612808
2025-03-24 17:07:10.099,-5.159445884099779
2025-03-24 17:07:10.099,2.433686767953617
2025-03-24 17:07:10.099,9.713386010440331
2025-03-24 17:07:10.099,8.597646223939263
2025-03-24 17:07:10.108,-0.5276728763763211
2025-03-24 17:07:10.109,-8.893792406877782
2025-03-24 17:07:10.109,-8.892511785588608
2025-03-24 17:07:10.109,-1.8140855810891208
2025-03-24 17:07:10.109,4.785250838132436
2025-03-24 17:07:10.118,5.873720152130652
2025-03-24 17:07:10.118,2.9477670338292175
2025-03-24 17:07:10.119,-0.026012577836782055
2025-03-24 17:07:10.119,-1.4954799887501644
2025-03-24 17:07:10.119,-2.120324647258422
2025-03-24 17:07:10.128,-2.2405467365798644
2025-03-24 17:07:10.129,-1.5376307316658724
2025-03-24 17:07:10.129,-0.16408065107704012
2025-03-24 17:07:10.129,1.165697076601064
2025-03-24 17:07:10.129,1.8418123768229804
2025-03-24 17:07:10.138,1.6868132599104873
2025-03-24 17:07:10.138,1.0401881778480282
2025-03-24 17:07:10.139,0.4072967472048205
2025-03-24 17:07:10.139,-0.39453625970858053
2025-03-24 17:07:10.139,-1.964649070505798
2025-03-24 17:07:10.148,-3.483346647129448
2025-03-24 17:07:10.148,-2.6124049245355723
2025-03-24 17:07:10.149,1.1263947937984307
2025-03-24 17:07:10.149,4.329888896377197
2025-03-24 17:07:10.149,3.605068272482836
2025-03-24 17:07:10.157,0.4593343267348431
2025-03-24 17:07:10.157,-0.9489002650523712
2025-03-24 17:07:10.157,-0.42555375529474715
2025-03-24 17:07:10.157,-1.7528584930012883
2025-03-24 17:07:10.167,-5.155012769416681
2025-03-24 17:07:10.167,-4.79289991036235
2025-03-24 17:07:10.167,2.605744547143099
2025-03-24 17:07:10.167,10.26324145950932
2025-03-24 17:07:10.167,8.122105020959298
2025-03-24 17:07:10.176,-3.4422865348233325
2025-03-24 17:07:10.176,-12.086179159313374
2025-03-24 17:07:10.177,-7.888987371987385
2025-03-24 17:07:10.177,4.353414885867694
2025-03-24 17:07:10.177,10.838514890328582
2025-03-24 17:07:10.186,5.1857972161788135
2025-03-24 17:07:10.187,-4.864028243171249
2025-03-24 17:07:10.187,-7.719922219603917
2025-03-24 17:07:10.187,-1.5083201384789766
2025-03-24 17:07:10.187,5.071682264808825
2025-03-24 17:07:10.195,4.029770880524273
2025-03-24 17:07:10.195,-2.714409782035232
2025-03-24 17:07:10.195,-6.301215895692445
2025-03-24 17:07:10.195,-1.5764191512978714
2025-03-24 17:07:10.195,6.902461283039698
2025-03-24 17:07:10.205,9.670058519020964
2025-03-24 17:07:10.205,2.4005976780498206
2025-03-24 17:07:10.205,-9.172371665181977
2025-03-24 17:07:10.205,-14.161153854479537
2025-03-24 17:07:10.214,-6.634957557317125
2025-03-24 17:07:10.214,8.105154288418664
2025-03-24 17:07:10.215,17.06414718953554
2025-03-24 17:07:10.215,11.116679118466854
2025-03-24 17:07:10.215,-5.151376841733775
2025-03-24 17:07:10.223,-16.356505424111056
2025-03-24 17:07:10.223,-11.698813698885859
2025-03-24 17:07:10.223,3.1028999268932376
2025-03-24 17:07:10.223,12.192665117124662
2025-03-24 17:07:10.223,7.617359573914168
2025-03-24 17:07:10.233,-2.7935476474738943
2025-03-24 17:07:10.233,-6.594299360136011
2025-03-24 17:07:10.233,-1.7465272310010251
2025-03-24 17:07:10.233,3.04078563328886
2025-03-24 17:07:10.242,1.2175371731271607
2025-03-24 17:07:10.243,-3.2083551618782993
2025-03-24 17:07:10.243,-2.3386132830895816
2025-03-24 17:07:10.243,3.686825847245212
2025-03-24 17:07:10.243,6.2945763991667185
2025-03-24 17:07:10.253,0.46281819383225886
2025-03-24 17:07:10.253,-7.557668052163371
2025-03-24 17:07:10.253,-7.743392255610036
2025-03-24 17:07:10.253,1.0034349673952245
2025-03-24 17:07:10.253,9.40108764794701
2025-03-24 17:07:10.263,8.469300862931606
2025-03-24 17:07:10.263,-0.9230515641040994
2025-03-24 17:07:10.263,-9.318420670272229
2025-03-24 17:07:10.263,-8.387093520164136
2025-03-24 17:07:10.263,0.5050773865892435
2025-03-24 17:07:10.272,7.67682527050764
2025-03-24 17:07:10.273,5.965578110913248
2025-03-24 17:07:10.273,-1.135238355143004
2025-03-24 17:07:10.273,-4.541359679038843
2025-03-24 17:07:10.273,-1.3868845508723047
2025-03-24 17:07:10.282,2.3002404993891967
2025-03-24 17:07:10.283,1.0019750361030098
2025-03-24 17:07:10.283,-2.652638047021279
2025-03-24 17:07:10.283,-2.44225853605034
2025-03-24 17:07:10.283,1.922549508185895
2025-03-24 17:07:10.292,4.124777997332831
2025-03-24 17:07:10.293,0.37694314810387236
2025-03-24 17:07:10.293,-4.602568583320299
2025-03-24 17:07:10.293,-3.524867955632499
2025-03-24 17:07:10.293,3.326482975680558
2025-03-24 17:07:10.302,7.490746256775047
2025-03-24 17:07:10.303,2.6416399937875195
2025-03-24 17:07:10.303,-6.840204930991979
2025-03-24 17:07:10.303,-9.88855815393426
2025-03-24 17:07:10.303,-1.627135362912195
2025-03-24 17:07:10.311,9.481000220474096
2025-03-24 17:07:10.311,10.042197938974947
2025-03-24 17:07:10.311,-1.8863999130344826
2025-03-24 17:07:10.311,-12.201760114758793
2025-03-24 17:07:10.320,-6.772590158326222
2025-03-24 17:07:10.321,9.394723877659048
2025-03-24 17:07:10.321,15.681930632891289
2025-03-24 17:07:10.321,1.3908076192114127
2025-03-24 17:07:10.321,-18.26501929504204
2025-03-24 17:07:10.330,-18.782598636773777
2025-03-24 17:07:10.330,3.050004304286487
2025-03-24 17:07:10.331,23.513367480083026
2025-03-24 17:07:10.331,19.479828848901573
2025-03-24 17:07:10.331,-4.67360567047262
2025-03-24 17:07:10.339,-22.867916773345605
2025-03-24 17:07:10.339,-17.06754557922923
2025-03-24 17:07:10.339,4.397091661869547
2025-03-24 17:07:10.339,18.4205582531442
2025-03-24 17:07:10.348,12.560285107739714
2025-03-24 17:07:10.348,-3.955897752181564
2025-03-24 17:07:10.349,-13.040105199266852
2025-03-24 17:07:10.349,-7.673178725212805
2025-03-24 17:07:10.349,3.1987971474413155
2025-03-24 17:07:10.357,7.623094994005194
2025-03-24 17:07:10.357,3.8372218758828374
2025-03-24 17:07:10.357,-1.1537977835337592
2025-03-24 17:07:10.357,-2.2947476475591366
2025-03-24 17:07:10.358,-1.2671568941928169
2025-03-24 17:07:10.367,-1.3946014603662122
2025-03-24 17:07:10.367,-2.2252243281893036
2025-03-24 17:07:10.367,-0.9841219564739178
2025-03-24 17:07:10.367,2.7259213577157824
2025-03-24 17:07:10.377,5.554710110249443
2025-03-24 17:07:10.377,3.5847755848169656
2025-03-24 17:07:10.377,-3.0626567504084137
2025-03-24 17:07:10.377,-8.495573815307965
2025-03-24 17:07:10.377,-5.739989342796496
2025-03-24 17:07:10.386,4.544133452141775
2025-03-24 17:07:10.386,11.77397910833356
2025-03-24 17:07:10.387,6.221285048280788
2025-03-24 17:07:10.387,-7.8281811364253375
2025-03-24 17:07:10.387,-14.70022643520569
2025-03-24 17:07:10.395,-5.510349556669366
2025-03-24 17:07:10.395,10.33521837631362
2025-03-24 17:07:10.395,15.699410592453761
2025-03-24 17:07:10.395,5.400966905426136
2025-03-24 17:07:10.395,-9.034413876244392
2025-03-24 17:07:10.405,-13.597781862126013
2025-03-24 17:07:10.405,-6.3034815430042315
2025-03-24 17:07:10.405,3.845115495463224
2025-03-24 17:07:10.405,8.537586218860993
2025-03-24 17:07:10.414,6.981747020263399
2025-03-24 17:07:10.414,2.4936035278163144
2025-03-24 17:07:10.415,-2.6375272186590037
2025-03-24 17:07:10.415,-6.744340513367087
2025-03-24 17:07:10.415,-6.841381167120814
2025-03-24 17:07:10.424,-1.3283022373616313
2025-03-24 17:07:10.425,5.9855458342390495
2025-03-24 17:07:10.425,8.16693235180177
2025-03-24 17:07:10.425,2.660067844877579
2025-03-24 17:07:10.425,-5.304991928470031
2025-03-24 17:07:10.435,-7.923326121279535
2025-03-24 17:07:10.435,-2.70886651718071
2025-03-24 17:07:10.435,5.157113143218861
2025-03-24 17:07:10.435,7.792870564611405
2025-03-24 17:07:10.435,2.2484772518606806
2025-03-24 17:07:10.444,-5.966008554836481
2025-03-24 17:07:10.445,-7.80656985793471
2025-03-24 17:07:10.445,-0.6757646027704862
2025-03-24 17:07:10.445,7.553307894098657
2025-03-24 17:07:10.445,7.0700287607863554
2025-03-24 17:07:10.454,-1.7983096431700352
2025-03-24 17:07:10.455,-8.541506202911144
2025-03-24 17:07:10.455,-5.405241814132853
2025-03-24 17:07:10.455,3.2453234626442398
2025-03-24 17:07:10.455,7.162941860055513
2025-03-24 17:07:10.463,3.175940000906685
2025-03-24 17:07:10.463,-2.246542494931285
2025-03-24 17:07:10.463,-2.851710084986133
2025-03-24 17:07:10.463,-0.41266248380232967
2025-03-24 17:07:10.464,-0.3712570062845342
2025-03-24 17:07:10.473,-2.844846882724101
2025-03-24 17:07:10.473,-2.4855091684380892
2025-03-24 17:07:10.473,2.730374126179761
2025-03-24 17:07:10.473,7.039406347247502
2025-03-24 17:07:10.473,4.078526441282894
2025-03-24 17:07:10.483,-3.8867922883700325
2025-03-24 17:07:10.483,-7.895329756794462
2025-03-24 17:07:10.483,-3.382822325619274
2025-03-24 17:07:10.483,4.170935491998113
2025-03-24 17:07:10.493,6.228099630219267
2025-03-24 17:07:10.493,1.3675822689210506
2025-03-24 17:07:10.493,-4.046592434682436
2025-03-24 17:07:10.493,-4.253357575856288
2025-03-24 17:07:10.493,-0.19358448298446113
2025-03-24 17:07:10.503,3.2217291971882274
2025-03-24 17:07:10.503,3.275851665489783
2025-03-24 17:07:10.503,1.0471270112085895
2025-03-24 17:07:10.503,-1.3915170204505158
2025-03-24 17:07:10.503,-2.7422954429345188
2025-03-24 17:07:10.512,-2.1997995437273934
2025-03-24 17:07:10.512,-0.17377407815634108
2025-03-24 17:07:10.513,0.9660156703252016
2025-03-24 17:07:10.513,-0.23953381351689915
2025-03-24 17:07:10.513,-0.9857575757322716
2025-03-24 17:07:10.522,2.4701939854008583
2025-03-24 17:07:10.522,7.537567884234485
2025-03-24 17:07:10.523,6.033246499432264
2025-03-24 17:07:10.523,-4.822461380263237
2025-03-24 17:07:10.523,-15.543925656413364
2025-03-24 17:07:10.531,-13.232269180156438
2025-03-24 17:07:10.531,2.9599332292835063
2025-03-24 17:07:10.531,18.788795815781114
2025-03-24 17:07:10.531,18.839382487411328
2025-03-24 17:07:10.540,2.25721516591146
2025-03-24 17:07:10.541,-16.13164756477748
2025-03-24 17:07:10.541,-19.863638635073546
2025-03-24 17:07:10.541,-6.257529881754883
2025-03-24 17:07:10.541,11.177449229243397
2025-03-24 17:07:10.549,15.994898545762183
2025-03-24 17:07:10.549,5.310085319998998
2025-03-24 17:07:10.549,-7.831615977412828
2025-03-24 17:07:10.549,-9.56608262740765
2025-03-24 17:07:10.559,-0.4934588981700765
2025-03-24 17:07:10.559,6.968576479814172
2025-03-24 17:07:10.559,4.507068970951719
2025-03-24 17:07:10.559,-3.5506276483122265
2025-03-24 17:07:10.559,-7.5657430057551585
2025-03-24 17:07:10.569,-3.663918315376254
2025-03-24 17:07:10.569,4.062744607301641
2025-03-24 17:07:10.569,8.725447407159098
2025-03-24 17:07:10.569,6.045770888361144
2025-03-24 17:07:10.569,-2.4831790948522094
2025-03-24 17:07:10.579,-9.67714052365804
2025-03-24 17:07:10.579,-8.219883587536385
2025-03-24 17:07:10.579,1.3437417400277836
2025-03-24 17:07:10.579,9.627585111488864
2025-03-24 17:07:10.579,8.036240690188755
2025-03-24 17:07:10.589,-1.3338558953743254
2025-03-24 17:07:10.589,-8.133431458064186
2025-03-24 17:07:10.589,-5.910755112009263
2025-03-24 17:07:10.589,1.3768044724271744
2025-03-24 17:07:10.589,5.686776780507903
2025-03-24 17:07:10.598,4.051765046101442
2025-03-24 17:07:10.599,-0.6017638320275753
2025-03-24 17:07:10.599,-4.279505262379933
2025-03-24 17:07:10.599,-4.356244935479339
2025-03-24 17:07:10.599,-0.028023295226626138
2025-03-24 17:07:10.608,5.673556940638978
2025-03-24 17:07:10.608,6.291934310901512
2025-03-24 17:07:10.609,-0.9629363490652932
2025-03-24 17:07:10.609,-9.183283185539594
2025-03-24 17:07:10.609,-7.891880874742785
2025-03-24 17:07:10.617,3.4186424325800604
2025-03-24 17:07:10.617,12.371449739089568
2025-03-24 17:07:10.617,7.845830414455866
2025-03-24 17:07:10.617,-5.6896478457632975
2025-03-24 17:07:10.627,-12.828416933111859
2025-03-24 17:07:10.627,-5.867615745638982
2025-03-24 17:07:10.627,6.2764245548626985
2025-03-24 17:07:10.627,9.8335916529773
2025-03-24 17:07:10.627,2.59979791556393
2025-03-24 17:07:10.637,-5.43844899748914
2025-03-24 17:07:10.637,-5.530564328061904
2025-03-24 17:07:10.637,0.6339860400734328
2025-03-24 17:07:10.637,5.092925260101285
2025-03-24 17:07:10.637,3.042757644598918
2025-03-24 17:07:10.647,-3.0336178256956328
2025-03-24 17:07:10.647,-6.3865209249839365
2025-03-24 17:07:10.647,-2.656765374268078
2025-03-24 17:07:10.647,4.862609949131206
2025-03-24 17:07:10.647,7.543840906764602
2025-03-24 17:07:10.657,1.5167399642025505
2025-03-24 17:07:10.657,-6.16766090017055
2025-03-24 17:07:10.657,-5.63950452686944
2025-03-24 17:07:10.657,2.39015492953535
2025-03-24 17:07:10.657,6.780025142473359
2025-03-24 17:07:10.667,0.8040918857611967
2025-03-24 17:07:10.667,-8.186407691095813
2025-03-24 17:07:10.667,-7.678783797408192
2025-03-24 17:07:10.667,3.7802038374172504
2025-03-24 17:07:10.667,13.624564357443772
2025-03-24 17:07:10.676,9.531086347564486
2025-03-24 17:07:10.677,-5.751984560742114
2025-03-24 17:07:10.677,-16.425971397554466
2025-03-24 17:07:10.677,-10.83955945594315
2025-03-24 17:07:10.677,5.343006031104612
2025-03-24 17:07:10.685,15.260868773159526
2025-03-24 17:07:10.685,9.53539003752798
2025-03-24 17:07:10.685,-4.052272300336975
2025-03-24 17:07:10.685,-10.668447860161569
2025-03-24 17:07:10.695,-5.368355721425247
2025-03-24 17:07:10.695,3.1979453229663557
2025-03-24 17:07:10.695,4.847385420138438
2025-03-24 17:07:10.695,-0.3626440637377125
2025-03-24 17:07:10.695,-3.938311590722645
2025-03-24 17:07:10.704,-0.2566614326741775
2025-03-24 17:07:10.705,6.461724390807175
2025-03-24 17:07:10.705,6.96189125446228
2025-03-24 17:07:10.705,-1.8926851445146815
2025-03-24 17:07:10.705,-11.858320028194866
2025-03-24 17:07:10.713,-11.07198935121531
2025-03-24 17:07:10.713,1.9973118030601995
2025-03-24 17:07:10.713,14.652742373988836
2025-03-24 17:07:10.713,13.157276117059917
2025-03-24 17:07:10.723,-1.1445980927756334
2025-03-24 17:07:10.723,-12.955734835766693
2025-03-24 17:07:10.723,-10.850704420576381
2025-03-24 17:07:10.723,0.360887225367
2025-03-24 17:07:10.723,7.420268275034324
2025-03-24 17:07:10.732,4.895890001895925
2025-03-24 17:07:10.733,-0.7222754132661472
2025-03-24 17:07:10.733,-1.5798263399653059
2025-03-24 17:07:10.733,1.8450558085669568
2025-03-24 17:07:10.733,3.025483976623866
2025-03-24 17:07:10.742,-1.380560380373551
2025-03-24 17:07:10.743,-7.013249694750049
2025-03-24 17:07:10.743,-6.690758872110257
2025-03-24 17:07:10.743,1.0251747728390785
2025-03-24 17:07:10.743,9.251472490715724
2025-03-24 17:07:10.751,9.708670458953941
2025-03-24 17:07:10.751,1.6683896355924732
2025-03-24 17:07:10.751,-7.522376365839377
2025-03-24 17:07:10.751,-10.437127834669962
2025-03-24 17:07:10.752,-5.916529628359878
2025-03-24 17:07:10.761,2.1896189209982864
2025-03-24 17:07:10.761,9.02362370832995
2025-03-24 17:07:10.761,10.350157553630163
2025-03-24 17:07:10.761,4.108742255718661
2025-03-24 17:07:10.762,-6.376934005781287
2025-03-24 17:07:10.771,-12.697541099926806
2025-03-24 17:07:10.771,-8.53719184711015
2025-03-24 17:07:10.771,3.0435010182152973
2025-03-24 17:07:10.771,11.616231921889455
2025-03-24 17:07:10.780,9.734798444951565
2025-03-24 17:07:10.781,0.282268306223738
2025-03-24 17:07:10.781,-7.473745288068973
2025-03-24 17:07:10.781,-7.89110113248803
2025-03-24 17:07:10.781,-2.9591231045084254
2025-03-24 17:07:10.790,2.459658392604182
2025-03-24 17:07:10.791,5.389363411690089
2025-03-24 17:07:10.791,4.44048427426743
2025-03-24 17:07:10.791,-0.3558555212829413
2025-03-24 17:07:10.791,-5.15679145575605
2025-03-24 17:07:10.800,-4.148883429829517
2025-03-24 17:07:10.801,2.731120653083974
2025-03-24 17:07:10.801,7.352970008404637
2025-03-24 17:07:10.801,2.9236743612373832
2025-03-24 17:07:10.801,-6.2452075472899
2025-03-24 17:07:10.810,-9.279242592007767
2025-03-24 17:07:10.811,-2.504151141970304
2025-03-24 17:07:10.811,6.144596318206681
2025-03-24 17:07:10.811,7.772734439198983
2025-03-24 17:07:10.811,3.1435871080317885
2025-03-24 17:07:10.819,-0.8321067357344709
2025-03-24 17:07:10.819,-1.9157072420843382
2025-03-24 17:07:10.819,-3.8665333651898157
2025-03-24 17:07:10.819,-7.215828139682136
2025-03-24 17:07:10.819,-5.705089202039003
2025-03-24 17:07:10.829,4.0215675552172465
2025-03-24 17:07:10.829,13.790498113538657
2025-03-24 17:07:10.829,11.412240273148633
2025-03-24 17:07:10.829,-3.5203986907524922
2025-03-24 17:07:10.838,-16.562606163173474
2025-03-24 17:07:10.839,-13.623762984674704
2025-03-24 17:07:10.839,2.9213688955728196
2025-03-24 17:07:10.839,16.08007175595965
2025-03-24 17:07:10.839,12.493204976542176
2025-03-24 17:07:10.847,-3.0420598832887173
2025-03-24 17:07:10.847,-13.29839607528836
2025-03-24 17:07:10.847,-8.347606887503638
2025-03-24 17:07:10.847,3.816937939543225
2025-03-24 17:07:10.857,8.370627070404842
2025-03-24 17:07:10.857,2.0678828045105817
2025-03-24 17:07:10.857,-4.475747796285242
2025-03-24 17:07:10.857,-2.3313963914975058
2025-03-24 17:07:10.857,4.153385601659756
2025-03-24 17:07:10.867,4.738384610094954
2025-03-24 17:07:10.867,-2.0384224950280485
2025-03-24 17:07:10.867,-7.425966417299027
2025-03-24 17:07:10.867,-4.8133799269698985
2025-03-24 17:07:10.867,2.216555525265842
2025-03-24 17:07:10.877,5.966586385964048
2025-03-24 17:07:10.877,4.372442419559365
2025-03-24 17:07:10.877,1.2315270627206623
2025-03-24 17:07:10.877,-0.7354573266190054
2025-03-24 17:07:10.877,-2.5618262109544263
2025-03-24 17:07:10.887,-4.812165359209768
2025-03-24 17:07:10.887,-4.809836709457022
2025-03-24 17:07:10.887,-0.4280964156998762
2025-03-24 17:07:10.887,5.472120703894831
2025-03-24 17:07:10.887,7.282793122710441
2025-03-24 17:07:10.896,3.048278573075663
2025-03-24 17:07:10.897,-3.304165330506477
2025-03-24 17:07:10.897,-6.224056526838385
2025-03-24 17:07:10.897,-3.8234255819914007
2025-03-24 17:07:10.897,0.9679592447888302
2025-03-24 17:07:10.906,3.57545632664124
2025-03-24 17:07:10.907,2.2118428243526553
2025-03-24 17:07:10.907,-0.5302875815636159
2025-03-24 17:07:10.907,-1.0175642555095283
2025-03-24 17:07:10.907,0.7985777983809861
2025-03-24 17:07:10.915,1.6288880899894118
2025-03-24 17:07:10.915,-0.3227744482095489
2025-03-24 17:07:10.915,-2.8855274689332733
2025-03-24 17:07:10.915,-2.956926668415225
2025-03-24 17:07:10.915,-0.29213671314567086
2025-03-24 17:07:10.925,2.612131812700886
2025-03-24 17:07:10.925,3.3327867143769403
2025-03-24 17:07:10.925,1.6176272203249604
2025-03-24 17:07:10.926,-0.699598695965907
2025-03-24 17:07:10.926,-1.6311257176254017
2025-03-24 17:07:10.935,-1.1265235809667344
2025-03-24 17:07:10.935,-0.8977908224341138
2025-03-24 17:07:10.935,-1.7867989004064364
2025-03-24 17:07:10.935,-2.06228115495072
2025-03-24 17:07:10.945,0.46238392266582784
2025-03-24 17:07:10.945,4.70076198242474
2025-03-24 17:07:10.945,6.223599801449586
2025-03-24 17:07:10.945,2.062194207467388
2025-03-24 17:07:10.945,-5.074324695300219
2025-03-24 17:07:10.955,-8.747885388295986
2025-03-24 17:07:10.955,-5.191518808377339
2025-03-24 17:07:10.955,2.8410440691938454
2025-03-24 17:07:10.955,8.620791173011199
2025-03-24 17:07:10.955,7.397219221090862
2025-03-24 17:07:10.964,0.20946464679978666
2025-03-24 17:07:10.965,-7.0947237454344885
2025-03-24 17:07:10.965,-8.374976917153704
2025-03-24 17:07:10.965,-2.183368742198817
2025-03-24 17:07:10.965,6.26868607185115
2025-03-24 17:07:10.975,8.863838305041002
2025-03-24 17:07:10.975,2.4327784919907947
2025-03-24 17:07:10.975,-6.887423568957115
2025-03-24 17:07:10.975,-9.224381194397948
2025-03-24 17:07:10.975,-1.813772521522426
2025-03-24 17:07:10.984,7.554143882260469
2025-03-24 17:07:10.985,9.175647028017279
2025-03-24 17:07:10.985,1.8434790739783276
2025-03-24 17:07:10.985,-6.7909888672304515
2025-03-24 17:07:10.985,-8.606431560066849
2025-03-24 17:07:10.994,-2.3548784176732385
2025-03-24 17:07:10.995,5.649073418640235
2025-03-24 17:07:10.995,7.150315616688653
2025-03-24 17:07:10.995,0.4633507531629816
2025-03-24 17:07:10.995,-6.293316660087913
2025-03-24 17:07:11.005,-4.033532164965198
2025-03-24 17:07:11.005,4.893402241518247
2025-03-24 17:07:11.005,8.430901926943909
2025-03-24 17:07:11.005,0.7211260707966555
2025-03-24 17:07:11.005,-9.511622909786517
2025-03-24 17:07:11.014,-10.152294758497458
2025-03-24 17:07:11.015,-0.6411885101034795
2025-03-24 17:07:11.015,8.875444272818712
2025-03-24 17:07:11.015,10.290729285492983
2025-03-24 17:07:11.015,4.49252325488705
2025-03-24 17:07:11.023,-3.0277418646211642
2025-03-24 17:07:11.023,-8.28804606612138
2025-03-24 17:07:11.023,-9.347636618044774
2025-03-24 17:07:11.023,-4.84157775225202
2025-03-24 17:07:11.033,4.2802687061096005
2025-03-24 17:07:11.033,12.272966288262559
2025-03-24 17:07:11.033,11.44603231440642
2025-03-24 17:07:11.033,0.12601150334745542
2025-03-24 17:07:11.033,-12.79159774203432
2025-03-24 17:07:11.041,-14.541035425013911
2025-03-24 17:07:11.041,-2.2489355212079167
2025-03-24 17:07:11.041,11.858040913715984
2025-03-24 17:07:11.041,12.92183026371474
2025-03-24 17:07:11.042,0.7223038756872575
2025-03-24 17:07:11.051,-10.04985435116976
2025-03-24 17:07:11.051,-7.712812671617121
2025-03-24 17:07:11.051,3.0126033155471186
2025-03-24 17:07:11.051,8.32846584489437
2025-03-24 17:07:11.061,2.4530956854785364
2025-03-24 17:07:11.061,-6.724114828170251
2025-03-24 17:07:11.061,-8.036313089995891
2025-03-24 17:07:11.061,0.24983966225996812
2025-03-24 17:07:11.061,9.075007662157399
2025-03-24 17:07:11.071,8.804266721362866
2025-03-24 17:07:11.071,-0.37692076162711363
2025-03-24 17:07:11.071,-8.997018466577526
2025-03-24 17:07:11.071,-8.858409290013489
2025-03-24 17:07:11.071,-1.3422575049526893
2025-03-24 17:07:11.081,5.653744116119813
2025-03-24 17:07:11.081,7.018045119777304
2025-03-24 17:07:11.081,4.158830174589104
2025-03-24 17:07:11.081,0.4569786624649598
2025-03-24 17:07:11.081,-3.139006573518414
2025-03-24 17:07:11.091,-6.352305947368326
2025-03-24 17:07:11.091,-6.587393238731869
2025-03-24 17:07:11.091,-1.5832742044626071
2025-03-24 17:07:11.091,5.640024466951806
2025-03-24 17:07:11.091,8.463572236091197
2025-03-24 17:07:11.100,4.479371454407457
2025-03-24 17:07:11.101,-1.462546083303914
2025-03-24 17:07:11.101,-3.8782249561605084
2025-03-24 17:07:11.101,-3.3996031865551357
2025-03-24 17:07:11.101,-3.744166987623156
2025-03-24 17:07:11.109,-4.270056286348052
2025-03-24 17:07:11.109,-0.6726033615295308
2025-03-24 17:07:11.109,6.617828035377532
2025-03-24 17:07:11.110,10.024533101805153
2025-03-24 17:07:11.110,4.081256474077872
2025-03-24 17:07:11.119,-6.036802143920946
2025-03-24 17:07:11.119,-9.709613890703261
2025-03-24 17:07:11.119,-3.8504909385339428
2025-03-24 17:07:11.119,3.6767261252444157
2025-03-24 17:07:11.129,4.609641838550885
2025-03-24 17:07:11.129,0.2363406305888336
2025-03-24 17:07:11.129,-2.0097238405976445
2025-03-24 17:07:11.129,0.8336365708413735
2025-03-24 17:07:11.129,4.06597677679495
2025-03-24 17:07:11.130,2.3655152148585463
2025-03-24 17:07:11.139,-3.2424131702420698
2025-03-24 17:07:11.139,-6.668789143839564
2025-03-24 17:07:11.139,-3.7645292269212063
2025-03-24 17:07:11.139,2.9167921230190026
2025-03-24 17:07:11.148,6.577788169112151
2025-03-24 17:07:11.149,3.6534393505073703
2025-03-24 17:07:11.149,-1.898472504111748
2025-03-24 17:07:11.149,-3.4999579427351755
2025-03-24 17:07:11.149,-0.6697485244411818
2025-03-24 17:07:11.159,0.6585371001129987
2025-03-24 17:07:11.159,-2.2702366702514514
2025-03-24 17:07:11.159,-3.7789746111944518
2025-03-24 17:07:11.159,1.5833348416453574
2025-03-24 17:07:11.159,8.72538097755099
2025-03-24 17:07:11.169,7.24492531023134
2025-03-24 17:07:11.169,-3.6670538041719736
2025-03-24 17:07:11.169,-12.49261594313318
2025-03-24 17:07:11.169,-9.283790845109843
2025-03-24 17:07:11.169,2.876263352250037
2025-03-24 17:07:11.177,12.325269094697578
2025-03-24 17:07:11.177,10.924388795443171
2025-03-24 17:07:11.177,0.3464558810694697
2025-03-24 17:07:11.177,-10.245814311432618
2025-03-24 17:07:11.187,-11.553139245315576
2025-03-24 17:07:11.187,-2.32137840235323
2025-03-24 17:07:11.187,8.410613350962858
2025-03-24 17:07:11.187,9.792318564949069
2025-03-24 17:07:11.187,1.125613408902474
2025-03-24 17:07:11.197,-7.200587528616325
2025-03-24 17:07:11.197,-6.188333642464735
2025-03-24 17:07:11.197,1.3517095629510991
2025-03-24 17:07:11.197,5.6726126493233835
2025-03-24 17:07:11.198,2.826670865160412
2025-03-24 17:07:11.207,-1.972123726859364
2025-03-24 17:07:11.207,-3.028738592958046
2025-03-24 17:07:11.207,-1.107465358662365
2025-03-24 17:07:11.207,0.027529342233354334
2025-03-24 17:07:11.207,-0.11484381293537707
2025-03-24 17:07:11.216,0.5985998154915853
2025-03-24 17:07:11.217,2.1503586170115883
2025-03-24 17:07:11.217,2.107547626170578
2025-03-24 17:07:11.217,-0.13800041660046702
2025-03-24 17:07:11.217,-2.073504010583585
2025-03-24 17:07:11.226,-1.7754222785389562
2025-03-24 17:07:11.227,-0.4976874996734907
2025-03-24 17:07:11.227,-0.2501536993303498
2025-03-24 17:07:11.227,-0.5648668567941857
2025-03-24 17:07:11.227,0.44587592589380076
2025-03-24 17:07:11.236,2.583298087036025
2025-03-24 17:07:11.236,3.2087609416182348
2025-03-24 17:07:11.237,0.8051827970354107
2025-03-24 17:07:11.237,-2.706661054073803
2025-03-24 17:07:11.237,-4.189871233320765
2025-03-24 17:07:11.246,-2.7206070133377143
2025-03-24 17:07:11.247,0.27156118622319164
2025-03-24 17:07:11.247,3.1437170327652555
2025-03-24 17:07:11.247,4.660995066933044
2025-03-24 17:07:11.247,3.312941890750655
2025-03-24 17:07:11.255,-1.397185631647864
2025-03-24 17:07:11.255,-6.394718639985342
2025-03-24 17:07:11.255,-6.384037761407352
2025-03-24 17:07:11.256,0.03770327788294414
2025-03-24 17:07:11.256,7.109667551668369
2025-03-24 17:07:11.265,7.536178280844692
2025-03-24 17:07:11.265,1.0193522188103241
2025-03-24 17:07:11.265,-5.416748634964592
2025-03-24 17:07:11.265,-5.840791580270217
2025-03-24 17:07:11.276,-1.6738998256176771
2025-03-24 17:07:11.276,1.516057705483267
2025-03-24 17:07:11.277,1.4224818726454405
2025-03-24 17:07:11.277,0.8282811182268959
2025-03-24 17:07:11.277,2.3424695331979937
2025-03-24 17:07:11.277,3.998727379997366
2025-03-24 17:07:11.285,1.991989189482921
2025-03-24 17:07:11.285,-3.426083810243639
2025-03-24 17:07:11.285,-7.314739453527816
2025-03-24 17:07:11.285,-5.603137962916833
2025-03-24 17:07:11.286,0.49239477863437064
2025-03-24 17:07:11.295,6.159603119838236
2025-03-24 17:07:11.295,7.6333464258104895
2025-03-24 17:07:11.295,4.462193177647485
2025-03-24 17:07:11.295,-1.257545950049703
2025-03-24 17:07:11.296,-6.21969228684003
2025-03-24 17:07:11.305,-7.206482075362034
2025-03-24 17:07:11.305,-3.3099570345727884
2025-03-24 17:07:11.305,2.38658945062586
2025-03-24 17:07:11.305,4.986019901545068
2025-03-24 17:07:11.306,3.022546086781792
2025-03-24 17:07:11.316,0.35290168810053607
2025-03-24 17:07:11.317,0.9606853489485975
2025-03-24 17:07:11.317,2.8949461037710598
2025-03-24 17:07:11.317,0.5155827114560199
2025-03-24 17:07:11.317,-6.6702422311760365
2025-03-24 17:07:11.325,-10.84769161111386
2025-03-24 17:07:11.325,-4.534130956740237
2025-03-24 17:07:11.325,8.85475142755955
2025-03-24 17:07:11.325,16.45979330544774
2025-03-24 17:07:11.334,9.349549148873022
2025-03-24 17:07:11.335,-7.010709418432202
2025-03-24 17:07:11.335,-17.459296045280926
2025-03-24 17:07:11.335,-12.414148200448523
2025-03-24 17:07:11.335,2.728510066555198
2025-03-24 17:07:11.343,13.854428813204166
2025-03-24 17:07:11.343,12.394370304960855
2025-03-24 17:07:11.343,2.066649415518056
2025-03-24 17:07:11.343,-7.315930001930581
2025-03-24 17:07:11.344,-9.794297758949687
2025-03-24 17:07:11.354,-6.141328393239028
2025-03-24 17:07:11.355,0.22123763599743324
2025-03-24 17:07:11.355,6.391619160944241
2025-03-24 17:07:11.355,9.15571745352353
2025-03-24 17:07:11.355,5.290341285197487
2025-03-24 17:07:11.363,-4.017512428838739
2025-03-24 17:07:11.363,-11.050735565405843
2025-03-24 17:07:11.363,-8.142166976384319
2025-03-24 17:07:11.363,3.0415518910755477
2025-03-24 17:07:11.373,11.769431301934812
2025-03-24 17:07:11.373,9.190012211448316
2025-03-24 17:07:11.373,-2.3582647861418327
2025-03-24 17:07:11.373,-11.724623405553972
2025-03-24 17:07:11.373,-9.944683666648146
2025-03-24 17:07:11.382,1.1751382151482583
2025-03-24 17:07:11.383,10.910060534317516
2025-03-24 17:07:11.383,10.20072241549456
2025-03-24 17:07:11.383,0.504910766885622
2025-03-24 17:07:11.383,-8.368056028820698
2025-03-24 17:07:11.392,-8.744230106161124
2025-03-24 17:07:11.393,-2.02098332545574
2025-03-24 17:07:11.393,4.497520180792787
2025-03-24 17:07:11.393,5.488380102346232
2025-03-24 17:07:11.393,1.672317995382142
2025-03-24 17:07:11.402,-2.1902033823863167
2025-03-24 17:07:11.403,-2.1036363551436232
2025-03-24 17:07:11.403,1.515033206245359
2025-03-24 17:07:11.403,4.09985075928516
2025-03-24 17:07:11.403,1.4281503724941291
2025-03-24 17:07:11.411,-5.347294750585105
2025-03-24 17:07:11.411,-9.589780941874462
2025-03-24 17:07:11.411,-5.324151661931936
2025-03-24 17:07:11.411,5.879645956356267
2025-03-24 17:07:11.420,14.741509995057442
2025-03-24 17:07:11.421,12.21172249082838
2025-03-24 17:07:11.421,-1.4797150243270596
2025-03-24 17:07:11.421,-15.62115291276498
2025-03-24 17:07:11.421,-17.76763991397246
2025-03-24 17:07:11.429,-5.151971832107983
2025-03-24 17:07:11.429,11.854697162952455
2025-03-24 17:07:11.429,18.491449809633536
2025-03-24 17:07:11.429,9.294389377710148
2025-03-24 17:07:11.439,-6.597109021283376
2025-03-24 17:07:11.439,-14.501805853289625
2025-03-24 17:07:11.439,-8.631600146468294
2025-03-24 17:07:11.439,3.207167530866084
2025-03-24 17:07:11.439,9.00860123376743
2025-03-24 17:07:11.449,4.981736918891684
2025-03-24 17:07:11.449,-2.3163799138830985
2025-03-24 17:07:11.449,-4.852400461797348
2025-03-24 17:07:11.449,-1.7503989856632782
2025-03-24 17:07:11.449,1.7224590035057228
2025-03-24 17:07:11.459,1.9131743279645388
2025-03-24 17:07:11.459,0.6340410990082496
2025-03-24 17:07:11.459,0.7669514006939244
2025-03-24 17:07:11.459,1.1840723303399647
2025-03-24 17:07:11.459,-0.9355658275867637
2025-03-24 17:07:11.469,-4.316590788462665
2025-03-24 17:07:11.469,-4.159035708374049
2025-03-24 17:07:11.469,1.0223842539306343
2025-03-24 17:07:11.469,6.3607713109805655
2025-03-24 17:07:11.469,5.957741359658062
2025-03-24 17:07:11.479,-0.36611628813947356
2025-03-24 17:07:11.479,-6.67272473709225
2025-03-24 17:07:11.479,-6.645284091280877
2025-03-24 17:07:11.479,0.17607778036206206
2025-03-24 17:07:11.479,7.227457653577637
2025-03-24 17:07:11.489,6.8469382337215565
2025-03-24 17:07:11.489,-1.3173332009723722
2025-03-24 17:07:11.489,-8.727299997702492
2025-03-24 17:07:11.489,-6.823177747950732
2025-03-24 17:07:11.489,2.801588873970437
2025-03-24 17:07:11.498,9.571670115601085
2025-03-24 17:07:11.499,6.12346315671395
2025-03-24 17:07:11.499,-3.0863240541372967
2025-03-24 17:07:11.499,-7.6373150339045885
2025-03-24 17:07:11.499,-3.934808426626171
2025-03-24 17:07:11.509,1.6754974966979916
2025-03-24 17:07:11.509,2.693369104495918
2025-03-24 17:07:11.509,0.6455778766656869
2025-03-24 17:07:11.509,0.6460834400054304
2025-03-24 17:07:11.509,2.5991177619095813
2025-03-24 17:07:11.519,1.9012663607830178
2025-03-24 17:07:11.519,-2.3269031358047028
2025-03-24 17:07:11.519,-5.024339955689662
2025-03-24 17:07:11.519,-2.444624507908279
2025-03-24 17:07:11.519,2.3487532480503366
2025-03-24 17:07:11.528,3.804081104696273
2025-03-24 17:07:11.529,1.2799186729876748
2025-03-24 17:07:11.529,-1.0347434232678019
2025-03-24 17:07:11.529,-0.6334020386620047
2025-03-24 17:07:11.529,0.34458850185373213
2025-03-24 17:07:11.538,-0.5669180742024645
2025-03-24 17:07:11.539,-1.9279641289578502
2025-03-24 17:07:11.539,-0.9263205059113762
2025-03-24 17:07:11.539,1.5778410017835518
2025-03-24 17:07:11.539,1.9259287546874269
2025-03-24 17:07:11.548,-0.4773629975313639
2025-03-24 17:07:11.549,-1.6964923107879617
2025-03-24 17:07:11.549,0.7749419025944386
2025-03-24 17:07:11.549,3.496169903191664
2025-03-24 17:07:11.549,1.4510871847352926
2025-03-24 17:07:11.557,-4.403553081357897
2025-03-24 17:07:11.557,-7.144986527514054
2025-03-24 17:07:11.557,-2.0045110479724153
2025-03-24 17:07:11.558,7.208869302425625
2025-03-24 17:07:11.567,10.974694288761823
2025-03-24 17:07:11.567,3.7930013354568923
2025-03-24 17:07:11.567,-8.779517301323379
2025-03-24 17:07:11.567,-14.133211384412057
2025-03-24 17:07:11.567,-5.686078171977502
2025-03-24 17:07:11.576,8.690903747496801
2025-03-24 17:07:11.577,14.338045908618316
2025-03-24 17:07:11.577,6.175640644043545
2025-03-24 17:07:11.577,-6.0221079145820084
2025-03-24 17:07:11.577,-9.944069188097624
2025-03-24 17:07:11.587,-4.53513565392593
2025-03-24 17:07:11.587,1.544701440039633
2025-03-24 17:07:11.587,2.388582424434809
2025-03-24 17:07:11.587,0.8934846619050287
2025-03-24 17:07:11.587,2.0661900323120146
2025-03-24 17:07:11.596,4.636719640679194
2025-03-24 17:07:11.597,3.0183781356926445
2025-03-24 17:07:11.597,-3.391251920823402
2025-03-24 17:07:11.597,-7.546449189979774
2025-03-24 17:07:11.597,-3.97018122036922
2025-03-24 17:07:11.607,3.0004950769562146
2025-03-24 17:07:11.607,4.986388256127015
2025-03-24 17:07:11.607,1.2882354215812448
2025-03-24 17:07:11.607,-1.3588953616286668
2025-03-24 17:07:11.607,0.11326506104039014
2025-03-24 17:07:11.616,1.3617990710208785
2025-03-24 17:07:11.617,-0.8368345900850783
2025-03-24 17:07:11.617,-3.035673394864302
2025-03-24 17:07:11.617,-1.2268545004819111
2025-03-24 17:07:11.617,2.406636432432693
2025-03-24 17:07:11.626,2.8127330291745345
2025-03-24 17:07:11.627,-0.538745232593361
2025-03-24 17:07:11.627,-3.2175931391333026
2025-03-24 17:07:11.627,-1.8611049286809054
2025-03-24 17:07:11.627,1.9906482950810047
2025-03-24 17:07:11.635,4.056083023277724
2025-03-24 17:07:11.635,1.8136167802098806
2025-03-24 17:07:11.635,-3.0081548551393826
2025-03-24 17:07:11.635,-5.554479576225326
2025-03-24 17:07:11.636,-2.3261622215591355
2025-03-24 17:07:11.645,4.303016962546417
2025-03-24 17:07:11.645,7.380216634386305
2025-03-24 17:07:11.645,2.9642426247827114
2025-03-24 17:07:11.645,-4.830681087365774
2025-03-24 17:07:11.646,-8.363244075071536
2025-03-24 17:07:11.656,-4.7503236414602705
2025-03-24 17:07:11.657,2.3867940827455856
2025-03-24 17:07:11.657,7.7263069574240335
2025-03-24 17:07:11.657,8.037830783434886
2025-03-24 17:07:11.657,2.745277887366518
2025-03-24 17:07:11.665,-5.424646520366592
2025-03-24 17:07:11.665,-10.383888918305363
2025-03-24 17:07:11.665,-7.104784680271297
2025-03-24 17:07:11.665,2.227535686436
2025-03-24 17:07:11.675,9.021030208562244
2025-03-24 17:07:11.675,7.3304866665540285
2025-03-24 17:07:11.675,0.3813549442571061
2025-03-24 17:07:11.675,-4.1194966208026305
2025-03-24 17:07:11.675,-3.4557598869397146
2025-03-24 17:07:11.685,-1.4259576376193854
2025-03-24 17:07:11.685,-1.2402812669052716
2025-03-24 17:07:11.685,-1.214442506625264
2025-03-24 17:07:11.685,1.0517888362273091
2025-03-24 17:07:11.685,3.7721619704344858
2025-03-24 17:07:11.694,3.3168688311698715
2025-03-24 17:07:11.695,-0.15569559026390067
2025-03-24 17:07:11.695,-2.6260886932603804
2025-03-24 17:07:11.695,-1.8346211285980687
2025-03-24 17:07:11.695,-0.25347879230879544
2025-03-24 17:07:11.704,-0.9280247360733055
2025-03-24 17:07:11.705,-2.202726221114185
2025-03-24 17:07:11.705,0.2226282855688366
2025-03-24 17:07:11.705,5.68295367003773
2025-03-24 17:07:11.705,6.88224977146527
2025-03-24 17:07:11.713,-0.7687194161458302
2025-03-24 17:07:11.713,-10.477627932300457
2025-03-24 17:07:11.713,-10.211342232563464
2025-03-24 17:07:11.713,1.7698881370515864
2025-03-24 17:07:11.722,12.859353605771002
2025-03-24 17:07:11.723,10.822010227696229
2025-03-24 17:07:11.723,-1.4374770222209965
2025-03-24 17:07:11.723,-10.448696882349457
2025-03-24 17:07:11.723,-8.765556676520164
2025-03-24 17:07:11.732,-1.2034852978606332
2025-03-24 17:07:11.733,4.330568354244856
2025-03-24 17:07:11.733,5.5887901613515085
2025-03-24 17:07:11.733,4.2232809842219154
2025-03-24 17:07:11.733,1.1424272908670503
2025-03-24 17:07:11.742,-2.824002693689971
2025-03-24 17:07:11.743,-4.9435060749175985
2025-03-24 17:07:11.743,-3.0297642898591297
2025-03-24 17:07:11.743,1.1474702617735575
2025-03-24 17:07:11.743,3.4379086304996234
2025-03-24 17:07:11.751,2.110239566710673
2025-03-24 17:07:11.751,-0.5644228271418382
2025-03-24 17:07:11.751,-1.608021754351191
2025-03-24 17:07:11.751,-0.7845999890943559
2025-03-24 17:07:11.752,0.06940276523178077
2025-03-24 17:07:11.762,0.19604577463248823
2025-03-24 17:07:11.763,0.6430592485899809
2025-03-24 17:07:11.763,1.6441500440121724
2025-03-24 17:07:11.763,1.3192603023751364
2025-03-24 17:07:11.763,-1.440870157783689
2025-03-24 17:07:11.772,-4.16069544333728
2025-03-24 17:07:11.773,-3.1277127975358447
2025-03-24 17:07:11.773,1.6412688540804317
2025-03-24 17:07:11.773,5.650243545367247
2025-03-24 17:07:11.773,4.6441784376211
2025-03-24 17:07:11.781,-0.7887689980028694
2025-03-24 17:07:11.781,-5.621314411843115
2025-03-24 17:07:11.781,-5.142844041015086
2025-03-24 17:07:11.781,0.39255336250278794
2025-03-24 17:07:11.782,5.575895590816243
2025-03-24 17:07:11.791,4.900713842095677
2025-03-24 17:07:11.791,-1.3416732303508279
2025-03-24 17:07:11.791,-6.729465912286073
2025-03-24 17:07:11.792,-5.230170203624395
2025-03-24 17:07:11.801,2.0989181834507704
2025-03-24 17:07:11.801,7.95128499866003
2025-03-24 17:07:11.801,6.514106649680086
2025-03-24 17:07:11.801,-0.5569918906693676
2025-03-24 17:07:11.801,-6.464942577069393
2025-03-24 17:07:11.811,-6.76572464359207
2025-03-24 17:07:11.811,-3.1092578611297816
2025-03-24 17:07:11.811,0.6270255770648429
2025-03-24 17:07:11.811,3.5324068226923635
2025-03-24 17:07:11.811,6.4440295426072565
2025-03-24 17:07:11.821,7.250736655441066
2025-03-24 17:07:11.821,2.3149808095669493
2025-03-24 17:07:11.821,-6.499902972106724
2025-03-24 17:07:11.821,-11.17015108029309
2025-03-24 17:07:11.821,-6.831670559267619
2025-03-24 17:07:11.831,1.8717642930429947
2025-03-24 17:07:11.831,7.06069163574561
2025-03-24 17:07:11.831,7.008011861747201
2025-03-24 17:07:11.831,5.172127653438307
2025-03-24 17:07:11.831,2.5672316356253653
2025-03-24 17:07:11.841,-3.0045280183594185
2025-03-24 17:07:11.841,-9.984456529357688
2025-03-24 17:07:11.841,-11.173395954862151
2025-03-24 17:07:11.841,-2.407792986862402
2025-03-24 17:07:11.841,9.811024719985591
2025-03-24 17:07:11.849,13.883252375621979
2025-03-24 17:07:11.849,6.143522612799296
2025-03-24 17:07:11.849,-5.286832992209629
2025-03-24 17:07:11.849,-10.376614972563116
2025-03-24 17:07:11.859,-7.307545293685072
2025-03-24 17:07:11.859,-1.0443839468815346
2025-03-24 17:07:11.859,4.1743193511666
2025-03-24 17:07:11.859,6.941671537797002
2025-03-24 17:07:11.859,5.922060991859811
2025-03-24 17:07:11.860,0.4717746249282739
2025-03-24 17:07:11.869,-5.851769358095124
2025-03-24 17:07:11.869,-7.032421794168852
2025-03-24 17:07:11.869,-1.7098204019813508
2025-03-24 17:07:11.869,4.2687561783863215
2025-03-24 17:07:11.879,4.570502283795769
2025-03-24 17:07:11.879,0.07579060859199571
2025-03-24 17:07:11.879,-2.5831765282981114
2025-03-24 17:07:11.879,0.008692856388383852
2025-03-24 17:07:11.880,3.2763532366484105
2025-03-24 17:07:11.889,0.9862028907731406
2025-03-24 17:07:11.889,-5.234736852507204
2025-03-24 17:07:11.889,-6.811456906761548
2025-03-24 17:07:11.889,0.27521699443228814
2025-03-24 17:07:11.889,8.894696033360244
2025-03-24 17:07:11.899,8.914406822951838
2025-03-24 17:07:11.899,-0.36114747095344113
2025-03-24 17:07:11.899,-9.400772850778274
2025-03-24 17:07:11.899,-9.234105050744407
2025-03-24 17:07:11.900,-0.4792620843745117
2025-03-24 17:07:11.909,8.043611736747803
2025-03-24 17:07:11.909,8.223480032521802
2025-03-24 17:07:11.909,0.47505346024366846
2025-03-24 17:07:11.909,-6.864501394414401
2025-03-24 17:07:11.910,-6.412221601129607
2025-03-24 17:07:11.919,0.4628676499693348
2025-03-24 17:07:11.919,5.897876118989875
2025-03-24 17:07:11.919,4.830098246881328
2025-03-24 17:07:11.919,-0.20491308993355822
2025-03-24 17:07:11.919,-3.7319947676389145
2025-03-24 17:07:11.929,-3.9416095238974442
2025-03-24 17:07:11.929,-2.5487879250391443
2025-03-24 17:07:11.929,-0.2980697034120374
2025-03-24 17:07:11.929,3.355812633007055
2025-03-24 17:07:11.929,6.323494658376876
2025-03-24 17:07:11.939,4.266203875035736
2025-03-24 17:07:11.939,-2.9293154679249547
2025-03-24 17:07:11.939,-8.394436272160803
2025-03-24 17:07:11.939,-5.506392514042546
2025-03-24 17:07:11.939,3.271228615660127
2025-03-24 17:07:11.947,8.19558967823842
2025-03-24 17:07:11.947,3.6556357445987686
2025-03-24 17:07:11.947,-4.819018952097871
2025-03-24 17:07:11.947,-7.136026391954686
2025-03-24 17:07:11.948,-0.8421355140867494
2025-03-24 17:07:11.957,6.295195222338316
2025-03-24 17:07:11.957,6.093849049206114
2025-03-24 17:07:11.957,-0.6115142150476514
2025-03-24 17:07:11.958,-5.99335142774413
2025-03-24 17:07:11.967,-4.813928254563473
2025-03-24 17:07:11.967,0.46756037886510243
2025-03-24 17:07:11.967,3.9396475040977177
2025-03-24 17:07:11.967,3.182523015435071
2025-03-24 17:07:11.968,0.460649421517321
2025-03-24 17:07:11.968,-1.5555037496285606
2025-03-24 17:07:11.977,-2.4542616719615813
2025-03-24 17:07:11.977,-2.2532396673975703
2025-03-24 17:07:11.977,0.03447426482046303
2025-03-24 17:07:11.977,3.8813942662753607
2025-03-24 17:07:11.978,5.260263498360216
2025-03-24 17:07:11.987,0.6555746186253603
2025-03-24 17:07:11.987,-6.7204536093056
2025-03-24 17:07:11.987,-8.347056667390662
2025-03-24 17:07:11.988,-0.6748101806824427
2025-03-24 17:07:11.997,8.552921587991772
2025-03-24 17:07:11.997,8.655278126914718
2025-03-24 17:07:11.997,-0.23481113791728958
2025-03-24 17:07:11.997,-7.1479226179484066
2025-03-24 17:07:11.998,-4.849008624841698
2025-03-24 17:07:12.007,1.3830141716666662
2025-03-24 17:07:12.007,2.6907134705654037
2025-03-24 17:07:12.007,-0.7218320992389027
2025-03-24 17:07:12.007,-1.535960916989992
2025-03-24 17:07:12.007,2.4818030353269784
2025-03-24 17:07:12.017,4.911469939021207
2025-03-24 17:07:12.017,0.5701772767711116
2025-03-24 17:07:12.017,-6.2259983105973316
2025-03-24 17:07:12.017,-6.906826270749902
2025-03-24 17:07:12.017,0.22394523037389674
2025-03-24 17:07:12.027,7.776650238328573
2025-03-24 17:07:12.027,7.879635968809136
2025-03-24 17:07:12.027,0.47454273834798477
2025-03-24 17:07:12.027,-7.311743527221351
2025-03-24 17:07:12.027,-8.48324268755376
2025-03-24 17:07:12.037,-2.4578309240509966
2025-03-24 17:07:12.037,5.011250988019701
2025-03-24 17:07:12.037,7.674498087833813
2025-03-24 17:07:12.037,4.37668369266499
2025-03-24 17:07:12.037,-1.2032496930170962
2025-03-24 17:07:12.047,-5.027691842281593
2025-03-24 17:07:12.047,-5.3449566942548605
2025-03-24 17:07:12.047,-2.269084066788374
2025-03-24 17:07:12.047,2.3408995242127157
2025-03-24 17:07:12.048,4.908227793910601
2025-03-24 17:07:12.057,3.0284091811634286
2025-03-24 17:07:12.057,-1.1754142402596939
2025-03-24 17:07:12.057,-2.9338446454002876
2025-03-24 17:07:12.057,-0.7455215942309693
2025-03-24 17:07:12.057,1.6113427126205326
2025-03-24 17:07:12.067,0.1953126130727185
2025-03-24 17:07:12.067,-3.358471056366181
2025-03-24 17:07:12.067,-3.328129417842311
2025-03-24 17:07:12.067,2.390833799699581
2025-03-24 17:07:12.067,7.930759852175095
2025-03-24 17:07:12.075,5.421211351659385
2025-03-24 17:07:12.075,-4.502123728565587
2025-03-24 17:07:12.075,-11.346696156455046
2025-03-24 17:07:12.076,-6.46838717338062
2025-03-24 17:07:12.076,5.798139635762831
2025-03-24 17:07:12.085,12.29642490857968
2025-03-24 17:07:12.085,6.119136392765541
2025-03-24 17:07:12.085,-5.7674952614117165
2025-03-24 17:07:12.085,-10.954423660886123
2025-03-24 17:07:12.095,-5.1711132825678
2025-03-24 17:07:12.095,4.41849707890526
2025-03-24 17:07:12.095,8.237119732855696
2025-03-24 17:07:12.095,4.136950464530329
2025-03-24 17:07:12.095,-2.303887716105081
2025-03-24 17:07:12.105,-5.061402764183921
2025-03-24 17:07:12.105,-2.981586167320237
2025-03-24 17:07:12.105,1.0261641906271919
2025-03-24 17:07:12.105,3.122651251394537
2025-03-24 17:07:12.105,1.1020513079044678
2025-03-24 17:07:12.115,-3.123929614887061
2025-03-24 17:07:12.115,-3.7942769632462703
2025-03-24 17:07:12.115,2.1470581943565676
2025-03-24 17:07:12.115,8.650156652727704
2025-03-24 17:07:12.115,5.934468400580128
2025-03-24 17:07:12.125,-5.765938460221416
2025-03-24 17:07:12.125,-13.426274303443364
2025-03-24 17:07:12.125,-6.760834941632366
2025-03-24 17:07:12.125,7.569781436351043
2025-03-24 17:07:12.125,13.425646752850229
2025-03-24 17:07:12.133,5.040081214616436
2025-03-24 17:07:12.133,-6.968428018158367
2025-03-24 17:07:12.134,-9.676774360921764
2025-03-24 17:07:12.134,-2.204325378304913
2025-03-24 17:07:12.134,5.949739314685696
2025-03-24 17:07:12.143,6.598575290507791
2025-03-24 17:07:12.143,0.11971440781706244
2025-03-24 17:07:12.143,-6.481901830875385
2025-03-24 17:07:12.144,-6.40163968960048
2025-03-24 17:07:12.144,0.6916154524645826
2025-03-24 17:07:12.153,7.805667568529891
2025-03-24 17:07:12.153,7.32512621916275
2025-03-24 17:07:12.153,-0.5528757028265652
2025-03-24 17:07:12.154,-7.619110219848391
2025-03-24 17:07:12.163,-6.83604550523553
2025-03-24 17:07:12.163,-0.006395270520361762
2025-03-24 17:07:12.163,5.253948621458937
2025-03-24 17:07:12.163,4.6645364177712745
2025-03-24 17:07:12.164,0.8286764871710554
2025-03-24 17:07:12.173,-1.9134669336666723
2025-03-24 17:07:12.173,-2.719490798018675
2025-03-24 17:07:12.173,-2.678738337449725
2025-03-24 17:07:12.173,-1.1575850473774407
2025-03-24 17:07:12.174,2.552229979996512
2025-03-24 17:07:12.183,5.450254255727298
2025-03-24 17:07:12.183,3.251316262165586
2025-03-24 17:07:12.183,-3.054569757832105
2025-03-24 17:07:12.183,-6.987148494149489
2025-03-24 17:07:12.184,-4.221853723260292
2025-03-24 17:07:12.193,2.3054420422403443
2025-03-24 17:07:12.193,6.13958569256115
2025-03-24 17:07:12.193,4.1769014340819535
2025-03-24 17:07:12.193,-1.0190111384306686
2025-03-24 17:07:12.193,-4.296012234956277
2025-03-24 17:07:12.203,-2.864565307352143
2025-03-24 17:07:12.203,0.9538521012213409
2025-03-24 17:07:12.203,2.3709208814873874
2025-03-24 17:07:12.203,0.24908780659057222
2025-03-24 17:07:12.204,-1.2914374722332602
2025-03-24 17:07:12.213,0.6955653349279495
2025-03-24 17:07:12.213,2.634552228341773
2025-03-24 17:07:12.213,-0.2819668238605782
2025-03-24 17:07:12.213,-5.2481702857784125
2025-03-24 17:07:12.213,-4.342176967297001
2025-03-24 17:07:12.223,3.5288898180287593
2025-03-24 17:07:12.223,9.209340624516292
2025-03-24 17:07:12.223,4.79810828333696
2025-03-24 17:07:12.223,-5.569341728250218
2025-03-24 17:07:12.223,-10.411433930990999
2025-03-24 17:07:12.232,-4.6811680349491676
2025-03-24 17:07:12.233,4.798965384002566
2025-03-24 17:07:12.233,8.089345654085111
2025-03-24 17:07:12.233,3.532509191890748
2025-03-24 17:07:12.233,-1.9339638036731197
2025-03-24 17:07:12.241,-2.709862180122104
2025-03-24 17:07:12.241,-0.9910024682111355
2025-03-24 17:07:12.241,-1.5952762675964351
2025-03-24 17:07:12.241,-3.630005875178109
2025-03-24 17:07:12.251,-1.7847140604569132
2025-03-24 17:07:12.251,4.540754109208825
2025-03-24 17:07:12.251,8.293265700324541
2025-03-24 17:07:12.251,3.4819630315384065
2025-03-24 17:07:12.252,-6.061985756779812
2025-03-24 17:07:12.261,-10.228159662320188
2025-03-24 17:07:12.261,-4.331756810981833
2025-03-24 17:07:12.261,5.641041768520627
2025-03-24 17:07:12.261,10.008240646315498
2025-03-24 17:07:12.261,5.437025843001486
2025-03-24 17:07:12.270,-3.0188802038449216
2025-03-24 17:07:12.271,-8.115477023340175
2025-03-24 17:07:12.271,-6.791322999721047
2025-03-24 17:07:12.271,-1.1956903592751384
2025-03-24 17:07:12.271,4.3445824804689215
2025-03-24 17:07:12.280,6.603872779714653
2025-03-24 17:07:12.281,4.969668576057802
2025-03-24 17:07:12.281,1.0625896507506618
2025-03-24 17:07:12.281,-2.9158622862162735
2025-03-24 17:07:12.281,-5.63964887340973
2025-03-24 17:07:12.291,-6.3591784342480056
2025-03-24 17:07:12.291,-3.846314591054229
2025-03-24 17:07:12.291,2.342860577756132
2025-03-24 17:07:12.291,8.906754723929074
2025-03-24 17:07:12.291,9.766772200023842
2025-03-24 17:07:12.299,2.544601523555376
2025-03-24 17:07:12.299,-7.222828398690673
2025-03-24 17:07:12.299,-10.90194708239546
2025-03-24 17:07:12.300,-5.583638344699307
2025-03-24 17:07:12.309,3.338246908640756
2025-03-24 17:07:12.309,7.949833567234422
2025-03-24 17:07:12.309,5.141943831998404
2025-03-24 17:07:12.309,-1.257623154783063
2025-03-24 17:07:12.310,-4.710052187046191
2025-03-24 17:07:12.319,-2.4799515174305875
2025-03-24 17:07:12.319,1.9239726430357678
2025-03-24 17:07:12.319,3.2174286774553664
2025-03-24 17:07:12.319,0.5553879903479171
2025-03-24 17:07:12.319,-2.305011739506831
2025-03-24 17:07:12.329,-2.53772721494717
2025-03-24 17:07:12.329,-1.2202485061519053
2025-03-24 17:07:12.329,-0.1672562285807785
2025-03-24 17:07:12.329,1.171430034930327
2025-03-24 17:07:12.329,3.508546825934086
2025-03-24 17:07:12.339,4.508113751475891
2025-03-24 17:07:12.339,1.038000455302326
2025-03-24 17:07:12.339,-5.3222052652114
2025-03-24 17:07:12.339,-7.953578558857296
2025-03-24 17:07:12.339,-2.555176412348639
2025-03-24 17:07:12.349,6.28849186920487
2025-03-24 17:07:12.349,8.882689353021773
2025-03-24 17:07:12.349,1.7298630190077036
2025-03-24 17:07:12.349,-7.352851527480002
2025-03-24 17:07:12.349,-7.8283906880469685
2025-03-24 17:07:12.359,0.918767722020476
2025-03-24 17:07:12.359,8.551874676403585
2025-03-24 17:07:12.359,6.073170729857009
2025-03-24 17:07:12.359,-3.4468730531460503
2025-03-24 17:07:12.360,-8.742054254435951
2025-03-24 17:07:12.369,-3.89224262749616
2025-03-24 17:07:12.369,4.969300516587142
2025-03-24 17:07:12.369,7.434232869469181
2025-03-24 17:07:12.369,1.140739911321106
2025-03-24 17:07:12.369,-5.99466227846793
2025-03-24 17:07:12.379,-5.551627810583364
2025-03-24 17:07:12.379,1.5795566888075374
2025-03-24 17:07:12.379,6.641560753298446
2025-03-24 17:07:12.379,3.685044227749482
2025-03-24 17:07:12.379,-3.310953330220868
2025-03-24 17:07:12.389,-5.637223491783995
2025-03-24 17:07:12.389,-1.0407871331906424
2025-03-24 17:07:12.389,3.6276336347714584
2025-03-24 17:07:12.389,2.056849872567848
2025-03-24 17:07:12.389,-2.793689773919594
2025-03-24 17:07:12.399,-3.1731154502465677
2025-03-24 17:07:12.399,2.2269368980079807
2025-03-24 17:07:12.399,6.300620280050797
2025-03-24 17:07:12.399,3.245740456608346
2025-03-24 17:07:12.399,-3.8269049953593646
2025-03-24 17:07:12.409,-7.156455782038101
2025-03-24 17:07:12.409,-3.8205190507217206
2025-03-24 17:07:12.409,1.769618148505711
2025-03-24 17:07:12.409,4.197229179915588
2025-03-24 17:07:12.409,3.110317106812526
2025-03-24 17:07:12.418,1.7360020690568099
2025-03-24 17:07:12.419,1.2405388276235727
2025-03-24 17:07:12.419,-0.4516344948613339
2025-03-24 17:07:12.419,-3.9391502588689944
2025-03-24 17:07:12.419,-5.6240300350974035
2025-03-24 17:07:12.428,-2.2392306323301208
2025-03-24 17:07:12.429,3.6471597553639326
2025-03-24 17:07:12.429,6.02941136390406
2025-03-24 17:07:12.429,3.0242521613063906
2025-03-24 17:07:12.429,-1.2959601829493228
2025-03-24 17:07:12.437,-2.946566101648818
2025-03-24 17:07:12.437,-2.3751212371993082
2025-03-24 17:07:12.437,-1.5927640717032632
2025-03-24 17:07:12.438,-0.46835012023851347
2025-03-24 17:07:12.447,1.6849287276898244
2025-03-24 17:07:12.447,3.221414345492845
2025-03-24 17:07:12.447,1.9179482632095528
2025-03-24 17:07:12.447,-1.1821426070245922
2025-03-24 17:07:12.448,-2.5119540153710376
2025-03-24 17:07:12.457,-1.0031403834537176
2025-03-24 17:07:12.457,0.25254656129295366
2025-03-24 17:07:12.457,-0.9698245130366786
2025-03-24 17:07:12.457,-1.868463339893622
2025-03-24 17:07:12.457,1.1454593244952977
2025-03-24 17:07:12.467,5.736488472530053
2025-03-24 17:07:12.467,5.74957514914673
2025-03-24 17:07:12.467,-0.3423112329576894
2025-03-24 17:07:12.467,-7.437501746863778
2025-03-24 17:07:12.468,-9.998771838658808
2025-03-24 17:07:12.477,-6.168581555900957
2025-03-24 17:07:12.477,3.0729182847644947
2025-03-24 17:07:12.477,13.381753431299249
2025-03-24 17:07:12.477,16.27749672680149
2025-03-24 17:07:12.477,5.640948133835604
2025-03-24 17:07:12.485,-12.712409222185562
2025-03-24 17:07:12.485,-22.831980694855073
2025-03-24 17:07:12.485,-13.979654617877141
2025-03-24 17:07:12.486,7.080179748765694
2025-03-24 17:07:12.493,21.605996827312524
2025-03-24 17:07:12.493,17.032044838821196
2025-03-24 17:07:12.494,-0.9798131525663254
2025-03-24 17:07:12.494,-14.800645314272487
2025-03-24 17:07:12.503,-12.908574827912808
2025-03-24 17:07:12.503,-0.7253659863837023
2025-03-24 17:07:12.503,7.389258261522119
2025-03-24 17:07:12.503,4.949014457717693
2025-03-24 17:07:12.504,-1.4138672104319325
2025-03-24 17:07:12.513,-2.876832683736483
2025-03-24 17:07:12.513,0.759427380875066
2025-03-24 17:07:12.513,3.5282623125417145
2025-03-24 17:07:12.513,2.1832715987100757
2025-03-24 17:07:12.514,-1.3472157749655724
2025-03-24 17:07:12.523,-3.9622990449511275
2025-03-24 17:07:12.523,-3.9752576896030245
2025-03-24 17:07:12.523,-0.9231728649774935
2025-03-24 17:07:12.524,3.7023414372791184
2025-03-24 17:07:12.524,5.921411341885576
2025-03-24 17:07:12.533,2.7278842292948715
2025-03-24 17:07:12.533,-3.37264792269124
2025-03-24 17:07:12.533,-6.081516366011243
2025-03-24 17:07:12.533,-2.7684963184374776
2025-03-24 17:07:12.534,2.214627104058509
2025-03-24 17:07:12.543,3.4321156648675397
2025-03-24 17:07:12.543,1.2568481990178617
2025-03-24 17:07:12.543,0.09928748010492916
2025-03-24 17:07:12.544,1.2951614734307855
2025-03-24 17:07:12.544,1.4346444639700504
2025-03-24 17:07:12.553,-1.8739274931070724
2025-03-24 17:07:12.553,-5.64127078979108
2025-03-24 17:07:12.553,-4.828036366027471
2025-03-24 17:07:12.553,1.1250940134226834
2025-03-24 17:07:12.554,7.035666378278636
2025-03-24 17:07:12.563,7.413890011201714
2025-03-24 17:07:12.563,1.9135787848531944
2025-03-24 17:07:12.563,-4.867483193102816
2025-03-24 17:07:12.563,-7.656879127686224
2025-03-24 17:07:12.563,-4.401240382746432
2025-03-24 17:07:12.573,2.0519544370065836
2025-03-24 17:07:12.573,5.631409187092161
2025-03-24 17:07:12.573,2.8832984961636114
2025-03-24 17:07:12.573,-2.2425678808767437
2025-03-24 17:07:12.574,-2.6062059999720053
2025-03-24 17:07:12.583,2.3096727343469197
2025-03-24 17:07:12.583,4.997289375305216
2025-03-24 17:07:12.583,0.3954060938420669
2025-03-24 17:07:12.583,-6.4800793990667644
2025-03-24 17:07:12.583,-6.997663248723494
2025-03-24 17:07:12.593,-0.2083497614562711
2025-03-24 17:07:12.593,6.410762307882149
2025-03-24 17:07:12.593,6.467525358675711
2025-03-24 17:07:12.593,1.2792259750321164
2025-03-24 17:07:12.593,-3.3418683649758654
2025-03-24 17:07:12.603,-4.031797774255697
2025-03-24 17:07:12.603,-2.022294611817505
2025-03-24 17:07:12.603,0.007812782387247856
2025-03-24 17:07:12.603,1.0040353246855438
2025-03-24 17:07:12.604,1.542257921584456
2025-03-24 17:07:12.613,2.235063545741583
2025-03-24 17:07:12.613,2.468743886686305
2025-03-24 17:07:12.613,0.5362062735574648
2025-03-24 17:07:12.613,-3.8818009895677146
2025-03-24 17:07:12.613,-7.038719293657102
2025-03-24 17:07:12.623,-3.7139886602642367
2025-03-24 17:07:12.623,5.344582431658637
2025-03-24 17:07:12.623,11.344600023264173
2025-03-24 17:07:12.623,6.650789265298112
2025-03-24 17:07:12.623,-5.17513833593163
2025-03-24 17:07:12.631,-12.406025212074237
2025-03-24 17:07:12.631,-8.239948539913925
2025-03-24 17:07:12.632,2.29818669640847
2025-03-24 17:07:12.632,9.11127393244582
2025-03-24 17:07:12.632,7.759093255764621
2025-03-24 17:07:12.641,1.7830020749660829
2025-03-24 17:07:12.641,-3.3252727443403636
2025-03-24 17:07:12.641,-5.249086419042216
2025-03-24 17:07:12.641,-4.383269255049046
2025-03-24 17:07:12.651,-1.667636687249676
2025-03-24 17:07:12.651,1.6863528235100307
2025-03-24 17:07:12.651,4.144221897646995
2025-03-24 17:07:12.652,4.579182793430039
2025-03-24 17:07:12.652,2.2352437528331084
2025-03-24 17:07:12.661,-2.985164217141306
2025-03-24 17:07:12.661,-7.958394805328389
2025-03-24 17:07:12.661,-6.274066721116486
2025-03-24 17:07:12.662,4.122696640826804
2025-03-24 17:07:12.662,13.927813279831428
2025-03-24 17:07:12.669,10.083778326732954
2025-03-24 17:07:12.669,-6.998945627630923
2025-03-24 17:07:12.670,-19.87824397426113
2025-03-24 17:07:12.670,-13.039306397182415
2025-03-24 17:07:12.670,7.769734364734145
2025-03-24 17:07:12.679,21.017730383324654
2025-03-24 17:07:12.679,13.707521198462548
2025-03-24 17:07:12.679,-4.951549845890993
2025-03-24 17:07:12.679,-15.652475712091572
2025-03-24 17:07:12.689,-10.511962749063958
2025-03-24 17:07:12.689,1.1990531843755696
2025-03-24 17:07:12.689,6.756394532295763
2025-03-24 17:07:12.689,4.092066124394706
2025-03-24 17:07:12.690,0.37002450782172347
2025-03-24 17:07:12.699,0.5264813349694147
2025-03-24 17:07:12.699,2.0556150000186797
2025-03-24 17:07:12.699,0.7178634844318672
2025-03-24 17:07:12.699,-3.009312486387737
2025-03-24 17:07:12.700,-4.982277886999531
2025-03-24 17:07:12.709,-2.570382050697956
2025-03-24 17:07:12.709,2.564623993054408
2025-03-24 17:07:12.709,5.5820097994252045
2025-03-24 17:07:12.709,2.615934883054738
2025-03-24 17:07:12.710,-4.115821148200239
2025-03-24 17:07:12.719,-6.569944133035375
2025-03-24 17:07:12.719,0.02898366619080761
2025-03-24 17:07:12.719,9.128532859471475
2025-03-24 17:07:12.719,8.88896946190046
2025-03-24 17:07:12.719,-2.807723787434836
2025-03-24 17:07:12.727,-14.044139476836673
2025-03-24 17:07:12.727,-11.959287576319824
2025-03-24 17:07:12.728,2.650475972163843
2025-03-24 17:07:12.728,15.972255904026115
2025-03-24 17:07:12.737,15.012062748611623
2025-03-24 17:07:12.737,-0.03540899374817952
2025-03-24 17:07:12.737,-15.67942189449321
2025-03-24 17:07:12.737,-17.109601419223292
2025-03-24 17:07:12.737,-2.402439708826615
2025-03-24 17:07:12.745,14.538154457064344
2025-03-24 17:07:12.745,17.18141544511902
2025-03-24 17:07:12.745,3.414575633868658
2025-03-24 17:07:12.746,-12.300619439961311
2025-03-24 17:07:12.755,-14.65037103262248
2025-03-24 17:07:12.755,-3.266904517764207
2025-03-24 17:07:12.755,8.791506966118115
2025-03-24 17:07:12.755,10.213589345072593
2025-03-24 17:07:12.755,2.0753875699983544
2025-03-24 17:07:12.765,-5.816838915209524
2025-03-24 17:07:12.765,-5.835772270632663
2025-03-24 17:07:12.765,0.8060383761980143
2025-03-24 17:07:12.765,6.0153631454791014
2025-03-24 17:07:12.765,3.031747755442622
2025-03-24 17:07:12.773,-5.645353237765361
2025-03-24 17:07:12.773,-9.437785639868395
2025-03-24 17:07:12.774,-1.732329730702038
2025-03-24 17:07:12.774,10.296888966846474
2025-03-24 17:07:12.774,12.607888293562393
2025-03-24 17:07:12.783,1.5092675968269091
2025-03-24 17:07:12.783,-11.194727329630767
2025-03-24 17:07:12.783,-12.357394050021039
2025-03-24 17:07:12.783,-2.219271537739689
2025-03-24 17:07:12.793,7.987115882625914
2025-03-24 17:07:12.793,9.353339993927925
2025-03-24 17:07:12.793,2.666286308253282
2025-03-24 17:07:12.793,-4.8157236994074175
2025-03-24 17:07:12.793,-6.3701878374999135
2025-03-24 17:07:12.803,-1.0748816628381492
2025-03-24 17:07:12.803,5.164047989496126
2025-03-24 17:07:12.803,4.918443244581845
2025-03-24 17:07:12.803,-2.2805829918807836
2025-03-24 17:07:12.804,-8.07361678124257
2025-03-24 17:07:12.813,-4.556633857226119
2025-03-24 17:07:12.813,5.3236087741947395
2025-03-24 17:07:12.813,10.145473053183423
2025-03-24 17:07:12.813,3.7558328264677185
2025-03-24 17:07:12.813,-6.651916964106984
2025-03-24 17:07:12.821,-9.08589240129899
2025-03-24 17:07:12.821,-1.4713238266129358
2025-03-24 17:07:12.821,6.2931057941940285
2025-03-24 17:07:12.822,5.26836494592319
2025-03-24 17:07:12.822,-1.6971151902689732
2025-03-24 17:07:12.831,-4.854761249815475
2025-03-24 17:07:12.831,-0.7298868136153637
2025-03-24 17:07:12.832,4.0808271871092465
2025-03-24 17:07:12.832,2.6869296874401187
2025-03-24 17:07:12.841,-2.75437868228439
2025-03-24 17:07:12.841,-4.557525695346499
2025-03-24 17:07:12.841,-0.16398546446593848
2025-03-24 17:07:12.841,4.733314540038306
2025-03-24 17:07:12.842,3.8398642158534275
2025-03-24 17:07:12.851,-1.990668889188483
2025-03-24 17:07:12.851,-5.952848060033819
2025-03-24 17:07:12.851,-3.1218099673319535
2025-03-24 17:07:12.852,3.7386845433918734
2025-03-24 17:07:12.852,6.652708501880937
2025-03-24 17:07:12.861,1.5610464254359724
2025-03-24 17:07:12.861,-5.793538155091684
2025-03-24 17:07:12.861,-5.8568417398031105
2025-03-24 17:07:12.862,2.349288958622911
2025-03-24 17:07:12.862,8.477537672529872
2025-03-24 17:07:12.871,3.411344730135747
2025-03-24 17:07:12.871,-7.913127490481736
2025-03-24 17:07:12.871,-11.169519207403017
2025-03-24 17:07:12.871,-0.6648212821639792
2025-03-24 17:07:12.872,12.25129517655037
2025-03-24 17:07:12.879,12.40422524058461
2025-03-24 17:07:12.879,-0.699266220517209
2025-03-24 17:07:12.879,-12.69560836931277
2025-03-24 17:07:12.879,-11.657031329690984
2025-03-24 17:07:12.889,-0.2603944735717375
2025-03-24 17:07:12.889,9.767653408964545
2025-03-24 17:07:12.889,10.341201674347685
2025-03-24 17:07:12.889,2.5042546630786457
2025-03-24 17:07:12.889,-6.543945904135132
2025-03-24 17:07:12.899,-9.378422207744938
2025-03-24 17:07:12.899,-3.981746597082586
2025-03-24 17:07:12.899,4.290097341985622
2025-03-24 17:07:12.899,7.759503357146581
2025-03-24 17:07:12.899,4.316444050755706
2025-03-24 17:07:12.907,-1.3662540386675923
2025-03-24 17:07:12.907,-4.417412155690069
2025-03-24 17:07:12.908,-4.491438099671386
2025-03-24 17:07:12.908,-3.121876817372385
2025-03-24 17:07:12.917,-0.12303042854794376
2025-03-24 17:07:12.917,4.507853393986603
2025-03-24 17:07:12.917,7.363923326718472
2025-03-24 17:07:12.918,4.185143571444712
2025-03-24 17:07:12.918,-3.894002310535311
2025-03-24 17:07:12.927,-9.349394740282532
2025-03-24 17:07:12.927,-5.831756690722796
2025-03-24 17:07:12.927,3.6865165754436124
2025-03-24 17:07:12.928,8.908404339314792
2025-03-24 17:07:12.928,3.9132529218280916
2025-03-24 17:07:12.937,-5.119019514479288
2025-03-24 17:07:12.937,-6.973348472165591
2025-03-24 17:07:12.937,0.49475934920953135
2025-03-24 17:07:12.938,7.411223180350221
2025-03-24 17:07:12.938,4.547983300583011
2025-03-24 17:07:12.947,-4.720241663070824
2025-03-24 17:07:12.947,-8.7510070155739
2025-03-24 17:07:12.947,-2.346949400995242
2025-03-24 17:07:12.947,7.048786213634197
2025-03-24 17:07:12.948,8.649814494320799
2025-03-24 17:07:12.957,0.8207845149355819
2025-03-24 17:07:12.957,-7.707042851458131
2025-03-24 17:07:12.957,-7.910475869826613
2025-03-24 17:07:12.957,0.02033583541334638
2025-03-24 17:07:12.958,7.401203049273388
2025-03-24 17:07:12.967,6.561515094964879
2025-03-24 17:07:12.967,-0.9535261946421526
2025-03-24 17:07:12.967,-6.305786657668632
2025-03-24 17:07:12.967,-3.6559553087871692
2025-03-24 17:07:12.968,2.8643213285416294
2025-03-24 17:07:12.977,4.458981942114387
2025-03-24 17:07:12.977,-0.6910480702181427
2025-03-24 17:07:12.977,-4.900006419583527
2025-03-24 17:07:12.977,-1.8682808412332825
2025-03-24 17:07:12.977,4.134388619311795
2025-03-24 17:07:12.987,4.570895656685411
2025-03-24 17:07:12.987,-0.837060382306037
2025-03-24 17:07:12.987,-4.244848469058731
2025-03-24 17:07:12.987,-1.5265571895612533
2025-03-24 17:07:12.987,2.560701038774942
2025-03-24 17:07:12.995,2.2491690952250214
2025-03-24 17:07:12.995,-1.5455667263918256
2025-03-24 17:07:12.996,-3.7287246504047586
2025-03-24 17:07:12.996,-1.7218555861713896
2025-03-24 17:07:12.996,2.5903836090589833
2025-03-24 17:07:13.005,5.429523923332884
2025-03-24 17:07:13.005,3.9675584453084793
2025-03-24 17:07:13.005,-1.5994498155132686
2025-03-24 17:07:13.006,-7.124093059090452
2025-03-24 17:07:13.015,-7.115140944781743
2025-03-24 17:07:13.015,-0.4239343831217019
2025-03-24 17:07:13.015,7.23021003280726
2025-03-24 17:07:13.015,8.477594299242229
2025-03-24 17:07:13.016,2.228142291406859
2025-03-24 17:07:13.025,-5.171414207326143
2025-03-24 17:07:13.025,-6.99882084884191
2025-03-24 17:07:13.025,-2.874002376598392
2025-03-24 17:07:13.026,2.161698814293707
2025-03-24 17:07:13.026,3.7674016996843807
2025-03-24 17:07:13.035,2.1161818279961833
2025-03-24 17:07:13.035,0.17263037082047591
2025-03-24 17:07:13.035,-0.33325611439333136
2025-03-24 17:07:13.036,-0.44364764843862614
2025-03-24 17:07:13.036,-1.6560044327823253
2025-03-24 17:07:13.045,-2.93605571875454
2025-03-24 17:07:13.045,-1.4182340294911682
2025-03-24 17:07:13.045,3.2771347959863633
2025-03-24 17:07:13.046,6.713936303122944
2025-03-24 17:07:13.046,3.6446172132532846
2025-03-24 17:07:13.055,-5.14989881236108
2025-03-24 17:07:13.055,-11.462001013982245
2025-03-24 17:07:13.055,-7.185672556632756
2025-03-24 17:07:13.055,5.894775442088263
2025-03-24 17:07:13.055,15.611626589000881
2025-03-24 17:07:13.063,11.399806957065481
2025-03-24 17:07:13.063,-3.592460185710645
2025-03-24 17:07:13.063,-15.326825253389911
2025-03-24 17:07:13.064,-13.912523306735167
2025-03-24 17:07:13.073,-2.5430291697178
2025-03-24 17:07:13.073,8.728049032148677
2025-03-24 17:07:13.073,13.339215048788912
2025-03-24 17:07:13.073,10.245750726276821
2025-03-24 17:07:13.074,0.8346651702354922
2025-03-24 17:07:13.081,-10.548633126973598
2025-03-24 17:07:13.081,-15.364776369037278
2025-03-24 17:07:13.082,-7.406413283197927
2025-03-24 17:07:13.082,7.68118960760757
2025-03-24 17:07:13.091,15.173138930558794
2025-03-24 17:07:13.091,7.5295515001620466
2025-03-24 17:07:13.091,-5.920372053427081
2025-03-24 17:07:13.091,-10.208100256109121
2025-03-24 17:07:13.091,-2.911957239248342
2025-03-24 17:07:13.101,4.640846342753046
2025-03-24 17:07:13.101,3.500766807671591
2025-03-24 17:07:13.101,-2.132340371154306
2025-03-24 17:07:13.101,-2.8264807708325814
2025-03-24 17:07:13.102,2.2986925507231986
2025-03-24 17:07:13.111,5.048267387628203
2025-03-24 17:07:13.111,0.3480615658584855
2025-03-24 17:07:13.111,-6.337403941596502
2025-03-24 17:07:13.111,-6.121148049591159
2025-03-24 17:07:13.111,1.7062318889775545
2025-03-24 17:07:13.121,8.580174830068104
2025-03-24 17:07:13.121,6.74246414514671
2025-03-24 17:07:13.121,-2.0736372151278637
2025-03-24 17:07:13.121,-8.896045577945335
2025-03-24 17:07:13.122,-7.255147939664023
2025-03-24 17:07:13.131,0.5870496936212546
2025-03-24 17:07:13.131,6.953675359437743
2025-03-24 17:07:13.131,6.812010440246249
2025-03-24 17:07:13.131,1.6842890501803351
2025-03-24 17:07:13.132,-3.2694079563116296
2025-03-24 17:07:13.141,-4.499343917610651
2025-03-24 17:07:13.141,-2.612815580358635
2025-03-24 17:07:13.141,-0.6393876416205863
2025-03-24 17:07:13.141,-0.04941847588340692
2025-03-24 17:07:13.141,0.8256814875042744
2025-03-24 17:07:13.151,3.465750839081849
2025-03-24 17:07:13.151,5.447089456396914
2025-03-24 17:07:13.151,2.7000612248096223
2025-03-24 17:07:13.151,-4.328408009413811
2025-03-24 17:07:13.151,-9.324265561851764
2025-03-24 17:07:13.159,-6.358774959355162
2025-03-24 17:07:13.159,3.31107021288746
2025-03-24 17:07:13.160,11.346753116963734
2025-03-24 17:07:13.160,9.486700035408811
2025-03-24 17:07:13.160,-2.078475241324858
2025-03-24 17:07:13.169,-12.91589924916609
2025-03-24 17:07:13.169,-11.399519644336591
2025-03-24 17:07:13.169,2.233519391668834
2025-03-24 17:07:13.170,14.071051576556021
2025-03-24 17:07:13.177,11.129758473608955
2025-03-24 17:07:13.177,-3.4617600013838628
2025-03-24 17:07:13.178,-13.660850520906749
2025-03-24 17:07:13.178,-8.833448846124645
2025-03-24 17:07:13.178,4.717705326195269
2025-03-24 17:07:13.187,11.82263031051334
2025-03-24 17:07:13.187,5.5431201257853475
2025-03-24 17:07:13.187,-6.000594970023818
2025-03-24 17:07:13.188,-9.518176763128313
2025-03-24 17:07:13.197,-1.6615434447671822
2025-03-24 17:07:13.197,7.423231168824969
2025-03-24 17:07:13.197,6.5168576474758915
2025-03-24 17:07:13.198,-2.693900739959939
2025-03-24 17:07:13.198,-7.892041302657974
2025-03-24 17:07:13.207,-2.360173591499283
2025-03-24 17:07:13.207,6.334420935572963
2025-03-24 17:07:13.207,6.793985141050049
2025-03-24 17:07:13.207,-1.3706852601782624
2025-03-24 17:07:13.208,-7.950103330239263
2025-03-24 17:07:13.217,-5.464976720047402
2025-03-24 17:07:13.217,2.658694341422954
2025-03-24 17:07:13.217,7.493119936971376
2025-03-24 17:07:13.217,4.790177976424423
2025-03-24 17:07:13.217,-1.711978587988877
2025-03-24 17:07:13.227,-5.483298938234851
2025-03-24 17:07:13.227,-3.8959741110168777
2025-03-24 17:07:13.227,0.26094455609902484
2025-03-24 17:07:13.227,2.729869592478031
2025-03-24 17:07:13.227,2.147359130843284
2025-03-24 17:07:13.237,0.38125117207288384
2025-03-24 17:07:13.237,-0.4739852788660197
2025-03-24 17:07:13.237,-0.3171424352765512
2025-03-24 17:07:13.237,-0.2766417233787762
2025-03-24 17:07:13.237,-0.7053027881182914
2025-03-24 17:07:13.247,-0.6021702159942462
2025-03-24 17:07:13.247,0.8467719746550442
2025-03-24 17:07:13.247,2.252801464953265
2025-03-24 17:07:13.247,0.6881927221006863
2025-03-24 17:07:13.247,-3.9148434640972534
2025-03-24 17:07:13.255,-6.087961267161013
2025-03-24 17:07:13.255,-0.5298901185968358
2025-03-24 17:07:13.256,8.83865453387908
2025-03-24 17:07:13.256,10.710099850332893
2025-03-24 17:07:13.256,0.5806030958432589
2025-03-24 17:07:13.265,-11.365700261547515
2025-03-24 17:07:13.265,-11.772995714320604
2025-03-24 17:07:13.265,-0.8440404078909263
2025-03-24 17:07:13.266,8.441917951922871
2025-03-24 17:07:13.275,7.1669842208741015
2025-03-24 17:07:13.275,0.29687293869515197
2025-03-24 17:07:13.275,-2.2651759291218334
2025-03-24 17:07:13.276,0.7455648149240957
2025-03-24 17:07:13.276,1.9837999906641426
2025-03-24 17:07:13.285,-2.7596005062144484
2025-03-24 17:07:13.285,-7.899680563856573
2025-03-24 17:07:13.285,-5.119539222121159
2025-03-24 17:07:13.285,5.125921900562251
2025-03-24 17:07:13.286,12.29421207289405
2025-03-24 17:07:13.293,7.201915073713659
2025-03-24 17:07:13.294,-6.458174470418784
2025-03-24 17:07:13.294,-14.58233333248778
2025-03-24 17:07:13.294,-7.786801992701649
2025-03-24 17:07:13.294,7.600506746645387
2025-03-24 17:07:13.303,15.799839359677712
2025-03-24 17:07:13.303,8.361671438215577
2025-03-24 17:07:13.303,-7.212122304750091
2025-03-24 17:07:13.304,-15.708504298291896
2025-03-24 17:07:13.313,-9.530851041491422
2025-03-24 17:07:13.313,4.608660646012126
2025-03-24 17:07:13.313,13.232291862115979
2025-03-24 17:07:13.313,9.503208530172882
2025-03-24 17:07:13.314,-1.0679826163976909
2025-03-24 17:07:13.323,-7.949223353700383
2025-03-24 17:07:13.323,-6.894393696010291
2025-03-24 17:07:13.323,-2.065862869486397
2025-03-24 17:07:13.323,1.5211005375504039
2025-03-24 17:07:13.324,3.2738439240765334
2025-03-24 17:07:13.333,4.016810992009917
2025-03-24 17:07:13.333,2.593998571973922
2025-03-24 17:07:13.333,-1.2641232082623692
2025-03-24 17:07:13.333,-3.9904345782205604
2025-03-24 17:07:13.334,-2.259215834732648
2025-03-24 17:07:13.343,1.5760935052036271
2025-03-24 17:07:13.343,2.145648694572328
2025-03-24 17:07:13.343,-1.1997618233720613
2025-03-24 17:07:13.343,-3.1170552399189084
2025-03-24 17:07:13.343,0.17236090725289638
2025-03-24 17:07:13.351,5.031018209260342
2025-03-24 17:07:13.351,4.66605138771515
2025-03-24 17:07:13.352,-1.8262246967203222
2025-03-24 17:07:13.352,-7.535076617945912
2025-03-24 17:07:13.352,-5.736188573898007
2025-03-24 17:07:13.361,2.115840904835176
2025-03-24 17:07:13.361,8.08997037826657
2025-03-24 17:07:13.362,6.489372508801135
2025-03-24 17:07:13.362,-0.7869542315377258
2025-03-24 17:07:13.362,-6.956447093001624
2025-03-24 17:07:13.371,-6.82517063278063
2025-03-24 17:07:13.371,-0.9324482894209138
2025-03-24 17:07:13.372,5.225135351453511
2025-03-24 17:07:13.372,6.069472141781585
2025-03-24 17:07:13.372,1.1644411501831542
2025-03-24 17:07:13.381,-4.211254861746648
2025-03-24 17:07:13.381,-4.372275647645303
2025-03-24 17:07:13.382,0.6921903508573062
2025-03-24 17:07:13.382,5.012500008757463
2025-03-24 17:07:13.382,2.977728747262101
2025-03-24 17:07:13.391,-3.9085703626766484
2025-03-24 17:07:13.391,-7.610222121631178
2025-03-24 17:07:13.392,-2.426582554790471
2025-03-24 17:07:13.392,7.090629882487221
2025-03-24 17:07:13.401,9.929280697914175
2025-03-24 17:07:13.401,1.7930358315536505
2025-03-24 17:07:13.401,-8.431851354206355
2025-03-24 17:07:13.402,-8.930185612595912
2025-03-24 17:07:13.402,0.03749008057750658
2025-03-24 17:07:13.411,6.606257071146689
2025-03-24 17:07:13.411,3.39508276260404
2025-03-24 17:07:13.412,-2.887947681956528
2025-03-24 17:07:13.412,-1.9944252816546517
2025-03-24 17:07:13.412,4.399422468005111
2025-03-24 17:07:13.421,5.121090782401262
2025-03-24 17:07:13.421,-3.3523435637417056
2025-03-24 17:07:13.421,-10.267388456472444
2025-03-24 17:07:13.422,-5.049708498503477
2025-03-24 17:07:13.422,7.2045419870753875
2025-03-24 17:07:13.431,11.480612439850372
2025-03-24 17:07:13.431,2.539543483090032
2025-03-24 17:07:13.431,-8.286472370138785
2025-03-24 17:07:13.431,-8.250078417846748
2025-03-24 17:07:13.432,0.6935470147376132
2025-03-24 17:07:13.441,6.249502769103601
2025-03-24 17:07:13.441,2.965087373105813
2025-03-24 17:07:13.441,-2.2364925709381644
2025-03-24 17:07:13.441,-1.972242401468189
2025-03-24 17:07:13.442,1.3847982588624217
2025-03-24 17:07:13.451,1.2080639681678451
2025-03-24 17:07:13.451,-2.5161018120219034
2025-03-24 17:07:13.451,-3.5087097265755682
2025-03-24 17:07:13.451,0.9233374370558927
2025-03-24 17:07:13.452,5.53997580788093
2025-03-24 17:07:13.461,4.214633376278403
2025-03-24 17:07:13.461,-1.9735507128773002
2025-03-24 17:07:13.461,-6.320417627237965
2025-03-24 17:07:13.461,-4.611227348691746
2025-03-24 17:07:13.461,0.9237608216660916
2025-03-24 17:07:13.471,5.09695200286113
2025-03-24 17:07:13.471,4.8363945269625646
2025-03-24 17:07:13.471,0.934324411963527
2025-03-24 17:07:13.471,-3.157334085263878
2025-03-24 17:07:13.472,-4.020960103698709
2025-03-24 17:07:13.479,-1.313246811038073
2025-03-24 17:07:13.479,1.695309490222754
2025-03-24 17:07:13.480,1.7540176374067722
2025-03-24 17:07:13.480,-0.4269005759879117
2025-03-24 17:07:13.480,-1.2499990454631877
2025-03-24 17:07:13.489,0.8497281641364027
2025-03-24 17:07:13.490,3.1637040557197933
2025-03-24 17:07:13.490,2.068975900246594
2025-03-24 17:07:13.490,-2.3021891010289135
2025-03-24 17:07:13.490,-5.70148405507053
2025-03-24 17:07:13.501,-4.091691025009752
2025-03-24 17:07:13.501,1.9837792088384498
2025-03-24 17:07:13.501,7.427241682198867
2025-03-24 17:07:13.501,7.0097121162257325
2025-03-24 17:07:13.502,0.1361858473252141
2025-03-24 17:07:13.509,-8.143811211046799
2025-03-24 17:07:13.509,-10.631562088860802
2025-03-24 17:07:13.510,-3.6791680546265084
2025-03-24 17:07:13.510,8.43733044587581
2025-03-24 17:07:13.519,14.783124344829172
2025-03-24 17:07:13.519,7.027407946656632
2025-03-24 17:07:13.519,-9.752796542972897
2025-03-24 17:07:13.519,-18.609789043307533
2025-03-24 17:07:13.520,-8.172300629714076
2025-03-24 17:07:13.527,12.336449250439237
2025-03-24 17:07:13.527,21.045360390324504
2025-03-24 17:07:13.528,7.721060643004313
2025-03-24 17:07:13.528,-14.155289057859417
2025-03-24 17:07:13.537,-21.985500399874045
2025-03-24 17:07:13.537,-8.134270188858585
2025-03-24 17:07:13.537,13.071224028540765
2025-03-24 17:07:13.537,21.131356282781287
2025-03-24 17:07:13.538,9.731451789238628
2025-03-24 17:07:13.545,-8.809867361993886
2025-03-24 17:07:13.546,-17.38216040088447
2025-03-24 17:07:13.546,-10.42539634593235
2025-03-24 17:07:13.546,3.262326170539172
2025-03-24 17:07:13.555,11.296609656976791
2025-03-24 17:07:13.555,8.930369496170607
2025-03-24 17:07:13.555,0.6568181169097288
2025-03-24 17:07:13.555,-5.961607585439337
2025-03-24 17:07:13.556,-6.511623733357694
2025-03-24 17:07:13.565,-1.6771592957198826
2025-03-24 17:07:13.565,4.182663797102038
2025-03-24 17:07:13.565,5.860633928555909
2025-03-24 17:07:13.566,1.0929056214147868
2025-03-24 17:07:13.566,-6.238077958769056
2025-03-24 17:07:13.575,-8.03839769056899
2025-03-24 17:07:13.575,-0.42561980456761733
2025-03-24 17:07:13.575,9.786051757720717
2025-03-24 17:07:13.576,10.81994499116648
2025-03-24 17:07:13.576,-0.05735852976848321
2025-03-24 17:07:13.585,-11.56470908439775
2025-03-24 17:07:13.585,-10.876747551518609
2025-03-24 17:07:13.585,0.8403133682853619
2025-03-24 17:07:13.585,9.86672958500221
2025-03-24 17:07:13.586,6.949423502465239
2025-03-24 17:07:13.593,-2.064083023890498
2025-03-24 17:07:13.593,-5.341483994673494
2025-03-24 17:07:13.594,-0.808845526609066
2025-03-24 17:07:13.594,2.796847398901072
2025-03-24 17:07:13.603,-0.2588617240705687
2025-03-24 17:07:13.603,-4.46368852506118
2025-03-24 17:07:13.603,-1.916147038285468
2025-03-24 17:07:13.604,5.2301961526440435
2025-03-24 17:07:13.604,7.1010669513584945
2025-03-24 17:07:13.613,-0.07936958048430254
2025-03-24 17:07:13.613,-8.223457594306668
2025-03-24 17:07:13.613,-7.5080034102059905
2025-03-24 17:07:13.614,1.4064168210015278
2025-03-24 17:07:13.614,8.568479278909209
2025-03-24 17:07:13.623,6.669332535351698
2025-03-24 17:07:13.623,-1.345090763197693
2025-03-24 17:07:13.623,-6.718914895911128
2025-03-24 17:07:13.623,-4.682734164794677
2025-03-24 17:07:13.624,1.2815322441696848
2025-03-24 17:07:13.633,4.139913330832443
2025-03-24 17:07:13.633,1.266768196435927
2025-03-24 17:07:13.633,-2.8748612929833413
2025-03-24 17:07:13.634,-2.361097380159396
2025-03-24 17:07:13.634,2.6330636387032627
2025-03-24 17:07:13.643,5.694698580227623
2025-03-24 17:07:13.643,2.0817317347876334
2025-03-24 17:07:13.643,-5.032559239622523
2025-03-24 17:07:13.643,-7.80703758720536
2025-03-24 17:07:13.644,-2.640410665575222
2025-03-24 17:07:13.653,5.519167669595587
2025-03-24 17:07:13.653,8.21335641400069
2025-03-24 17:07:13.653,2.5324124138156106
2025-03-24 17:07:13.653,-5.544617506618949
2025-03-24 17:07:13.653,-7.566107142011956
2025-03-24 17:07:13.663,-1.8334717381160917
2025-03-24 17:07:13.663,5.278138852904337
2025-03-24 17:07:13.663,7.001943603197021
2025-03-24 17:07:13.663,2.862482685116188
2025-03-24 17:07:13.663,-2.915803771648745
2025-03-24 17:07:13.671,-6.697916562907427
2025-03-24 17:07:13.672,-6.82861897287278
2025-03-24 17:07:13.672,-2.269324655960222
2025-03-24 17:07:13.672,5.838811162993475
2025-03-24 17:07:13.672,11.522130476091462
2025-03-24 17:07:13.681,7.804254215156917
2025-03-24 17:07:13.681,-4.141841461107811
2025-03-24 17:07:13.681,-13.14963354683126
2025-03-24 17:07:13.682,-9.695647544781888
2025-03-24 17:07:13.691,2.2432184427559285
2025-03-24 17:07:13.691,9.735193855873447
2025-03-24 17:07:13.691,6.689435172302588
2025-03-24 17:07:13.692,-0.40164152276910436
2025-03-24 17:07:13.692,-3.220804456504747
2025-03-24 17:07:13.701,-1.9179650799884516
2025-03-24 17:07:13.701,-1.439444554696722
2025-03-24 17:07:13.701,-2.49010615738685
2025-03-24 17:07:13.702,-1.334726286685495
2025-03-24 17:07:13.702,3.0094589779373355
2025-03-24 17:07:13.711,5.955790927852298
2025-03-24 17:07:13.711,2.940818165402667
2025-03-24 17:07:13.711,-4.135899069236748
2025-03-24 17:07:13.711,-7.972467031642286
2025-03-24 17:07:13.711,-3.8369844289899384
2025-03-24 17:07:13.721,4.494530864661236
2025-03-24 17:07:13.721,8.347307717823051
2025-03-24 17:07:13.721,3.8621692047312326
2025-03-24 17:07:13.721,-3.673295959466173
2025-03-24 17:07:13.721,-6.265817405834665
2025-03-24 17:07:13.729,-2.3870739344965246
2025-03-24 17:07:13.729,2.2679222160736954
2025-03-24 17:07:13.730,2.4776431536572074
2025-03-24 17:07:13.730,-0.5028455815012897
2025-03-24 17:07:13.730,-1.583693838183033
2025-03-24 17:07:13.739,1.0313329363637678
2025-03-24 17:07:13.740,3.5032832447167443
2025-03-24 17:07:13.740,1.7071206072428908
2025-03-24 17:07:13.740,-2.820488796399686
2025-03-24 17:07:13.740,-4.544570958047673
2025-03-24 17:07:13.749,-1.312965848246328
2025-03-24 17:07:13.749,2.7134161211135868
2025-03-24 17:07:13.750,2.837498328869434
2025-03-24 17:07:13.750,0.00976420007901474
2025-03-24 17:07:13.759,-1.4083117453493876
2025-03-24 17:07:13.759,-0.29216158135153014
2025-03-24 17:07:13.759,0.5447050125655877
2025-03-24 17:07:13.760,-0.21735780028240984
2025-03-24 17:07:13.760,-0.4508864563871487
2025-03-24 17:07:13.769,0.9723836869640876
2025-03-24 17:07:13.769,1.5945318136276097
2025-03-24 17:07:13.769,-0.5935249054033782
2025-03-24 17:07:13.769,-3.2730168647580324
2025-03-24 17:07:13.770,-2.6713517493893777
2025-03-24 17:07:13.779,1.0864907143026956
2025-03-24 17:07:13.779,3.998363284624539
2025-03-24 17:07:13.779,3.199759258357924
2025-03-24 17:07:13.779,0.01716605750072714
2025-03-24 17:07:13.780,-2.2854219233746633
2025-03-24 17:07:13.789,-2.349145503620689
2025-03-24 17:07:13.789,-1.3656660695476206
2025-03-24 17:07:13.789,-0.6455417328876701
2025-03-24 17:07:13.789,0.036443704334150034
2025-03-24 17:07:13.790,1.3342653287484336
2025-03-24 17:07:13.799,2.6141572391750523
2025-03-24 17:07:13.799,2.333395030760722
2025-03-24 17:07:13.799,0.048878109175337546
2025-03-24 17:07:13.800,-2.5459307945513467
2025-03-24 17:07:13.800,-3.016699653843104
2025-03-24 17:07:13.809,-0.8732135416843991
2025-03-24 17:07:13.809,1.4454813175992796
2025-03-24 17:07:13.809,1.249537393396656
2025-03-24 17:07:13.809,-0.6766777246952606
2025-03-24 17:07:13.810,-0.7687174199044925
2025-03-24 17:07:13.819,1.9837359066186484
2025-03-24 17:07:13.819,3.636456010214349
2025-03-24 17:07:13.819,0.6089122759855976
2025-03-24 17:07:13.819,-4.308576464250414
2025-03-24 17:07:13.820,-4.885491477938089
2025-03-24 17:07:13.829,-0.09760483494323502
2025-03-24 17:07:13.829,4.085439463553421
2025-03-24 17:07:13.829,2.8131566016253036
2025-03-24 17:07:13.829,-1.1975075495391159
2025-03-24 17:07:13.830,-1.9742592475833804
2025-03-24 17:07:13.837,1.1524219783034961
2025-03-24 17:07:13.838,2.880904257648859
2025-03-24 17:07:13.838,-0.2691985046896837
2025-03-24 17:07:13.838,-4.687147502087968
2025-03-24 17:07:13.838,-4.144051977639052
2025-03-24 17:07:13.847,1.8047034831345492
2025-03-24 17:07:13.848,6.532328089646262
2025-03-24 17:07:13.848,4.244618338872979
2025-03-24 17:07:13.848,-2.6906779494829594
2025-03-24 17:07:13.848,-6.407151468207572
2025-03-24 17:07:13.857,-3.082715985947673
2025-03-24 17:07:13.858,2.6951388874720266
2025-03-24 17:07:13.858,4.251276346070996
2025-03-24 17:07:13.858,1.2481651438966803
2025-03-24 17:07:13.858,-1.1355477557745566
2025-03-24 17:07:13.867,-0.42169598933480423
2025-03-24 17:07:13.867,0.1806876219298042
2025-03-24 17:07:13.868,-1.7039316618762035
2025-03-24 17:07:13.868,-2.786161594737147
2025-03-24 17:07:13.877,0.27721778743491793
2025-03-24 17:07:13.877,3.8657427029415863
2025-03-24 17:07:13.877,1.8896579285844575
2025-03-24 17:07:13.878,-3.765349386685902
2025-03-24 17:07:13.878,-4.085445173346139
2025-03-24 17:07:13.887,3.6974325628091536
2025-03-24 17:07:13.887,9.67002568914283
2025-03-24 17:07:13.887,3.5390568142983843
2025-03-24 17:07:13.887,-9.896739656772368
2025-03-24 17:07:13.888,-14.685022550851954
2025-03-24 17:07:13.897,-3.7431215928254966
2025-03-24 17:07:13.897,11.475293866375386
2025-03-24 17:07:13.897,14.815260634783614
2025-03-24 17:07:13.897,4.37863232914853
2025-03-24 17:07:13.898,-7.3147697708780095
2025-03-24 17:07:13.907,-9.532366381109647
2025-03-24 17:07:13.907,-3.838355289213334
2025-03-24 17:07:13.907,1.5498011224124368
2025-03-24 17:07:13.908,2.4498950029460405
2025-03-24 17:07:13.908,1.1660881143545971
2025-03-24 17:07:13.917,1.2077369441517949
2025-03-24 17:07:13.917,2.686759882345617
2025-03-24 17:07:13.917,2.762776695300316
2025-03-24 17:07:13.917,-0.5509839897729185
2025-03-24 17:07:13.917,-5.218623382703578
2025-03-24 17:07:13.927,-6.240211463282625
2025-03-24 17:07:13.927,-0.9691553244603444
2025-03-24 17:07:13.927,6.686292664187605
2025-03-24 17:07:13.927,8.937569554581872
2025-03-24 17:07:13.928,2.133249033244578
2025-03-24 17:07:13.935,-8.26860042205876
2025-03-24 17:07:13.936,-11.940480403619505
2025-03-24 17:07:13.936,-3.915968722006977
2025-03-24 17:07:13.936,9.322737859487738
2025-03-24 17:07:13.945,15.041254481848496
2025-03-24 17:07:13.945,6.7806068279222975
2025-03-24 17:07:13.945,-8.293872640823864
2025-03-24 17:07:13.946,-15.797626747862587
2025-03-24 17:07:13.946,-8.708455116759936
2025-03-24 17:07:13.955,5.2597399800464615
2025-03-24 17:07:13.955,12.11160800672859
2025-03-24 17:07:13.955,6.742473092783732
2025-03-24 17:07:13.955,-2.561608102467326
2025-03-24 17:07:13.956,-5.111436170188218
2025-03-24 17:07:13.963,-0.3834570962088899
2025-03-24 17:07:13.964,2.8829943459593292
2025-03-24 17:07:13.964,-1.2022202641804036
2025-03-24 17:07:13.964,-7.771365593279507
2025-03-24 17:07:13.964,-6.875008103089407
2025-03-24 17:07:13.973,3.8654739204832835
2025-03-24 17:07:13.973,14.321792008142642
2025-03-24 17:07:13.974,11.792703385483305
2025-03-24 17:07:13.974,-3.6859247058156726
2025-03-24 17:07:13.983,-16.89131685793357
2025-03-24 17:07:13.983,-13.438839678668831
2025-03-24 17:07:13.983,3.198496452701518
2025-03-24 17:07:13.983,15.036446083853361
2025-03-24 17:07:13.983,10.335485528856427
2025-03-24 17:07:13.991,-3.5359772673706287
2025-03-24 17:07:13.991,-10.410771129336275
2025-03-24 17:07:13.992,-4.680430601008046
2025-03-24 17:07:13.992,4.255579172531787
2025-03-24 17:07:14.001,5.544489732117283
2025-03-24 17:07:14.001,-0.4475912972084207
2025-03-24 17:07:14.002,-4.900444352027639
2025-03-24 17:07:14.002,-2.3924589504607647
2025-03-24 17:07:14.002,3.5174597514066965
2025-03-24 17:07:14.011,5.6699639788692044
2025-03-24 17:07:14.011,1.5088961581693598
2025-03-24 17:07:14.011,-4.649546503877699
2025-03-24 17:07:14.012,-6.40086584447981
2025-03-24 17:07:14.012,-1.893599490564559
2025-03-24 17:07:14.021,4.197247078719471
2025-03-24 17:07:14.021,5.721827653669152
2025-03-24 17:07:14.021,1.9015204564858408
2025-03-24 17:07:14.021,-2.2292388486587633
2025-03-24 17:07:14.022,-2.5093515560635504
2025-03-24 17:07:14.031,-0.5733684874630744
2025-03-24 17:07:14.031,-0.38382025508639156
2025-03-24 17:07:14.031,-1.9051354204136561
2025-03-24 17:07:14.031,-1.555047693967575
2025-03-24 17:07:14.032,1.6547369332257327
2025-03-24 17:07:14.039,4.189433512498719
2025-03-24 17:07:14.040,3.0361728775154546
2025-03-24 17:07:14.040,-0.40910858773579223
2025-03-24 17:07:14.040,-2.7787774894112083
2025-03-24 17:07:14.040,-2.675750458929382
2025-03-24 17:07:14.049,-1.1394896822581557
2025-03-24 17:07:14.050,-0.06060236083949466
2025-03-24 17:07:14.050,-0.49324321359764467
2025-03-24 17:07:14.050,-0.9829500688051218
2025-03-24 17:07:14.059,1.4101724828127966
2025-03-24 17:07:14.059,6.083179405768246
2025-03-24 17:07:14.059,6.8997233500134065
2025-03-24 17:07:14.059,-0.5460297331586635
2025-03-24 17:07:14.060,-10.701050702020089
2025-03-24 17:07:14.067,-12.255425014565592
2025-03-24 17:07:14.068,-1.731008539930499
2025-03-24 17:07:14.068,11.069914542984199
2025-03-24 17:07:14.068,13.468219461651517
2025-03-24 17:07:14.068,3.6762395124488303
2025-03-24 17:07:14.077,-7.9644279227752195
2025-03-24 17:07:14.078,-10.585784119167712
2025-03-24 17:07:14.078,-3.5539510959480403
2025-03-24 17:07:14.078,4.636859500025501
2025-03-24 17:07:14.087,6.293768071036142
2025-03-24 17:07:14.087,1.5843896852893566
2025-03-24 17:07:14.087,-3.4850389796456684
2025-03-24 17:07:14.088,-3.7877120014243557
2025-03-24 17:07:14.088,0.6097451534292937
2025-03-24 17:07:14.097,5.009242070627651
2025-03-24 17:07:14.097,4.295715364263861
2025-03-24 17:07:14.097,-1.9615336238581424
2025-03-24 17:07:14.098,-7.991053617931353
2025-03-24 17:07:14.098,-6.834002828408465
2025-03-24 17:07:14.107,1.987493981163588
2025-03-24 17:07:14.107,10.603549487838611
2025-03-24 17:07:14.107,10.001587752894723
2025-03-24 17:07:14.107,-0.4951340435818212
2025-03-24 17:07:14.108,-11.539456251156945
2025-03-24 17:07:14.115,-12.406310484232616
2025-03-24 17:07:14.115,-1.825742529259033
2025-03-24 17:07:14.116,10.194701469415051
2025-03-24 17:07:14.116,12.265689490142286
2025-03-24 17:07:14.125,3.3496266693432752
2025-03-24 17:07:14.125,-6.6129874743043215
2025-03-24 17:07:14.125,-8.19262970093647
2025-03-24 17:07:14.125,-2.589092926864014
2025-03-24 17:07:14.126,1.7160023297155793
2025-03-24 17:07:14.135,0.7517263126292146
2025-03-24 17:07:14.135,-0.6233605732611935
2025-03-24 17:07:14.136,2.697842466412876
2025-03-24 17:07:14.136,7.168600604937871
2025-03-24 17:07:14.136,4.641914213996271
2025-03-24 17:07:14.145,-5.336395832388935
2025-03-24 17:07:14.145,-12.192008197373239
2025-03-24 17:07:14.145,-6.526774114454781
2025-03-24 17:07:14.145,6.757838101805904
2025-03-24 17:07:14.146,12.68035580943599
2025-03-24 17:07:14.153,4.391421058995339
2025-03-24 17:07:14.154,-7.8703961864209235
2025-03-24 17:07:14.154,-9.617053324157695
2025-03-24 17:07:14.154,-0.10171240440251106
2025-03-24 17:07:14.154,8.092246009701379
2025-03-24 17:07:14.163,5.874877282268379
2025-03-24 17:07:14.163,-2.258470901308273
2025-03-24 17:07:14.164,-6.23306798105053
2025-03-24 17:07:14.164,-3.2414856242879666
2025-03-24 17:07:14.175,1.0827574915296299
2025-03-24 17:07:14.175,1.8066012182991449
2025-03-24 17:07:14.175,0.5599302488387976
2025-03-24 17:07:14.175,1.4479367195624433
2025-03-24 17:07:14.175,4.06105319070624
2025-03-24 17:07:14.176,3.534620742148719
2025-03-24 17:07:14.183,-2.3409588994467905
2025-03-24 17:07:14.184,-8.552871985369913
2025-03-24 17:07:14.184,-7.679525929588736
2025-03-24 17:07:14.184,0.990512797885745
2025-03-24 17:07:14.184,9.38886302011953
2025-03-24 17:07:14.193,9.10867026013152
2025-03-24 17:07:14.193,0.8216602464330445
2025-03-24 17:07:14.194,-6.67057761749857
2025-03-24 17:07:14.194,-6.679405571760131
2025-03-24 17:07:14.205,-1.5597715573629307
2025-03-24 17:07:14.205,1.893086727535286
2025-03-24 17:07:14.205,1.5975048098266287
2025-03-24 17:07:14.205,1.3039423629142344
2025-03-24 17:07:14.205,3.197326397072646
2025-03-24 17:07:14.206,3.861388090558148
2025-03-24 17:07:14.213,-0.22879296211924932
2025-03-24 17:07:14.214,-6.294585711979886
2025-03-24 17:07:14.214,-7.773933342404307
2025-03-24 17:07:14.214,-2.325720327827476
2025-03-24 17:07:14.223,5.390143278099498
2025-03-24 17:07:14.223,8.87909599377458
2025-03-24 17:07:14.223,5.8768405959091545
2025-03-24 17:07:14.224,-0.7692308812970603
2025-03-24 17:07:14.224,-6.398004663248562
2025-03-24 17:07:14.233,-7.841546777720257
2025-03-24 17:07:14.233,-4.6835377002300795
2025-03-24 17:07:14.234,1.0610817899234448
2025-03-24 17:07:14.234,6.08610891316292
2025-03-24 17:07:14.234,7.505522003766446
2025-03-24 17:07:14.243,4.482693518325504
2025-03-24 17:07:14.243,-1.2957832226304498
2025-03-24 17:07:14.243,-6.494550739592588
2025-03-24 17:07:14.243,-7.717569892297762
2025-03-24 17:07:14.244,-3.5717538945010614
2025-03-24 17:07:14.253,3.49279234098933
2025-03-24 17:07:14.253,7.981881335320162
2025-03-24 17:07:14.253,5.884352082792032
2025-03-24 17:07:14.253,-1.0200247204741748
2025-03-24 17:07:14.254,-6.431005016445829
2025-03-24 17:07:14.263,-5.651069978238505
2025-03-24 17:07:14.263,0.05363072409759223
2025-03-24 17:07:14.263,5.141754551736391
2025-03-24 17:07:14.263,5.025361925375189
2025-03-24 17:07:14.263,-0.18663052614133407
2025-03-24 17:07:14.273,-5.726323029350973
2025-03-24 17:07:14.273,-5.6841400445289585
2025-03-24 17:07:14.273,1.374919304681864
2025-03-24 17:07:14.273,8.877613660580122
2025-03-24 17:07:14.273,7.0484785003985015
2025-03-24 17:07:14.281,-5.025723172690878
2025-03-24 17:07:14.282,-14.291080079388815
2025-03-24 17:07:14.282,-7.178457047888028
2025-03-24 17:07:14.282,11.328219682766386
2025-03-24 17:07:14.291,19.813310013935162
2025-03-24 17:07:14.291,5.91275904044381
2025-03-24 17:07:14.292,-16.510197649390694
2025-03-24 17:07:14.292,-22.504140439848047
2025-03-24 17:07:14.292,-5.356776703486413
2025-03-24 17:07:14.299,16.321401624255163
2025-03-24 17:07:14.300,20.76788023590975
2025-03-24 17:07:14.300,6.17707650959904
2025-03-24 17:07:14.300,-10.720085261182085
2025-03-24 17:07:14.309,-14.757510803933641
2025-03-24 17:07:14.309,-6.383737967430605
2025-03-24 17:07:14.310,3.310324981470564
2025-03-24 17:07:14.310,6.493039280100435
2025-03-24 17:07:14.310,4.489917461838034
2025-03-24 17:07:14.319,2.079813971843656
2025-03-24 17:07:14.319,0.5737934695338099
2025-03-24 17:07:14.319,-1.626177915507164
2025-03-24 17:07:14.320,-4.170470145325729
2025-03-24 17:07:14.320,-3.9925628259913317
2025-03-24 17:07:14.329,0.1165185508864188
2025-03-24 17:07:14.329,4.5679453648023225
2025-03-24 17:07:14.329,4.44625373211606
2025-03-24 17:07:14.330,-0.6644057690467847
2025-03-24 17:07:14.330,-5.630989903662981
2025-03-24 17:07:14.339,-4.843738926280796
2025-03-24 17:07:14.339,1.7884807572608397
2025-03-24 17:07:14.340,7.959977292758716
2025-03-24 17:07:14.340,6.776281801008965
2025-03-24 17:07:14.340,-1.746884470079474
2025-03-24 17:07:14.349,-9.6413821361674
2025-03-24 17:07:14.349,-8.820432330865945
2025-03-24 17:07:14.350,0.19967037704032886
2025-03-24 17:07:14.350,8.687313992115222
2025-03-24 17:07:14.350,8.844870189105588
2025-03-24 17:07:14.359,1.458633068558282
2025-03-24 17:07:14.359,-5.758269240845217
2025-03-24 17:07:14.359,-6.43909559481976
2025-03-24 17:07:14.360,-1.4869842321478632
2025-03-24 17:07:14.360,3.0049955286611256
2025-03-24 17:07:14.369,2.8752279783108263
2025-03-24 17:07:14.369,-0.08506222031897787
2025-03-24 17:07:14.370,-1.3906946060995247
2025-03-24 17:07:14.370,0.22072655214091721
2025-03-24 17:07:14.370,1.716140991092349
2025-03-24 17:07:14.379,0.41130740303726165
2025-03-24 17:07:14.379,-2.1850872178547474
2025-03-24 17:07:14.379,-2.4374615302286795
2025-03-24 17:07:14.380,0.4028890622388934
2025-03-24 17:07:14.380,3.075306612455328
2025-03-24 17:07:14.389,2.4985279019174493
2025-03-24 17:07:14.389,-0.4548077389686253
2025-03-24 17:07:14.389,-2.4615499090568735
2025-03-24 17:07:14.389,-2.073770164831778
2025-03-24 17:07:14.389,-0.8844487942218389
2025-03-24 17:07:14.399,-0.39888438078940563
2025-03-24 17:07:14.399,0.3627332512097543
2025-03-24 17:07:14.399,2.7449007363007376
2025-03-24 17:07:14.400,4.953143053304386
2025-03-24 17:07:14.400,3.055484409124695
2025-03-24 17:07:14.408,-3.489501027445919
2025-03-24 17:07:14.408,-8.929003913800699
2025-03-24 17:07:14.408,-6.467603826582761
2025-03-24 17:07:14.408,3.024815963419534
2025-03-24 17:07:14.408,10.087302461639954
2025-03-24 17:07:14.417,6.910490957796446
2025-03-24 17:07:14.417,-2.85981743000641
2025-03-24 17:07:14.418,-8.035320421763773
2025-03-24 17:07:14.418,-3.5660890838573933
2025-03-24 17:07:14.427,3.695388573682794
2025-03-24 17:07:14.427,4.536673133914182
2025-03-24 17:07:14.427,-0.972347066304433
2025-03-24 17:07:14.428,-4.7432489596362934
2025-03-24 17:07:14.428,-1.7590018354960795
2025-03-24 17:07:14.437,3.894034387611611
2025-03-24 17:07:14.437,4.7938202805501025
2025-03-24 17:07:14.437,-0.20399281558634363
2025-03-24 17:07:14.438,-4.439198473552345
2025-03-24 17:07:14.438,-2.2763311570155396
2025-03-24 17:07:14.447,2.7165948397224975
2025-03-24 17:07:14.447,2.3044799901042223
2025-03-24 17:07:14.448,-3.7632364738065456
2025-03-24 17:07:14.448,-5.6184591659269145
2025-03-24 17:07:14.448,2.5111368983416003
2025-03-24 17:07:14.455,11.41456419095343
2025-03-24 17:07:14.455,7.509313000629279
2025-03-24 17:07:14.456,-7.6951682707438
2025-03-24 17:07:14.456,-16.956982011860624
2025-03-24 17:07:14.456,-8.221707365704393
2025-03-24 17:07:14.465,9.900383456289731
2025-03-24 17:07:14.466,18.00594786484674
2025-03-24 17:07:14.466,8.29114787401461
2025-03-24 17:07:14.466,-7.819146188643085
2025-03-24 17:07:14.475,-14.175548404758727
2025-03-24 17:07:14.475,-7.396796900381634
2025-03-24 17:07:14.476,2.6449847436458924
2025-03-24 17:07:14.476,6.608036690162786
2025-03-24 17:07:14.476,4.9166876027152595
2025-03-24 17:07:14.485,2.947987290031824
2025-03-24 17:07:14.485,2.0210037800576854
2025-03-24 17:07:14.485,-0.8632650185614601
2025-03-24 17:07:14.486,-6.067857448534848
2025-03-24 17:07:14.486,-8.599465818236071
2025-03-24 17:07:14.495,-3.9203784620388524
2025-03-24 17:07:14.495,5.493613146182609
2025-03-24 17:07:14.495,11.396819093209398
2025-03-24 17:07:14.495,7.7754268093485885
2025-03-24 17:07:14.496,-2.748573456505269
2025-03-24 17:07:14.505,-10.692622553663053
2025-03-24 17:07:14.505,-8.627837176391447
2025-03-24 17:07:14.505,0.9626168377418842
2025-03-24 17:07:14.505,7.7483317243820595
2025-03-24 17:07:14.506,5.042016491647107
2025-03-24 17:07:14.515,-2.088156131824702
2025-03-24 17:07:14.515,-3.4327387970961216
2025-03-24 17:07:14.515,2.263720983529313
2025-03-24 17:07:14.515,5.147326783489138
2025-03-24 17:07:14.516,-1.5084187120366441
2025-03-24 17:07:14.523,-10.184939750578272
2025-03-24 17:07:14.524,-7.988437756716917
2025-03-24 17:07:14.524,5.4361982568266125
2025-03-24 17:07:14.524,15.462874846723848
2025-03-24 17:07:14.533,9.745553680918745
2025-03-24 17:07:14.533,-6.5608303618887
2025-03-24 17:07:14.533,-16.483122021335976
2025-03-24 17:07:14.534,-10.364414128796001
2025-03-24 17:07:14.534,4.416901712385407
2025-03-24 17:07:14.541,13.074296618202677
2025-03-24 17:07:14.542,9.36541745646528
2025-03-24 17:07:14.542,-0.28284582309211703
2025-03-24 17:07:14.542,-6.457067176777197
2025-03-24 17:07:14.542,-6.511519941906663
2025-03-24 17:07:14.551,-3.710731070230041
2025-03-24 17:07:14.552,-0.4208639590648649
2025-03-24 17:07:14.552,3.509239899541539
2025-03-24 17:07:14.552,6.331712699707113
2025-03-24 17:07:14.552,3.876614749762964
2025-03-24 17:07:14.561,-3.573144512344599
2025-03-24 17:07:14.562,-7.971018849907485
2025-03-24 17:07:14.562,-2.4589424298723306
2025-03-24 17:07:14.562,7.790078983347661
2025-03-24 17:07:14.571,9.709855054173092
2025-03-24 17:07:14.571,-1.1686658051173864
2025-03-24 17:07:14.571,-13.256851956636826
2025-03-24 17:07:14.572,-11.765771196396258
2025-03-24 17:07:14.572,3.21002106182755
2025-03-24 17:07:14.579,15.880566917499612
2025-03-24 17:07:14.580,12.606249017143385
2025-03-24 17:07:14.580,-2.796643126355647
2025-03-24 17:07:14.580,-13.966838205465315
2025-03-24 17:07:14.589,-10.525508903448868
2025-03-24 17:07:14.589,1.6336175930014445
2025-03-24 17:07:14.589,8.986520496640674
2025-03-24 17:07:14.589,5.992351042599901
2025-03-24 17:07:14.590,-0.8819590923392371
2025-03-24 17:07:14.599,-3.377176181560455
2025-03-24 17:07:14.599,-1.3024010184154702
2025-03-24 17:07:14.599,-0.12891813440138025
2025-03-24 17:07:14.600,-1.7482592097173761
2025-03-24 17:07:14.600,-2.055017552788188
2025-03-24 17:07:14.609,1.929032897518491
2025-03-24 17:07:14.609,6.354377085169023
2025-03-24 17:07:14.609,4.809137821866029
2025-03-24 17:07:14.609,-2.960211812329943
2025-03-24 17:07:14.610,-9.539763955608807
2025-03-24 17:07:14.619,-7.895230988073131
2025-03-24 17:07:14.619,0.8099200900309811
2025-03-24 17:07:14.619,8.840946667777335
2025-03-24 17:07:14.619,10.103727010681675
2025-03-24 17:07:14.620,4.772806091006413
2025-03-24 17:07:14.627,-3.140193109691146
2025-03-24 17:07:14.627,-9.362312369991884
2025-03-24 17:07:14.628,-10.199788408715998
2025-03-24 17:07:14.628,-4.026526821945097
2025-03-24 17:07:14.637,5.482725918073423
2025-03-24 17:07:14.637,10.522898454409587
2025-03-24 17:07:14.637,6.89199696637064
2025-03-24 17:07:14.638,-0.8745407013537028
2025-03-24 17:07:14.638,-4.875323286929243
2025-03-24 17:07:14.645,-3.220134349496637
2025-03-24 17:07:14.646,-1.0301052618807855
2025-03-24 17:07:14.646,-2.2969180256145374
2025-03-24 17:07:14.646,-4.082815648781073
2025-03-24 17:07:14.646,-0.9534284468675062
2025-03-24 17:07:14.655,6.322482925296906
2025-03-24 17:07:14.655,9.886932730185157
2025-03-24 17:07:14.656,4.120625992210748
2025-03-24 17:07:14.656,-6.2979031808341235
2025-03-24 17:07:14.665,-10.774239452907214
2025-03-24 17:07:14.665,-5.028713329558756
2025-03-24 17:07:14.666,4.143752200177268
2025-03-24 17:07:14.666,7.358269984961277
2025-03-24 17:07:14.666,3.1466644028851585
2025-03-24 17:07:14.675,-2.096303023464224
2025-03-24 17:07:14.675,-2.80995762403598
2025-03-24 17:07:14.676,-0.04222726725616649
2025-03-24 17:07:14.676,1.4006687692744866
2025-03-24 17:07:14.676,-0.5992690774716836
2025-03-24 17:07:14.685,-3.1365861548321567
2025-03-24 17:07:14.685,-2.1068669903897375
2025-03-24 17:07:14.685,2.4598857903872173
2025-03-24 17:07:14.686,5.788076624833173
2025-03-24 17:07:14.686,3.5763916863125735
2025-03-24 17:07:14.695,-2.7411746379239688
2025-03-24 17:07:14.695,-7.042456645680841
2025-03-24 17:07:14.696,-5.013174873235514
2025-03-24 17:07:14.696,1.294842616658909
2025-03-24 17:07:14.696,5.968332924488877
2025-03-24 17:07:14.705,5.522145264539628
2025-03-24 17:07:14.705,1.5540505676151701
2025-03-24 17:07:14.705,-2.3911410989732063
2025-03-24 17:07:14.705,-4.536035835961164
2025-03-24 17:07:14.706,-4.653167652143958
2025-03-24 17:07:14.715,-2.2867977356711906
2025-03-24 17:07:14.715,2.3501179656801474
2025-03-24 17:07:14.715,6.330959188874041
2025-03-24 17:07:14.716,5.6250530684467765
2025-03-24 17:07:14.716,-0.10801080454385106
2025-03-24 17:07:14.725,-5.870360879474176
2025-03-24 17:07:14.725,-6.116393210851636
2025-03-24 17:07:14.725,-0.8528616544080907
2025-03-24 17:07:14.725,4.340052487986608
2025-03-24 17:07:14.726,4.499288838827685
2025-03-24 17:07:14.735,0.3914455686935506
2025-03-24 17:07:14.735,-3.0661046444229862
2025-03-24 17:07:14.735,-2.637069049298602
2025-03-24 17:07:14.736,0.08031858154598195
2025-03-24 17:07:14.736,1.5057442427792325
2025-03-24 17:07:14.745,0.9952100985128478
2025-03-24 17:07:14.745,1.078357824527441
2025-03-24 17:07:14.745,2.4097969638560937
2025-03-24 17:07:14.745,1.3834042923802101
2025-03-24 17:07:14.746,-4.15955569344412
2025-03-24 17:07:14.755,-8.854445870112988
2025-03-24 17:07:14.755,-4.708015952872289
2025-03-24 17:07:14.755,7.130041497027856
2025-03-24 17:07:14.755,14.560434011681243
2025-03-24 17:07:14.755,7.945935380076464
2025-03-24 17:07:14.763,-7.377461990312571
2025-03-24 17:07:14.764,-16.03208266056561
2025-03-24 17:07:14.764,-9.576299266910311
2025-03-24 17:07:14.764,4.755021774236251
2025-03-24 17:07:14.773,12.910174231839598
2025-03-24 17:07:14.773,8.773950597341415
2025-03-24 17:07:14.774,-1.5627207228948639
2025-03-24 17:07:14.774,-8.028107896913342
2025-03-24 17:07:14.774,-6.306202174194336
2025-03-24 17:07:14.783,0.02728106899834032
2025-03-24 17:07:14.783,4.473641650853136
2025-03-24 17:07:14.783,3.7062118468827716
2025-03-24 17:07:14.783,-0.2731451789025772
2025-03-24 17:07:14.784,-2.9534087757869107
2025-03-24 17:07:14.793,-1.9480066547610506
2025-03-24 17:07:14.793,1.0324709076024627
2025-03-24 17:07:14.793,2.4428501488390757
2025-03-24 17:07:14.793,0.8032970324682169
2025-03-24 17:07:14.794,-1.7898477405093534
2025-03-24 17:07:14.803,-2.1132651731064502
2025-03-24 17:07:14.803,0.39999478532679367
2025-03-24 17:07:14.803,2.860270917477817
2025-03-24 17:07:14.804,2.1537347356918235
2025-03-24 17:07:14.804,-1.4452700892212444
2025-03-24 17:07:14.813,-4.305308582095891
2025-03-24 17:07:14.813,-3.057594617979353
2025-03-24 17:07:14.813,1.7927633498738718
2025-03-24 17:07:14.814,5.781385337004975
2025-03-24 17:07:14.814,4.4773903242928625
2025-03-24 17:07:14.823,-1.718434496442218
2025-03-24 17:07:14.823,-6.9971782443848936
2025-03-24 17:07:14.823,-5.564871084411344
2025-03-24 17:07:14.823,1.8094772550492868
2025-03-24 17:07:14.824,7.729910998727306
2025-03-24 17:07:14.832,5.8709258878197685
2025-03-24 17:07:14.832,-1.8528449334467827
2025-03-24 17:07:14.832,-7.368721135616987
2025-03-24 17:07:14.832,-5.492662109269659
2025-03-24 17:07:14.832,0.9808750190199671
2025-03-24 17:07:14.841,5.49345191605045
2025-03-24 17:07:14.842,4.842735639840542
2025-03-24 17:07:14.842,0.9322247956306389
2025-03-24 17:07:14.842,-2.7580059298735833
2025-03-24 17:07:14.842,-4.296202612669846
2025-03-24 17:07:14.853,-3.236081880162271
2025-03-24 17:07:14.853,0.3326154000486955
2025-03-24 17:07:14.854,4.845031181862467
2025-03-24 17:07:14.854,6.104811010511659
2025-03-24 17:07:14.854,0.5290770881343735
2025-03-24 17:07:14.862,-8.362059321782496
2025-03-24 17:07:14.862,-10.142315261188704
2025-03-24 17:07:14.862,0.7429055637439061
2025-03-24 17:07:14.862,14.658589893570328
2025-03-24 17:07:14.871,14.762709491306994
2025-03-24 17:07:14.871,-2.5210745444922478
2025-03-24 17:07:14.871,-20.127115424089247
2025-03-24 17:07:14.872,-18.059108138730338
2025-03-24 17:07:14.872,3.1873031861560728
2025-03-24 17:07:14.879,21.504153909180616
2025-03-24 17:07:14.879,17.24251472299981
2025-03-24 17:07:14.880,-4.276100346317206
2025-03-24 17:07:14.880,-18.58350498286127
2025-03-24 17:07:14.889,-10.741005901037871
2025-03-24 17:07:14.889,7.422544895463938
2025-03-24 17:07:14.889,13.190851683017693
2025-03-24 17:07:14.889,1.4995976024035491
2025-03-24 17:07:14.890,-10.657197770772509
2025-03-24 17:07:14.898,-7.843510647072974
2025-03-24 17:07:14.898,4.854636844620304
2025-03-24 17:07:14.898,10.857200447988646
2025-03-24 17:07:14.898,3.96959131236048
2025-03-24 17:07:14.898,-5.86634649036907
2025-03-24 17:07:14.907,-7.236073766112778
2025-03-24 17:07:14.908,-0.8922453193003795
2025-03-24 17:07:14.908,3.841388108578117
2025-03-24 17:07:14.908,2.0561463877206547
2025-03-24 17:07:14.917,-2.0569994913250036
2025-03-24 17:07:14.918,-2.5624434306481145
2025-03-24 17:07:14.918,0.762213353140383
2025-03-24 17:07:14.918,3.798661340155945
2025-03-24 17:07:14.918,3.7103199878322957
2025-03-24 17:07:14.918,0.821613106548345
2025-03-24 17:07:14.927,-3.085477272422201
2025-03-24 17:07:14.927,-5.706625183157514
2025-03-24 17:07:14.928,-4.5901833830744305
2025-03-24 17:07:14.928,0.5656665533214595
2025-03-24 17:07:14.937,5.952450674487219
2025-03-24 17:07:14.937,6.457999326503364
2025-03-24 17:07:14.938,1.4359563926902745
2025-03-24 17:07:14.938,-3.9843288203216227
2025-03-24 17:07:14.938,-4.674273667986521
2025-03-24 17:07:14.947,-1.314828855920823
2025-03-24 17:07:14.948,1.3866251445703093
2025-03-24 17:07:14.948,1.2596736343997996
2025-03-24 17:07:14.948,0.498812462761537
2025-03-24 17:07:14.948,0.7830454690870375
2025-03-24 17:07:14.948,0.3250263823431525
2025-03-24 17:07:14.957,-2.02130875925941
2025-03-24 17:07:14.958,-2.9645544765781606
2025-03-24 17:07:14.958,0.8753698489251972
2025-03-24 17:07:14.958,6.267240315116894
2025-03-24 17:07:14.958,5.735840636346766
2025-03-24 17:07:14.967,-2.4069387553739965
2025-03-24 17:07:14.968,-10.092138736756334
2025-03-24 17:07:14.968,-8.22721822682498
2025-03-24 17:07:14.968,2.1577563487030678
2025-03-24 17:07:14.977,10.383198228683963
2025-03-24 17:07:14.977,8.127486397999526
2025-03-24 17:07:14.977,-1.2056015966532265
2025-03-24 17:07:14.978,-6.95123633426158
2025-03-24 17:07:14.978,-4.032831008776686
2025-03-24 17:07:14.987,1.6890798131858733
2025-03-24 17:07:14.987,2.10281144065281
2025-03-24 17:07:14.987,-2.2088718658393898
2025-03-24 17:07:14.988,-3.5284124136196264
2025-03-24 17:07:14.988,1.5137209329763737
2025-03-24 17:07:14.997,6.831553274113943
2025-03-24 17:07:14.997,5.045561991899958
2025-03-24 17:07:14.997,-2.6604006649319247
2025-03-24 17:07:14.998,-7.958230253427
2025-03-24 17:07:14.998,-5.38120658082597
2025-03-24 17:07:15.007,1.8791584557786427
2025-03-24 17:07:15.007,6.3716121206149605
2025-03-24 17:07:15.007,4.596356742246753
2025-03-24 17:07:15.008,-0.359383553814822
2025-03-24 17:07:15.008,-3.431645832043886
2025-03-24 17:07:15.017,-2.9553754334148903
2025-03-24 17:07:15.017,-0.9291492073626557
2025-03-24 17:07:15.017,0.45573681383191655
2025-03-24 17:07:15.018,0.8759569776694514
2025-03-24 17:07:15.018,1.0152346330999458
2025-03-24 17:07:15.027,1.2560087838250569
2025-03-24 17:07:15.027,1.3538973536170595
2025-03-24 17:07:15.027,0.5803613340914449
2025-03-24 17:07:15.028,-1.4609540900234754
2025-03-24 17:07:15.028,-3.4113861957451554
2025-03-24 17:07:15.037,-2.6166618551783527
2025-03-24 17:07:15.037,1.3447982573124604
2025-03-24 17:07:15.037,4.525651049861403
2025-03-24 17:07:15.038,2.66576378005553
2025-03-24 17:07:15.038,-2.5347846759131425
2025-03-24 17:07:15.047,-4.336173491445139
