timestamp,bandpass_and_notch
2025-03-24 17:14:40.055,-0.04628530085199334
2025-03-24 17:14:40.055,-3.8354773171149983
2025-03-24 17:14:40.055,-5.193676307313444
2025-03-24 17:14:40.055,-9.581985079077741
2025-03-24 17:14:40.065,-18.0552272059305
2025-03-24 17:14:40.065,-15.954356674590613
2025-03-24 17:14:40.065,8.948908868483818
2025-03-24 17:14:40.065,39.001502335475095
2025-03-24 17:14:40.065,37.14873416187562
2025-03-24 17:14:40.073,-6.437421757935491
2025-03-24 17:14:40.073,-52.433772428095494
2025-03-24 17:14:40.073,-51.92053933353247
2025-03-24 17:14:40.073,-2.80557231335253
2025-03-24 17:14:40.081,46.91328055618802
2025-03-24 17:14:40.081,52.26897311447194
2025-03-24 17:14:40.081,15.944772400435747
2025-03-24 17:14:40.082,-23.215185503875666
2025-03-24 17:14:40.082,-34.69838942213391
2025-03-24 17:14:40.091,-20.118673112095827
2025-03-24 17:14:40.091,0.7003823564419942
2025-03-24 17:14:40.091,13.582010890458776
2025-03-24 17:14:40.092,16.536595797541207
2025-03-24 17:14:40.101,12.08400532982594
2025-03-24 17:14:40.101,2.5040732887578923
2025-03-24 17:14:40.101,-7.950249789117521
2025-03-24 17:14:40.101,-12.836684597236992
2025-03-24 17:14:40.102,-8.970701818793813
2025-03-24 17:14:40.111,-0.32570217178484695
2025-03-24 17:14:40.111,5.676989881756508
2025-03-24 17:14:40.111,5.468045088168893
2025-03-24 17:14:40.111,1.8877689718923814
2025-03-24 17:14:40.112,-0.20726132122554403
2025-03-24 17:14:40.121,0.43629430816520376
2025-03-24 17:14:40.121,0.9609012938442518
2025-03-24 17:14:40.121,-1.133551672636544
2025-03-24 17:14:40.121,-4.325866170662313
2025-03-24 17:14:40.122,-4.5789551588030255
2025-03-24 17:14:40.131,-0.1953780797175171
2025-03-24 17:14:40.131,5.481564641944078
2025-03-24 17:14:40.131,6.746487667001706
2025-03-24 17:14:40.131,1.4065602762342708
2025-03-24 17:14:40.131,-5.964565299567305
2025-03-24 17:14:40.141,-7.638341649422408
2025-03-24 17:14:40.141,-0.8358789096622475
2025-03-24 17:14:40.141,8.046884056579136
2025-03-24 17:14:40.141,9.165065308515278
2025-03-24 17:14:40.141,0.2358889820628462
2025-03-24 17:14:40.151,-9.695321583615234
2025-03-24 17:14:40.151,-9.74598994223691
2025-03-24 17:14:40.151,0.079684366129122
2025-03-24 17:14:40.151,8.631556338534828
2025-03-24 17:14:40.151,6.934476954171354
2025-03-24 17:14:40.159,-1.3359421852121391
2025-03-24 17:14:40.159,-5.352429353102828
2025-03-24 17:14:40.160,-1.1317479939167066
2025-03-24 17:14:40.160,4.075699208469742
2025-03-24 17:14:40.160,2.1084226904368903
2025-03-24 17:14:40.169,-4.952690523492264
2025-03-24 17:14:40.169,-7.323246594743819
2025-03-24 17:14:40.170,-0.44647541999860946
2025-03-24 17:14:40.170,8.406330281236388
2025-03-24 17:14:40.179,8.655741672614706
2025-03-24 17:14:40.179,-0.4686321483155232
2025-03-24 17:14:40.179,-8.76442936718963
2025-03-24 17:14:40.180,-7.258739004146987
2025-03-24 17:14:40.180,1.5184224368594355
2025-03-24 17:14:40.189,7.37121682342277
2025-03-24 17:14:40.189,4.652881124595124
2025-03-24 17:14:40.189,-2.1678865748782687
2025-03-24 17:14:40.189,-5.064668003954243
2025-03-24 17:14:40.189,-2.01372715138636
2025-03-24 17:14:40.199,1.8039196566951676
2025-03-24 17:14:40.199,1.5667880081842003
2025-03-24 17:14:40.199,-0.9810640484750197
2025-03-24 17:14:40.199,-0.6836387305290093
2025-03-24 17:14:40.199,2.972151627829988
2025-03-24 17:14:40.207,4.4187841937711685
2025-03-24 17:14:40.207,-0.12736931363583445
2025-03-24 17:14:40.208,-6.387885189092845
2025-03-24 17:14:40.208,-6.769793130568111
2025-03-24 17:14:40.217,-0.14176001701124286
2025-03-24 17:14:40.217,6.562757974019112
2025-03-24 17:14:40.217,6.720057859503048
2025-03-24 17:14:40.217,1.1306445176628435
2025-03-24 17:14:40.218,-4.192332234728256
2025-03-24 17:14:40.227,-5.010821817945991
2025-03-24 17:14:40.227,-1.9897825605990658
2025-03-24 17:14:40.227,1.6391805646296647
2025-03-24 17:14:40.227,3.3577044336955657
2025-03-24 17:14:40.227,2.481361445832487
2025-03-24 17:14:40.237,-0.14261039457392727
2025-03-24 17:14:40.237,-2.6367934820440277
2025-03-24 17:14:40.237,-3.090234825342029
2025-03-24 17:14:40.238,-1.0516087171239559
2025-03-24 17:14:40.238,1.9936218711531635
2025-03-24 17:14:40.247,3.939668720098374
2025-03-24 17:14:40.247,3.516265893133097
2025-03-24 17:14:40.247,0.4715474824850465
2025-03-24 17:14:40.247,-4.264546970340081
2025-03-24 17:14:40.248,-7.65069267804847
2025-03-24 17:14:40.257,-5.510451917117709
2025-03-24 17:14:40.257,2.950708406162576
2025-03-24 17:14:40.257,11.707521084902766
2025-03-24 17:14:40.257,11.733301218340324
2025-03-24 17:14:40.258,0.3969762129803374
2025-03-24 17:14:40.265,-13.457842486462003
2025-03-24 17:14:40.265,-16.34741508683808
2025-03-24 17:14:40.266,-4.09514975785882
2025-03-24 17:14:40.266,12.057498258462982
2025-03-24 17:14:40.275,16.275095060844652
2025-03-24 17:14:40.275,5.41998206123227
2025-03-24 17:14:40.275,-7.8153479734424725
2025-03-24 17:14:40.275,-10.422596664381423
2025-03-24 17:14:40.276,-3.590676839888395
2025-03-24 17:14:40.285,1.9462824179579874
2025-03-24 17:14:40.285,1.4122524020563794
2025-03-24 17:14:40.285,0.21269547979614223
2025-03-24 17:14:40.286,3.0378880895819957
2025-03-24 17:14:40.286,5.965871796587999
2025-03-24 17:14:40.295,3.0074401017917682
2025-03-24 17:14:40.295,-4.157679786407379
2025-03-24 17:14:40.295,-8.093407781790807
2025-03-24 17:14:40.296,-5.409068464529989
2025-03-24 17:14:40.296,0.1623468473222033
2025-03-24 17:14:40.305,4.234976698950417
2025-03-24 17:14:40.305,6.461135315712778
2025-03-24 17:14:40.305,7.091902207553577
2025-03-24 17:14:40.306,3.476904178990154
2025-03-24 17:14:40.306,-5.473064841402152
2025-03-24 17:14:40.315,-13.402384824340288
2025-03-24 17:14:40.315,-10.885028433191257
2025-03-24 17:14:40.315,2.627307372656099
2025-03-24 17:14:40.315,15.169410848632731
2025-03-24 17:14:40.316,14.094821885137655
2025-03-24 17:14:40.323,0.3484043578756906
2025-03-24 17:14:40.323,-12.191885912273841
2025-03-24 17:14:40.324,-11.88812814962436
2025-03-24 17:14:40.324,-1.3043813863874287
2025-03-24 17:14:40.333,7.270249698848938
2025-03-24 17:14:40.333,6.179064640038152
2025-03-24 17:14:40.333,-0.43498697805820896
2025-03-24 17:14:40.334,-3.532120835879152
2025-03-24 17:14:40.334,-0.30248583998326056
2025-03-24 17:14:40.343,3.6286714477530193
2025-03-24 17:14:40.343,2.183052086678479
2025-03-24 17:14:40.343,-3.417470129580312
2025-03-24 17:14:40.343,-6.249980760076357
2025-03-24 17:14:40.344,-2.260419247832761
2025-03-24 17:14:40.353,4.684453609941599
2025-03-24 17:14:40.353,7.169162310732074
2025-03-24 17:14:40.353,2.5364945156728105
2025-03-24 17:14:40.353,-4.46293974007024
2025-03-24 17:14:40.354,-6.961329327466564
2025-03-24 17:14:40.363,-2.8708228792786823
2025-03-24 17:14:40.363,3.537370825937807
2025-03-24 17:14:40.363,6.299730996810185
2025-03-24 17:14:40.363,3.5725571509267207
2025-03-24 17:14:40.364,-1.4066739651705427
2025-03-24 17:14:40.373,-4.591552035174734
2025-03-24 17:14:40.373,-4.77663209487261
2025-03-24 17:14:40.373,-2.614948036962944
2025-03-24 17:14:40.373,1.4582856432767362
2025-03-24 17:14:40.374,6.013209157731437
2025-03-24 17:14:40.381,7.1960365994582025
2025-03-24 17:14:40.381,2.165324046240709
2025-03-24 17:14:40.382,-5.976025034192301
2025-03-24 17:14:40.382,-9.76537127555634
2025-03-24 17:14:40.382,-5.108994983157267
2025-03-24 17:14:40.391,4.087248362431541
2025-03-24 17:14:40.391,9.670342566922084
2025-03-24 17:14:40.392,6.78599752062257
2025-03-24 17:14:40.392,-1.9848971664096782
2025-03-24 17:14:40.401,-8.762596016315157
2025-03-24 17:14:40.401,-7.15544778280174
2025-03-24 17:14:40.401,1.4474714105457336
2025-03-24 17:14:40.402,8.548254351769275
2025-03-24 17:14:40.402,6.94587280704199
2025-03-24 17:14:40.411,-1.6370769282146584
2025-03-24 17:14:40.411,-8.495148375685176
2025-03-24 17:14:40.412,-7.164460870234355
2025-03-24 17:14:40.412,0.5512920074328422
2025-03-24 17:14:40.412,7.376569346398239
2025-03-24 17:14:40.421,7.738947472778504
2025-03-24 17:14:40.421,1.9742639591699305
2025-03-24 17:14:40.421,-4.9478030974378955
2025-03-24 17:14:40.421,-7.6921228494132015
2025-03-24 17:14:40.422,-4.361284945797204
2025-03-24 17:14:40.431,2.2403192196172075
2025-03-24 17:14:40.431,6.643956520370351
2025-03-24 17:14:40.431,5.220074422805337
2025-03-24 17:14:40.431,-0.3529955599956328
2025-03-24 17:14:40.431,-4.703852347971011
2025-03-24 17:14:40.441,-4.429127357235622
2025-03-24 17:14:40.441,-1.1458296024227486
2025-03-24 17:14:40.441,1.6636653483091917
2025-03-24 17:14:40.442,2.897008633873811
2025-03-24 17:14:40.442,3.198238737993203
2025-03-24 17:14:40.451,2.044029331898263
2025-03-24 17:14:40.451,-1.382470203167572
2025-03-24 17:14:40.451,-4.967830992651152
2025-03-24 17:14:40.451,-4.695445742503826
2025-03-24 17:14:40.452,0.08280944111152314
2025-03-24 17:14:40.461,4.7860254738813905
2025-03-24 17:14:40.461,4.700731592328212
2025-03-24 17:14:40.461,0.592282748348748
2025-03-24 17:14:40.461,-2.607307291540218
2025-03-24 17:14:40.462,-2.0912528550139107
2025-03-24 17:14:40.469,-0.04826179503172798
2025-03-24 17:14:40.469,0.16648526578412193
2025-03-24 17:14:40.470,-1.2946798843253509
2025-03-24 17:14:40.470,-1.5731148113868798
2025-03-24 17:14:40.479,0.48656324403608137
2025-03-24 17:14:40.479,2.8322126532459175
2025-03-24 17:14:40.480,3.098553250193
2025-03-24 17:14:40.480,1.2408302537813471
2025-03-24 17:14:40.480,-1.161607720671395
2025-03-24 17:14:40.480,-2.8419596091885873
2025-03-24 17:14:40.489,-3.3836348024981295
2025-03-24 17:14:40.489,-2.6388245923935014
2025-03-24 17:14:40.490,-0.3698357198287465
2025-03-24 17:14:40.490,3.233395028694816
2025-03-24 17:14:40.499,6.340271690511461
2025-03-24 17:14:40.499,5.541279011405385
2025-03-24 17:14:40.499,-0.6854264844780122
2025-03-24 17:14:40.500,-8.087008358307497
2025-03-24 17:14:40.500,-9.160781664693495
2025-03-24 17:14:40.509,-1.7964254829162267
2025-03-24 17:14:40.509,6.847546723073525
2025-03-24 17:14:40.509,8.14853062093158
2025-03-24 17:14:40.509,2.238419384899554
2025-03-24 17:14:40.510,-3.0953927976174285
2025-03-24 17:14:40.519,-2.9882556537663714
2025-03-24 17:14:40.519,-0.6742149388616516
2025-03-24 17:14:40.519,-1.0134025945524257
2025-03-24 17:14:40.520,-2.9313959317231113
2025-03-24 17:14:40.520,-1.7049698737691064
2025-03-24 17:14:40.529,3.1209473987175316
2025-03-24 17:14:40.529,6.225284618203843
2025-03-24 17:14:40.529,3.543101564909818
2025-03-24 17:14:40.529,-2.2689967285270485
2025-03-24 17:14:40.529,-5.301994868622743
2025-03-24 17:14:40.539,-3.557289579115977
2025-03-24 17:14:40.539,-0.3381728666089281
2025-03-24 17:14:40.539,0.866639816413246
2025-03-24 17:14:40.539,0.5654969561425063
2025-03-24 17:14:40.540,1.5988591660450844
2025-03-24 17:14:40.547,4.436509001238159
2025-03-24 17:14:40.548,5.444695435645584
2025-03-24 17:14:40.548,0.7951008641954442
2025-03-24 17:14:40.548,-7.622243329629067
2025-03-24 17:14:40.548,-11.77370415692266
2025-03-24 17:14:40.557,-5.486890538899649
2025-03-24 17:14:40.558,7.143873258307009
2025-03-24 17:14:40.558,14.322380933980067
2025-03-24 17:14:40.558,8.974360238013805
2025-03-24 17:14:40.567,-3.5071402309740582
2025-03-24 17:14:40.567,-11.504152773819413
2025-03-24 17:14:40.567,-9.263456801155021
2025-03-24 17:14:40.568,-0.9573309011448942
2025-03-24 17:14:40.568,5.559455115248563
2025-03-24 17:14:40.577,6.406519666945343
2025-03-24 17:14:40.577,3.372027112864143
2025-03-24 17:14:40.577,0.16379695032897318
2025-03-24 17:14:40.577,-1.6405870251753383
2025-03-24 17:14:40.578,-2.796094338215351
2025-03-24 17:14:40.587,-3.498381256749972
2025-03-24 17:14:40.587,-2.2702060216274886
2025-03-24 17:14:40.587,1.1582810300434832
2025-03-24 17:14:40.587,3.687519323927378
2025-03-24 17:14:40.588,2.210302922719869
2025-03-24 17:14:40.597,-1.4234764091117578
2025-03-24 17:14:40.597,-1.8851021498167644
2025-03-24 17:14:40.597,2.2735561009264895
2025-03-24 17:14:40.598,5.4022104314863055
2025-03-24 17:14:40.598,1.3229368393338876
2025-03-24 17:14:40.605,-7.856771775737041
2025-03-24 17:14:40.606,-12.278299389743381
2025-03-24 17:14:40.606,-4.863857879054953
2025-03-24 17:14:40.606,9.745498519170608
2025-03-24 17:14:40.613,18.281521525561995
2025-03-24 17:14:40.614,11.594140558770293
2025-03-24 17:14:40.614,-5.723972771376122
2025-03-24 17:14:40.614,-18.951961613599746
2025-03-24 17:14:40.614,-16.908650649607733
2025-03-24 17:14:40.623,-2.0124012971213503
2025-03-24 17:14:40.624,12.935573672615183
2025-03-24 17:14:40.624,16.815798443292678
2025-03-24 17:14:40.624,8.76350856331672
2025-03-24 17:14:40.633,-3.350397272156685
2025-03-24 17:14:40.633,-10.817034067311297
2025-03-24 17:14:40.633,-10.517870777487397
2025-03-24 17:14:40.634,-5.151757762457903
2025-03-24 17:14:40.634,1.2449803450468298
2025-03-24 17:14:40.643,6.6211882874414405
2025-03-24 17:14:40.643,9.663857772286638
2025-03-24 17:14:40.643,7.840736144861992
2025-03-24 17:14:40.644,-0.02030583609058642
2025-03-24 17:14:40.644,-9.49650449924986
2025-03-24 17:14:40.653,-12.546952177533695
2025-03-24 17:14:40.653,-5.644355425992559
2025-03-24 17:14:40.653,5.704146530952936
2025-03-24 17:14:40.653,12.036215794947356
2025-03-24 17:14:40.654,8.70559249885503
2025-03-24 17:14:40.661,-0.8202901778076326
2025-03-24 17:14:40.662,-8.773938138195046
2025-03-24 17:14:40.662,-9.283875840370099
2025-03-24 17:14:40.662,-2.5025578235464496
2025-03-24 17:14:40.671,5.594888479211963
2025-03-24 17:14:40.671,8.083958559682534
2025-03-24 17:14:40.671,3.303488277110495
2025-03-24 17:14:40.672,-3.5832377964545117
2025-03-24 17:14:40.672,-5.884787836218888
2025-03-24 17:14:40.681,-2.1962931551468485
2025-03-24 17:14:40.681,2.636552476964531
2025-03-24 17:14:40.681,3.29522717901066
2025-03-24 17:14:40.682,-0.09713144154836056
2025-03-24 17:14:40.682,-2.5753116003132015
2025-03-24 17:14:40.691,-0.6929789828254888
2025-03-24 17:14:40.691,2.944074085276559
2025-03-24 17:14:40.691,2.8889453944128576
2025-03-24 17:14:40.692,-1.6644412801151807
2025-03-24 17:14:40.692,-4.991017610027284
2025-03-24 17:14:40.701,-2.1878187377644913
2025-03-24 17:14:40.701,3.524741779338977
2025-03-24 17:14:40.701,4.521041635035546
2025-03-24 17:14:40.702,-0.5014623394589135
2025-03-24 17:14:40.702,-4.217740131817653
2025-03-24 17:14:40.711,-1.1466593649311414
2025-03-24 17:14:40.711,4.026364681035376
2025-03-24 17:14:40.711,3.0550539391445675
2025-03-24 17:14:40.711,-3.5188161098338195
2025-03-24 17:14:40.712,-6.446609231458116
2025-03-24 17:14:40.721,-0.623704228485345
2025-03-24 17:14:40.721,7.3075914697737065
2025-03-24 17:14:40.721,7.221747638533501
2025-03-24 17:14:40.721,-1.4434498005338996
2025-03-24 17:14:40.722,-8.840586438274128
2025-03-24 17:14:40.731,-6.699555389887487
2025-03-24 17:14:40.731,2.129381029548778
2025-03-24 17:14:40.731,7.755165246607524
2025-03-24 17:14:40.731,4.983998789143882
2025-03-24 17:14:40.732,-1.678530475858627
2025-03-24 17:14:40.741,-4.691495491569541
2025-03-24 17:14:40.741,-2.3702565511683544
2025-03-24 17:14:40.741,0.8015407631746071
2025-03-24 17:14:40.741,1.1281588634151112
2025-03-24 17:14:40.742,-0.1829609798290059
2025-03-24 17:14:40.751,-0.21301262071584076
2025-03-24 17:14:40.751,1.2135771497869376
2025-03-24 17:14:40.751,1.9850882493932833
2025-03-24 17:14:40.751,0.8941803031939326
2025-03-24 17:14:40.752,-1.408774275547464
2025-03-24 17:14:40.761,-3.445442698186568
2025-03-24 17:14:40.761,-3.3718529452782224
2025-03-24 17:14:40.761,0.06620183625167224
2025-03-24 17:14:40.761,4.994881329536654
2025-03-24 17:14:40.762,6.334545625177261
2025-03-24 17:14:40.769,1.2313667877884362
2025-03-24 17:14:40.770,-5.978032274587547
2025-03-24 17:14:40.770,-7.467424405030013
2025-03-24 17:14:40.770,-1.268423948067886
2025-03-24 17:14:40.770,5.788978702482822
2025-03-24 17:14:40.779,6.026471915847978
2025-03-24 17:14:40.780,-0.07978865705137211
2025-03-24 17:14:40.780,-4.980430356304484
2025-03-24 17:14:40.780,-3.3443211795341643
2025-03-24 17:14:40.780,2.061294676100088
2025-03-24 17:14:40.789,4.387855150617452
2025-03-24 17:14:40.790,1.003184505037656
2025-03-24 17:14:40.790,-3.781538016973007
2025-03-24 17:14:40.790,-4.144401419486921
2025-03-24 17:14:40.790,0.40883382209763736
2025-03-24 17:14:40.799,4.649339940479075
2025-03-24 17:14:40.799,3.8246789406055663
2025-03-24 17:14:40.800,-0.9437403929220327
2025-03-24 17:14:40.800,-4.291120502366152
2025-03-24 17:14:40.809,-3.0195185368553776
2025-03-24 17:14:40.810,0.6174174735177921
2025-03-24 17:14:40.810,2.4845142558020648
2025-03-24 17:14:40.810,1.7920670231494649
2025-03-24 17:14:40.810,0.8485856218370607
2025-03-24 17:14:40.810,0.4544498336966152
2025-03-24 17:14:40.819,-1.1166050256569506
2025-03-24 17:14:40.820,-3.535665199469487
2025-03-24 17:14:40.820,-2.776190579028687
2025-03-24 17:14:40.820,2.484234365473154
2025-03-24 17:14:40.829,6.139908780402289
2025-03-24 17:14:40.829,2.025801720972768
2025-03-24 17:14:40.830,-5.635675289556838
2025-03-24 17:14:40.830,-6.3068122222367
2025-03-24 17:14:40.830,1.660596504058507
2025-03-24 17:14:40.839,7.489331898050238
2025-03-24 17:14:40.839,3.070687429136342
2025-03-24 17:14:40.840,-5.123959213483257
2025-03-24 17:14:40.840,-5.380231657917917
2025-03-24 17:14:40.840,2.2208897797187293
2025-03-24 17:14:40.849,6.103065257723973
2025-03-24 17:14:40.849,0.24474541980167092
2025-03-24 17:14:40.850,-6.949616628486855
2025-03-24 17:14:40.850,-4.703031257476941
2025-03-24 17:14:40.850,4.58442034466243
2025-03-24 17:14:40.859,8.427539257335107
2025-03-24 17:14:40.859,1.5271579456994777
2025-03-24 17:14:40.859,-6.901720853959785
2025-03-24 17:14:40.860,-5.700533896006754
2025-03-24 17:14:40.860,3.083825883012971
2025-03-24 17:14:40.869,7.007183064268118
2025-03-24 17:14:40.869,0.26996796165837633
2025-03-24 17:14:40.870,-7.960053432467104
2025-03-24 17:14:40.870,-5.692346186386547
2025-03-24 17:14:40.870,5.142370871176965
2025-03-24 17:14:40.879,10.501360641303647
2025-03-24 17:14:40.879,3.0160255436614336
2025-03-24 17:14:40.879,-7.869726795200524
2025-03-24 17:14:40.880,-8.662835328651092
2025-03-24 17:14:40.880,0.32532141504873857
2025-03-24 17:14:40.889,6.63169664411347
2025-03-24 17:14:40.889,3.2713628993695956
2025-03-24 17:14:40.890,-2.914596873514604
2025-03-24 17:14:40.890,-2.5380719042915176
2025-03-24 17:14:40.890,2.920906688904928
2025-03-24 17:14:40.899,4.225901788573663
2025-03-24 17:14:40.899,-1.739009363799477
2025-03-24 17:14:40.899,-7.357942261085195
2025-03-24 17:14:40.900,-4.759031138052048
2025-03-24 17:14:40.900,3.6456741935301387
2025-03-24 17:14:40.909,8.447780049321178
2025-03-24 17:14:40.909,4.912577730657762
2025-03-24 17:14:40.909,-2.351324435181427
2025-03-24 17:14:40.909,-6.087840806268538
2025-03-24 17:14:40.910,-4.35900647316501
2025-03-24 17:14:40.919,-0.5616566560587863
2025-03-24 17:14:40.919,1.9571390145793601
2025-03-24 17:14:40.919,2.7029446102805665
2025-03-24 17:14:40.920,2.3681856273892063
2025-03-24 17:14:40.920,1.242736926997886
2025-03-24 17:14:40.927,-0.13246060297083886
2025-03-24 17:14:40.928,-0.9589067434494308
2025-03-24 17:14:40.928,-1.6912434345914726
2025-03-24 17:14:40.928,-3.2831694283065547
2025-03-24 17:14:40.937,-3.9368785652208085
2025-03-24 17:14:40.937,0.060305622641321624
2025-03-24 17:14:40.938,7.5734688883038634
2025-03-24 17:14:40.938,10.127979637179545
2025-03-24 17:14:40.938,1.473495586044169
2025-03-24 17:14:40.945,-11.540783029528846
2025-03-24 17:14:40.946,-14.133591704905653
2025-03-24 17:14:40.946,-1.7064553632352029
2025-03-24 17:14:40.946,12.727980626736414
2025-03-24 17:14:40.946,13.622748173097857
2025-03-24 17:14:40.955,1.5492497304692945
2025-03-24 17:14:40.956,-9.129337777495927
2025-03-24 17:14:40.956,-9.070516641021518
2025-03-24 17:14:40.956,-2.914305517589158
2025-03-24 17:14:40.965,1.2406770465695214
2025-03-24 17:14:40.965,3.1019624525452008
2025-03-24 17:14:40.966,6.040451628482862
2025-03-24 17:14:40.966,7.60170576588418
2025-03-24 17:14:40.966,2.0732350968216533
2025-03-24 17:14:40.975,-8.568158271725242
2025-03-24 17:14:40.975,-13.511851585171888
2025-03-24 17:14:40.975,-5.7168224241116965
2025-03-24 17:14:40.976,8.243701273964863
2025-03-24 17:14:40.976,14.56256146751909
2025-03-24 17:14:40.983,7.324120329657539
2025-03-24 17:14:40.984,-5.512515341136825
2025-03-24 17:14:40.984,-11.429069397027813
2025-03-24 17:14:40.984,-6.447972685602752
2025-03-24 17:14:40.984,2.433895647812365
2025-03-24 17:14:40.993,6.460516080243968
2025-03-24 17:14:40.994,4.021844940833404
2025-03-24 17:14:40.994,-0.20093577683548075
2025-03-24 17:14:40.994,-2.1908882779166614
2025-03-24 17:14:40.994,-1.9757572957915888
2025-03-24 17:14:41.003,-1.1230505421690695
2025-03-24 17:14:41.004,-0.09355505536678953
2025-03-24 17:14:41.004,1.1085340249219466
2025-03-24 17:14:41.004,1.7543834589018903
2025-03-24 17:14:41.004,1.1070083218752331
2025-03-24 17:14:41.013,-0.578995497816478
2025-03-24 17:14:41.013,-2.2597081078095957
2025-03-24 17:14:41.014,-2.5922036595814593
2025-03-24 17:14:41.014,-0.5176562936547887
2025-03-24 17:14:41.023,3.2139501509109927
2025-03-24 17:14:41.023,5.234605609645381
2025-03-24 17:14:41.023,2.3158103079031043
2025-03-24 17:14:41.024,-4.156880949264815
2025-03-24 17:14:41.024,-8.062356276036848
2025-03-24 17:14:41.033,-4.606971501078694
2025-03-24 17:14:41.033,3.8733340404780057
2025-03-24 17:14:41.034,9.592125457082451
2025-03-24 17:14:41.034,7.055100302065591
2025-03-24 17:14:41.034,-1.6331622184439678
2025-03-24 17:14:41.043,-9.08827940297449
2025-03-24 17:14:41.043,-9.258657476810416
2025-03-24 17:14:41.043,-2.008603119977297
2025-03-24 17:14:41.044,7.039280703184544
2025-03-24 17:14:41.044,10.614690540726087
2025-03-24 17:14:41.051,5.529523740527336
2025-03-24 17:14:41.052,-4.185698940586254
2025-03-24 17:14:41.052,-10.401325108827105
2025-03-24 17:14:41.052,-8.032658295751732
2025-03-24 17:14:41.061,0.7500316704513152
2025-03-24 17:14:41.061,8.773069589681546
2025-03-24 17:14:41.062,9.626853450717881
2025-03-24 17:14:41.062,2.5222890380391805
2025-03-24 17:14:41.062,-6.630482049962584
2025-03-24 17:14:41.071,-9.716338242101473
2025-03-24 17:14:41.071,-4.1764918133889335
2025-03-24 17:14:41.072,4.038322023646362
2025-03-24 17:14:41.072,7.078283688522136
2025-03-24 17:14:41.072,3.8365052431974087
2025-03-24 17:14:41.081,-0.4848003030653263
2025-03-24 17:14:41.081,-2.2876117614224505
2025-03-24 17:14:41.081,-2.8937204385963504
2025-03-24 17:14:41.082,-3.4882128252898186
2025-03-24 17:14:41.082,-1.7715260367538437
2025-03-24 17:14:41.091,3.0839826196644435
2025-03-24 17:14:41.091,6.092217158811937
2025-03-24 17:14:41.091,2.422344871000829
2025-03-24 17:14:41.091,-4.214651614343532
2025-03-24 17:14:41.092,-5.371873672147749
2025-03-24 17:14:41.099,0.005970949137295178
2025-03-24 17:14:41.100,3.846495860647321
2025-03-24 17:14:41.100,1.1335171770262966
2025-03-24 17:14:41.100,-2.727776362377842
2025-03-24 17:14:41.100,-0.8412424966137926
2025-03-24 17:14:41.109,4.12678806899018
2025-03-24 17:14:41.109,3.9373400871687645
2025-03-24 17:14:41.110,-2.5896959232111607
2025-03-24 17:14:41.110,-7.337171339947651
2025-03-24 17:14:41.119,-3.9024864735367295
2025-03-24 17:14:41.119,3.9710874964088987
2025-03-24 17:14:41.120,7.360634546959581
2025-03-24 17:14:41.120,3.0376073655289955
2025-03-24 17:14:41.120,-3.3642304691935263
2025-03-24 17:14:41.129,-4.707457066594025
2025-03-24 17:14:41.129,-0.8120913307866136
2025-03-24 17:14:41.130,2.0306476399509705
2025-03-24 17:14:41.130,-0.12821559065141247
2025-03-24 17:14:41.130,-3.0729142764631368
2025-03-24 17:14:41.139,-0.26563845330286684
2025-03-24 17:14:41.139,6.545183071726872
2025-03-24 17:14:41.139,7.511867217619338
2025-03-24 17:14:41.140,-2.0934688184918375
2025-03-24 17:14:41.140,-12.91473863026019
2025-03-24 17:14:41.147,-11.040445554705471
2025-03-24 17:14:41.148,4.19525162891615
2025-03-24 17:14:41.148,17.163837590199606
2025-03-24 17:14:41.148,13.097283334874282
2025-03-24 17:14:41.148,-4.620367933698294
2025-03-24 17:14:41.157,-17.767678612028092
2025-03-24 17:14:41.158,-13.377985629362607
2025-03-24 17:14:41.158,2.7442648038105046
2025-03-24 17:14:41.158,13.989869543050276
2025-03-24 17:14:41.165,11.579375294849815
2025-03-24 17:14:41.166,1.4440168556628699
2025-03-24 17:14:41.166,-6.307747659395458
2025-03-24 17:14:41.166,-8.627984645039705
2025-03-24 17:14:41.166,-7.547986815371069
2025-03-24 17:14:41.175,-2.925878345977373
2025-03-24 17:14:41.176,5.9229498768455136
2025-03-24 17:14:41.176,13.472652843175748
2025-03-24 17:14:41.176,10.67236892020355
2025-03-24 17:14:41.183,-3.2207658035955022
2025-03-24 17:14:41.184,-16.277327949449344
2025-03-24 17:14:41.184,-15.274927723510851
2025-03-24 17:14:41.184,-0.25145183436119356
2025-03-24 17:14:41.184,14.85227543487977
2025-03-24 17:14:41.193,16.24999741716882
2025-03-24 17:14:41.193,3.7361964905058818
2025-03-24 17:14:41.194,-10.207589497375881
2025-03-24 17:14:41.194,-13.527822986708307
2025-03-24 17:14:41.203,-5.601083726886766
2025-03-24 17:14:41.203,4.446531526578608
2025-03-24 17:14:41.203,8.234851040249362
2025-03-24 17:14:41.204,5.165940477308247
2025-03-24 17:14:41.204,0.046564736253934924
2025-03-24 17:14:41.213,-3.114704025947016
2025-03-24 17:14:41.213,-3.4852766056449527
2025-03-24 17:14:41.214,-1.8311267637232669
2025-03-24 17:14:41.214,0.6504071363266117
2025-03-24 17:14:41.214,2.2202789429441987
2025-03-24 17:14:41.223,1.4883504282199442
2025-03-24 17:14:41.223,-0.8882938489362525
2025-03-24 17:14:41.224,-2.3324922833252124
2025-03-24 17:14:41.224,-0.8745851941279725
2025-03-24 17:14:41.224,2.3928841049665976
2025-03-24 17:14:41.233,3.7613760293832663
2025-03-24 17:14:41.233,0.7419652505181198
2025-03-24 17:14:41.233,-4.215901422450832
2025-03-24 17:14:41.234,-5.356863057195109
2025-03-24 17:14:41.234,-0.3900157032861757
2025-03-24 17:14:41.241,5.687759877109348
2025-03-24 17:14:41.242,5.841886294258778
2025-03-24 17:14:41.242,-0.38929794663999023
2025-03-24 17:14:41.242,-6.060280453777678
2025-03-24 17:14:41.242,-5.066142322608207
2025-03-24 17:14:41.251,0.98602230091447
2025-03-24 17:14:41.252,5.324384704413011
2025-03-24 17:14:41.252,3.8304753324066123
2025-03-24 17:14:41.252,-1.2315073445138247
2025-03-24 17:14:41.252,-4.471680299309355
2025-03-24 17:14:41.261,-2.9162050906198775
2025-03-24 17:14:41.262,1.5454429770015465
2025-03-24 17:14:41.262,4.3527944177787035
2025-03-24 17:14:41.262,2.774665478233769
2025-03-24 17:14:41.262,-1.5968562640038868
2025-03-24 17:14:41.271,-4.754545351802727
2025-03-24 17:14:41.272,-4.09807373891372
2025-03-24 17:14:41.272,-0.04965910380178967
2025-03-24 17:14:41.272,4.842309648004681
2025-03-24 17:14:41.272,7.094612018806752
2025-03-24 17:14:41.281,3.915211788412908
2025-03-24 17:14:41.282,-3.7735024727260713
2025-03-24 17:14:41.282,-9.995836428387062
2025-03-24 17:14:41.282,-8.20034101723255
2025-03-24 17:14:41.291,1.3621389912218145
2025-03-24 17:14:41.291,10.310648823289068
2025-03-24 17:14:41.292,10.198207531900671
2025-03-24 17:14:41.292,1.4750887184964085
2025-03-24 17:14:41.292,-7.2942073029573
2025-03-24 17:14:41.301,-8.880147190850524
2025-03-24 17:14:41.301,-3.870318917200513
2025-03-24 17:14:41.302,2.4315389991233802
2025-03-24 17:14:41.302,6.223588978297438
2025-03-24 17:14:41.302,6.211760745941452
2025-03-24 17:14:41.311,1.7252772739659088
2025-03-24 17:14:41.311,-5.580711582114203
2025-03-24 17:14:41.311,-9.387472544204508
2025-03-24 17:14:41.312,-3.7088102772873204
2025-03-24 17:14:41.312,8.039496095564072
2025-03-24 17:14:41.319,13.434424816244782
2025-03-24 17:14:41.319,4.456951858744035
2025-03-24 17:14:41.320,-11.26789863432295
2025-03-24 17:14:41.320,-16.96833253234263
2025-03-24 17:14:41.329,-5.402323583603092
2025-03-24 17:14:41.329,12.066392496579564
2025-03-24 17:14:41.329,17.557151306701396
2025-03-24 17:14:41.330,6.281754912191129
2025-03-24 17:14:41.330,-9.120660282120385
2025-03-24 17:14:41.339,-13.689749785133044
2025-03-24 17:14:41.339,-5.8483598235546665
2025-03-24 17:14:41.339,3.871687650833747
2025-03-24 17:14:41.340,6.603959242740515
2025-03-24 17:14:41.340,3.47843385687753
2025-03-24 17:14:41.347,0.6791433573461976
2025-03-24 17:14:41.348,0.5508868484145854
2025-03-24 17:14:41.348,0.29594739170641604
2025-03-24 17:14:41.348,-2.231397308137019
2025-03-24 17:14:41.357,-4.821837303489463
2025-03-24 17:14:41.357,-3.9689777964525437
2025-03-24 17:14:41.358,0.3221974480114424
2025-03-24 17:14:41.358,4.560333750958329
2025-03-24 17:14:41.358,5.778534708355154
2025-03-24 17:14:41.367,3.7711298051908404
2025-03-24 17:14:41.367,-0.18477018096929548
2025-03-24 17:14:41.367,-4.6107341396251265
2025-03-24 17:14:41.368,-7.320078023186755
2025-03-24 17:14:41.368,-5.712329371005677
2025-03-24 17:14:41.377,0.5776627405849599
2025-03-24 17:14:41.377,7.731827999557635
2025-03-24 17:14:41.377,9.990223277412246
2025-03-24 17:14:41.378,4.731593511562652
2025-03-24 17:14:41.378,-4.610047585545341
2025-03-24 17:14:41.385,-10.870122882698423
2025-03-24 17:14:41.386,-8.917818667877238
2025-03-24 17:14:41.386,-0.12929089409252786
2025-03-24 17:14:41.386,8.375463581456648
2025-03-24 17:14:41.386,9.81367201769952
2025-03-24 17:14:41.395,3.988574049461138
2025-03-24 17:14:41.396,-3.0719768767589404
2025-03-24 17:14:41.396,-6.163371683502013
2025-03-24 17:14:41.396,-5.793141500654427
2025-03-24 17:14:41.405,-4.533430743721648
2025-03-24 17:14:41.405,-1.3914244821770234
2025-03-24 17:14:41.406,5.628546169340802
2025-03-24 17:14:41.406,12.317823321191591
2025-03-24 17:14:41.406,9.858385023884882
2025-03-24 17:14:41.413,-3.4668332925805423
2025-03-24 17:14:41.414,-16.394749932305285
2025-03-24 17:14:41.414,-15.366054129447319
2025-03-24 17:14:41.414,-0.24705432381961623
2025-03-24 17:14:41.423,14.511381345362793
2025-03-24 17:14:41.423,15.31611471671091
2025-03-24 17:14:41.423,3.4294569375994435
2025-03-24 17:14:41.424,-8.112527535348917
2025-03-24 17:14:41.424,-9.649991796353852
2025-03-24 17:14:41.433,-3.84387469051886
2025-03-24 17:14:41.433,0.6702824934441276
2025-03-24 17:14:41.434,0.9023185450226863
2025-03-24 17:14:41.434,1.2691549706308793
2025-03-24 17:14:41.434,4.732968293752345
2025-03-24 17:14:41.443,6.909543949050879
2025-03-24 17:14:41.443,2.1344367522354992
2025-03-24 17:14:41.443,-6.796305236351267
2025-03-24 17:14:41.444,-9.949145170589562
2025-03-24 17:14:41.444,-2.9048237730158104
2025-03-24 17:14:41.453,6.128425267515064
2025-03-24 17:14:41.453,6.31651932553998
2025-03-24 17:14:41.453,-0.9964161478860282
2025-03-24 17:14:41.454,-4.05797808996299
2025-03-24 17:14:41.454,2.0717366277132108
2025-03-24 17:14:41.461,7.573650151511159
2025-03-24 17:14:41.462,1.9029458455844286
2025-03-24 17:14:41.462,-9.85387432982795
2025-03-24 17:14:41.462,-12.46689969914034
2025-03-24 17:14:41.471,-0.9416736220817663
2025-03-24 17:14:41.471,12.36233778986188
2025-03-24 17:14:41.471,13.101491127135787
2025-03-24 17:14:41.472,1.685923559768217
2025-03-24 17:14:41.472,-9.204810392652687
2025-03-24 17:14:41.481,-10.138731999235024
2025-03-24 17:14:41.481,-3.186227410217202
2025-03-24 17:14:41.481,3.746070102996761
2025-03-24 17:14:41.482,5.802109015534303
2025-03-24 17:14:41.482,3.5478486540869523
2025-03-24 17:14:41.489,0.1303484096402663
2025-03-24 17:14:41.490,-1.7666049204296332
2025-03-24 17:14:41.490,-1.5684084440020223
2025-03-24 17:14:41.490,-0.8123241508791512
2025-03-24 17:14:41.490,-1.0752552413769296
2025-03-24 17:14:41.499,-1.8209117995828599
2025-03-24 17:14:41.500,-1.1625348210448365
2025-03-24 17:14:41.500,1.4286078262147055
2025-03-24 17:14:41.500,4.200101205611094
2025-03-24 17:14:41.500,4.70693663978563
2025-03-24 17:14:41.509,1.6568987596690075
2025-03-24 17:14:41.509,-3.913740077150841
2025-03-24 17:14:41.510,-8.19379606142453
2025-03-24 17:14:41.510,-6.642566546444039
2025-03-24 17:14:41.519,1.2387010804042153
2025-03-24 17:14:41.519,9.450604404011628
2025-03-24 17:14:41.519,10.218268986344775
2025-03-24 17:14:41.520,2.171639662184412
2025-03-24 17:14:41.520,-7.507999178057208
2025-03-24 17:14:41.529,-10.187030096927348
2025-03-24 17:14:41.529,-4.382079012758873
2025-03-24 17:14:41.529,3.545586662847867
2025-03-24 17:14:41.530,6.67875029792901
2025-03-24 17:14:41.530,4.179008114973639
2025-03-24 17:14:41.539,0.35088832154191857
2025-03-24 17:14:41.539,-1.4405807108448945
2025-03-24 17:14:41.539,-1.9069852359975707
2025-03-24 17:14:41.540,-2.7356758992973473
2025-03-24 17:14:41.540,-2.885826309048976
2025-03-24 17:14:41.549,-0.4206333901656165
2025-03-24 17:14:41.549,3.133349191782351
2025-03-24 17:14:41.550,3.726832479651836
2025-03-24 17:14:41.550,0.6680800634335695
2025-03-24 17:14:41.550,-1.7874627690987537
2025-03-24 17:14:41.557,-0.5883190627080122
2025-03-24 17:14:41.558,1.3381918324892152
2025-03-24 17:14:41.558,-0.3591676180419788
2025-03-24 17:14:41.558,-4.079369060989855
2025-03-24 17:14:41.558,-3.781750635831477
2025-03-24 17:14:41.567,2.024809876428562
2025-03-24 17:14:41.568,6.995912488399419
2025-03-24 17:14:41.568,4.799255724332078
2025-03-24 17:14:41.568,-2.46259240794261
2025-03-24 17:14:41.568,-6.739519301387386
2025-03-24 17:14:41.579,-3.92271924941268
2025-03-24 17:14:41.579,1.8500740472459836
2025-03-24 17:14:41.580,4.182316270545929
2025-03-24 17:14:41.580,1.983247580062324
2025-03-24 17:14:41.580,-0.7735305433472668
2025-03-24 17:14:41.587,-1.1824237020877941
2025-03-24 17:14:41.588,-0.3961440260947795
2025-03-24 17:14:41.588,-0.3309474496555657
2025-03-24 17:14:41.588,-0.3615130677073055
2025-03-24 17:14:41.597,0.6473599542819286
2025-03-24 17:14:41.597,1.1137391268150163
2025-03-24 17:14:41.598,-1.0008612399288128
2025-03-24 17:14:41.598,-3.411210168413657
2025-03-24 17:14:41.598,-1.3420714513036294
2025-03-24 17:14:41.607,4.668217678490075
2025-03-24 17:14:41.607,7.172920239440625
2025-03-24 17:14:41.607,1.2905524372622965
2025-03-24 17:14:41.608,-7.346481102066461
2025-03-24 17:14:41.608,-8.686758820497149
2025-03-24 17:14:41.617,-1.1491867952453334
2025-03-24 17:14:41.617,6.333365766423779
2025-03-24 17:14:41.617,5.899793172355099
2025-03-24 17:14:41.618,0.15093383985917896
2025-03-24 17:14:41.618,-2.6665054843712332
2025-03-24 17:14:41.627,-0.04832588234186069
2025-03-24 17:14:41.627,2.3482090549502677
2025-03-24 17:14:41.627,-0.4426670531956782
2025-03-24 17:14:41.628,-5.357136041157344
2025-03-24 17:14:41.628,-5.330513290612043
2025-03-24 17:14:41.637,1.0918181962686435
2025-03-24 17:14:41.637,7.388285453839365
2025-03-24 17:14:41.637,6.791881204642911
2025-03-24 17:14:41.637,0.10051587070664819
2025-03-24 17:14:41.638,-5.7410393483460656
2025-03-24 17:14:41.647,-5.660339863320466
2025-03-24 17:14:41.647,-1.2187896277067178
2025-03-24 17:14:41.647,2.4405734958205034
2025-03-24 17:14:41.647,2.582895755049851
2025-03-24 17:14:41.648,0.8373443122778452
2025-03-24 17:14:41.657,0.05413324687119013
2025-03-24 17:14:41.657,0.7120528602050621
2025-03-24 17:14:41.657,0.9873616942378105
2025-03-24 17:14:41.658,-0.3749395379828812
2025-03-24 17:14:41.658,-2.355272069941971
2025-03-24 17:14:41.665,-2.9698507913287444
2025-03-24 17:14:41.666,-1.4551508166689477
2025-03-24 17:14:41.666,1.2827246909756178
2025-03-24 17:14:41.666,3.672086300741453
2025-03-24 17:14:41.666,4.256958608699618
2025-03-24 17:14:41.675,2.121500721253397
2025-03-24 17:14:41.676,-2.2568612913133665
2025-03-24 17:14:41.676,-6.323413534531682
2025-03-24 17:14:41.676,-6.511190412043227
2025-03-24 17:14:41.685,-1.2130038361564417
2025-03-24 17:14:41.685,6.606114223335212
2025-03-24 17:14:41.686,10.384321118421369
2025-03-24 17:14:41.686,5.436333740692688
2025-03-24 17:14:41.686,-5.322055589352202
2025-03-24 17:14:41.695,-12.347594433347796
2025-03-24 17:14:41.695,-8.404228239710843
2025-03-24 17:14:41.696,3.2790921723709405
2025-03-24 17:14:41.696,11.583246719013612
2025-03-24 17:14:41.696,8.969198469547656
2025-03-24 17:14:41.703,-0.9723861190354333
2025-03-24 17:14:41.704,-8.281579890983824
2025-03-24 17:14:41.704,-7.438578227078487
2025-03-24 17:14:41.704,-1.581823454534146
2025-03-24 17:14:41.704,3.2265035302281517
2025-03-24 17:14:41.713,4.823483683051986
2025-03-24 17:14:41.714,4.5061451441890235
2025-03-24 17:14:41.714,2.438588476424926
2025-03-24 17:14:41.714,-2.392126153833128
2025-03-24 17:14:41.714,-7.5374367278101735
2025-03-24 17:14:41.723,-6.960462523424817
2025-03-24 17:14:41.724,1.2689673395225713
2025-03-24 17:14:41.724,9.755068257531985
2025-03-24 17:14:41.724,8.770167469451122
2025-03-24 17:14:41.733,-1.5696259556668064
2025-03-24 17:14:41.733,-10.161873779923244
2025-03-24 17:14:41.734,-7.682628733923292
2025-03-24 17:14:41.734,2.413767358230415
2025-03-24 17:14:41.734,8.482561921157007
2025-03-24 17:14:41.743,4.726245949307283
2025-03-24 17:14:41.743,-2.9232223536974318
2025-03-24 17:14:41.744,-5.332551876351941
2025-03-24 17:14:41.744,-1.2079148426664095
2025-03-24 17:14:41.744,2.871497128855737
2025-03-24 17:14:41.753,1.8244857325746489
2025-03-24 17:14:41.753,-1.9272829425357396
2025-03-24 17:14:41.754,-2.637047614262019
2025-03-24 17:14:41.754,0.9662057484989676
2025-03-24 17:14:41.754,4.297117800457086
2025-03-24 17:14:41.763,2.89491134915023
2025-03-24 17:14:41.763,-2.180341123867642
2025-03-24 17:14:41.764,-5.704130195689114
2025-03-24 17:14:41.764,-4.035614176898305
2025-03-24 17:14:41.764,1.3687657094966663
2025-03-24 17:14:41.773,5.6966973830840635
2025-03-24 17:14:41.773,5.312613537894435
2025-03-24 17:14:41.774,0.8270978461635385
2025-03-24 17:14:41.774,-3.7734645027001292
2025-03-24 17:14:41.774,-5.004871038127751
2025-03-24 17:14:41.783,-2.8610319833647946
2025-03-24 17:14:41.783,0.1867258779712579
2025-03-24 17:14:41.784,2.3680092671516912
2025-03-24 17:14:41.784,3.5551173369110027
2025-03-24 17:14:41.784,3.4730073386176987
2025-03-24 17:14:41.791,1.1652396246126762
2025-03-24 17:14:41.792,-2.7743352177563794
2025-03-24 17:14:41.792,-5.191094405604225
2025-03-24 17:14:41.792,-3.448329229841037
2025-03-24 17:14:41.792,1.1272476791971786
2025-03-24 17:14:41.802,4.421117144217637
2025-03-24 17:14:41.802,3.8731605798240247
2025-03-24 17:14:41.802,0.5291230424965155
2025-03-24 17:14:41.802,-2.7045598197535496
2025-03-24 17:14:41.802,-3.540589738075965
2025-03-24 17:14:41.811,-1.4983617522710766
2025-03-24 17:14:41.812,1.828154787012216
2025-03-24 17:14:41.812,3.579255793992405
2025-03-24 17:14:41.812,1.9344233142606975
2025-03-24 17:14:41.821,-1.8700563788315185
2025-03-24 17:14:41.822,-4.319262935356721
2025-03-24 17:14:41.822,-2.823484562779289
2025-03-24 17:14:41.822,1.7117968027754784
2025-03-24 17:14:41.822,5.3820411253629485
2025-03-24 17:14:41.831,4.589077436664884
2025-03-24 17:14:41.831,-0.5291401741409225
2025-03-24 17:14:41.831,-5.762049171899031
2025-03-24 17:14:41.832,-6.372189174729321
2025-03-24 17:14:41.832,-1.496825586954726
2025-03-24 17:14:41.841,4.8004917730723236
2025-03-24 17:14:41.841,7.009218455272573
2025-03-24 17:14:41.841,3.1673824541029587
2025-03-24 17:14:41.842,-3.1724581178203572
2025-03-24 17:14:41.842,-6.149018426114598
2025-03-24 17:14:41.851,-3.29031446333885
2025-03-24 17:14:41.851,2.0559113715748953
2025-03-24 17:14:41.852,4.432489022699471
2025-03-24 17:14:41.852,2.0842985707544743
2025-03-24 17:14:41.852,-1.7442726577365766
2025-03-24 17:14:41.861,-2.9872607699468854
2025-03-24 17:14:41.861,-0.9291322934784038
2025-03-24 17:14:41.862,1.9206990342380441
2025-03-24 17:14:41.862,2.734727901749997
2025-03-24 17:14:41.862,0.6351699579989284
2025-03-24 17:14:41.871,-2.6770818276923487
2025-03-24 17:14:41.871,-3.8699103448950853
2025-03-24 17:14:41.872,-0.8684379964207659
2025-03-24 17:14:41.872,4.12118156660393
2025-03-24 17:14:41.872,5.708061657489308
2025-03-24 17:14:41.881,1.1677550219671273
2025-03-24 17:14:41.881,-5.408137290387733
2025-03-24 17:14:41.882,-6.902857753030333
2025-03-24 17:14:41.882,-1.4178207611150448
2025-03-24 17:14:41.882,5.22544058170988
2025-03-24 17:14:41.890,6.256494379814727
2025-03-24 17:14:41.890,1.5561537037543185
2025-03-24 17:14:41.890,-3.220919387244086
2025-03-24 17:14:41.890,-3.870144212793858
2025-03-24 17:14:41.890,-1.5057869319237973
2025-03-24 17:14:41.901,0.5638943204956915
2025-03-24 17:14:41.901,1.131052819621484
2025-03-24 17:14:41.901,1.1133760273835842
2025-03-24 17:14:41.902,1.0861813800302043
2025-03-24 17:14:41.902,0.6050894604723069
2025-03-24 17:14:41.909,-0.4181449722475329
2025-03-24 17:14:41.910,-1.0757481029837634
2025-03-24 17:14:41.910,-0.6719539830952852
2025-03-24 17:14:41.910,0.07739089331588817
2025-03-24 17:14:41.921,-0.09809238201551847
2025-03-24 17:14:41.921,-0.9316062065504148
2025-03-24 17:14:41.921,-0.5271375890947024
2025-03-24 17:14:41.922,1.7034841717230977
2025-03-24 17:14:41.922,3.1303428558488227
2025-03-24 17:14:41.922,0.9743176757434354
2025-03-24 17:14:41.929,-3.081133147063517
2025-03-24 17:14:41.930,-4.082326582050889
2025-03-24 17:14:41.930,-0.4487394184160045
2025-03-24 17:14:41.930,3.330001127703084
2025-03-24 17:14:41.930,2.701996851937877
2025-03-24 17:14:41.939,-0.5735032899694774
2025-03-24 17:14:41.940,-1.4209088671989076
2025-03-24 17:14:41.940,0.5318597887947916
2025-03-24 17:14:41.940,0.6025586055751115
2025-03-24 17:14:41.940,-2.648202267129715
2025-03-24 17:14:41.949,-3.917217060855838
2025-03-24 17:14:41.950,0.7984673112771177
2025-03-24 17:14:41.950,6.625350757290425
2025-03-24 17:14:41.950,5.477268339292318
2025-03-24 17:14:41.959,-2.280449020766696
2025-03-24 17:14:41.960,-7.467304485923656
2025-03-24 17:14:41.960,-4.209815643260701
2025-03-24 17:14:41.960,2.5404175945789147
2025-03-24 17:14:41.960,4.389125079194265
2025-03-24 17:14:41.969,0.7465244040448722
2025-03-24 17:14:41.970,-1.718284043195933
2025-03-24 17:14:41.970,0.538123595755681
2025-03-24 17:14:41.970,3.12305730698476
2025-03-24 17:14:41.970,0.7574534766089313
2025-03-24 17:14:41.979,-4.559224750380016
2025-03-24 17:14:41.980,-5.810496306302483
2025-03-24 17:14:41.980,-0.3066103734445597
2025-03-24 17:14:41.980,6.397401877302504
2025-03-24 17:14:41.980,6.8534783626811855
2025-03-24 17:14:41.989,0.3465177473932869
2025-03-24 17:14:41.990,-6.302128240360947
2025-03-24 17:14:41.990,-6.347146344681514
2025-03-24 17:14:41.990,-0.4029174036568972
2025-03-24 17:14:41.990,4.692162505392522
2025-03-24 17:14:41.999,3.9698410401943036
2025-03-24 17:14:42.000,-0.20610618069986253
2025-03-24 17:14:42.000,-1.9153739924071331
2025-03-24 17:14:42.000,0.28997692446056045
2025-03-24 17:14:42.000,1.8453397770136064
2025-03-24 17:14:42.009,-0.8157075431195906
2025-03-24 17:14:42.009,-4.633485435986533
2025-03-24 17:14:42.010,-3.839617904693252
2025-03-24 17:14:42.010,1.9042128655320922
2025-03-24 17:14:42.010,6.468704679946492
2025-03-24 17:14:42.019,4.765358340858784
2025-03-24 17:14:42.019,-1.1958635181984048
2025-03-24 17:14:42.020,-5.128893895537028
2025-03-24 17:14:42.020,-3.799446612696367
2025-03-24 17:14:42.020,0.2335372275241991
2025-03-24 17:14:42.029,2.53403539490882
2025-03-24 17:14:42.029,1.592248203855928
2025-03-24 17:14:42.030,-0.5793541726379186
2025-03-24 17:14:42.030,-1.295337063609734
2025-03-24 17:14:42.030,0.19445138489666408
2025-03-24 17:14:42.039,2.3269704461335228
2025-03-24 17:14:42.039,2.6684232364299776
2025-03-24 17:14:42.039,0.017748633242432976
2025-03-24 17:14:42.040,-4.096421387416707
2025-03-24 17:14:42.040,-5.979626184312325
2025-03-24 17:14:42.049,-2.814773006751735
2025-03-24 17:14:42.049,4.057577032927867
2025-03-24 17:14:42.050,9.221823804287242
2025-03-24 17:14:42.050,7.497349407912507
2025-03-24 17:14:42.050,-1.1012766585623563
2025-03-24 17:14:42.058,-10.37723431351567
2025-03-24 17:14:42.058,-12.32131679460426
2025-03-24 17:14:42.058,-3.9868931761907467
2025-03-24 17:14:42.058,8.69549113912497
2025-03-24 17:14:42.066,14.863973885628639
2025-03-24 17:14:42.066,8.605694306866418
2025-03-24 17:14:42.066,-4.717278601627784
2025-03-24 17:14:42.066,-13.327021872722772
2025-03-24 17:14:42.075,-10.457302143397547
2025-03-24 17:14:42.075,-0.028248356631591753
2025-03-24 17:14:42.076,8.505533006099924
2025-03-24 17:14:42.076,9.122829016157494
2025-03-24 17:14:42.076,3.1467088769091576
2025-03-24 17:14:42.085,-3.4815877261897183
2025-03-24 17:14:42.085,-5.638401725224331
2025-03-24 17:14:42.086,-2.9165321817657666
2025-03-24 17:14:42.086,0.7629917279176666
2025-03-24 17:14:42.086,1.6410784559973577
2025-03-24 17:14:42.095,0.15816377934368187
2025-03-24 17:14:42.095,-0.37367592497959246
2025-03-24 17:14:42.096,1.2244261590433951
2025-03-24 17:14:42.096,2.3626971662052925
2025-03-24 17:14:42.096,0.775027616167053
2025-03-24 17:14:42.105,-1.9171485528406729
2025-03-24 17:14:42.105,-2.5790117183084615
2025-03-24 17:14:42.106,-0.98510066686496
2025-03-24 17:14:42.106,0.5137718645845821
2025-03-24 17:14:42.106,0.8824211746278053
2025-03-24 17:14:42.114,1.2006724416084098
2025-03-24 17:14:42.114,1.6540780237073582
2025-03-24 17:14:42.114,0.7219235095043036
2025-03-24 17:14:42.114,-1.622191254610486
2025-03-24 17:14:42.114,-2.613949538582234
2025-03-24 17:14:42.124,-0.5987627109814424
2025-03-24 17:14:42.124,1.8097968547730379
2025-03-24 17:14:42.124,1.1631072700073652
2025-03-24 17:14:42.124,-1.4437108258212827
2025-03-24 17:14:42.124,-1.634149508594151
2025-03-24 17:14:42.134,1.681250049153844
2025-03-24 17:14:42.134,4.2182419553412425
2025-03-24 17:14:42.134,2.0089923134679415
2025-03-24 17:14:42.134,-3.1772482159979
2025-03-24 17:14:42.134,-5.941720943807661
2025-03-24 17:14:42.145,-3.5594005380850415
2025-03-24 17:14:42.145,1.5528943815454574
2025-03-24 17:14:42.146,5.13448054346722
2025-03-24 17:14:42.146,5.1542208437755646
2025-03-24 17:14:42.146,2.3638784857652917
2025-03-24 17:14:42.154,-1.5820738849380447
2025-03-24 17:14:42.154,-5.063806303450924
2025-03-24 17:14:42.154,-6.081665821299994
2025-03-24 17:14:42.154,-3.010468336582782
2025-03-24 17:14:42.163,2.977942270237125
2025-03-24 17:14:42.163,7.340938942650666
2025-03-24 17:14:42.164,5.966058985950039
2025-03-24 17:14:42.164,-0.15375613352074247
2025-03-24 17:14:42.164,-5.424794569942185
2025-03-24 17:14:42.173,-5.548096831131002
2025-03-24 17:14:42.174,-1.8512955069869406
2025-03-24 17:14:42.174,1.2467076632231815
2025-03-24 17:14:42.174,1.9499354413222063
2025-03-24 17:14:42.174,2.1917803530737925
2025-03-24 17:14:42.183,3.2171439696256083
2025-03-24 17:14:42.183,2.868856302424665
2025-03-24 17:14:42.184,-0.9120934843193346
2025-03-24 17:14:42.184,-5.642601344367314
2025-03-24 17:14:42.184,-6.199640198374374
2025-03-24 17:14:42.193,-1.1966691638857756
2025-03-24 17:14:42.193,4.824507018528845
2025-03-24 17:14:42.194,6.419576155173632
2025-03-24 17:14:42.194,2.910069869495559
2025-03-24 17:14:42.194,-1.9027527128821566
2025-03-24 17:14:42.203,-4.286265325435442
2025-03-24 17:14:42.203,-3.432399568292209
2025-03-24 17:14:42.204,-0.7123257832741441
2025-03-24 17:14:42.204,2.0038820705206715
2025-03-24 17:14:42.204,3.0879949824081465
2025-03-24 17:14:42.213,1.74679622740575
2025-03-24 17:14:42.213,-1.0624723796841877
2025-03-24 17:14:42.214,-2.840189428944014
2025-03-24 17:14:42.214,-1.7382686791855002
2025-03-24 17:14:42.214,1.2812498368115302
2025-03-24 17:14:42.223,3.1363192137399234
2025-03-24 17:14:42.223,1.786794661999451
2025-03-24 17:14:42.224,-1.6054700653709892
2025-03-24 17:14:42.224,-3.7688178897207947
2025-03-24 17:14:42.224,-2.383184047348096
2025-03-24 17:14:42.233,1.624032869257232
2025-03-24 17:14:42.233,4.478269008244941
2025-03-24 17:14:42.234,2.978470519778832
2025-03-24 17:14:42.234,-1.7092179935633818
2025-03-24 17:14:42.234,-4.619725167952143
2025-03-24 17:14:42.243,-2.6004925537402896
2025-03-24 17:14:42.243,1.661298109443919
2025-03-24 17:14:42.244,3.0804068575180046
2025-03-24 17:14:42.244,0.8619525037015101
2025-03-24 17:14:42.244,-0.8778551579113025
2025-03-24 17:14:42.253,0.5224312014036794
2025-03-24 17:14:42.253,2.111490452788919
2025-03-24 17:14:42.254,-0.3242648572437753
2025-03-24 17:14:42.254,-5.195490650195806
2025-03-24 17:14:42.254,-5.745447301104998
2025-03-24 17:14:42.262,1.0673128939367513
2025-03-24 17:14:42.262,8.917704048185037
2025-03-24 17:14:42.262,8.515544973236743
2025-03-24 17:14:42.262,-0.8592073905969908
2025-03-24 17:14:42.271,-9.618000460782298
2025-03-24 17:14:42.271,-8.838663363778894
2025-03-24 17:14:42.272,-0.27786359579127407
2025-03-24 17:14:42.272,6.7427903675941305
2025-03-24 17:14:42.272,6.524301437292726
2025-03-24 17:14:42.281,1.8916613646570302
2025-03-24 17:14:42.281,-1.6265476642528809
2025-03-24 17:14:42.281,-2.724984087671979
2025-03-24 17:14:42.282,-3.3934189188767943
2025-03-24 17:14:42.282,-3.644229023507158
2025-03-24 17:14:42.291,-1.048314778708829
2025-03-24 17:14:42.291,4.258837240776705
2025-03-24 17:14:42.291,7.430197271604208
2025-03-24 17:14:42.292,3.9777413369902503
2025-03-24 17:14:42.292,-4.131421903857113
2025-03-24 17:14:42.301,-9.392042958219523
2025-03-24 17:14:42.301,-6.164679528069659
2025-03-24 17:14:42.301,3.2496567779584895
2025-03-24 17:14:42.302,10.137722044675836
2025-03-24 17:14:42.302,7.524986664590494
2025-03-24 17:14:42.309,-2.460400657870153
2025-03-24 17:14:42.310,-9.893395421061102
2025-03-24 17:14:42.310,-7.141121492001582
2025-03-24 17:14:42.310,2.519342958112879
2025-03-24 17:14:42.319,8.317845187532846
2025-03-24 17:14:42.320,4.440092519983403
2025-03-24 17:14:42.320,-3.4112491901549644
2025-03-24 17:14:42.320,-5.59300949898271
2025-03-24 17:14:42.320,-0.47068832094618696
2025-03-24 17:14:42.329,4.416671377443525
2025-03-24 17:14:42.329,2.6938772293110715
2025-03-24 17:14:42.330,-2.8764799585939946
2025-03-24 17:14:42.330,-4.634170136261613
2025-03-24 17:14:42.330,-0.2708648677816291
2025-03-24 17:14:42.339,4.339431460605119
2025-03-24 17:14:42.339,3.2066495401451975
2025-03-24 17:14:42.340,-1.636709175477526
2025-03-24 17:14:42.340,-3.157494670759865
2025-03-24 17:14:42.340,0.3622478660161565
2025-03-24 17:14:42.349,2.597386063175308
2025-03-24 17:14:42.350,-1.1088167709461296
2025-03-24 17:14:42.350,-5.546760980806217
2025-03-24 17:14:42.350,-2.289982113917753
2025-03-24 17:14:42.350,7.089567574417974
2025-03-24 17:14:42.357,10.775535810024552
2025-03-24 17:14:42.358,1.7410885121116846
2025-03-24 17:14:42.358,-11.57848225726249
2025-03-24 17:14:42.358,-14.035646154754682
2025-03-24 17:14:42.367,-1.845694367074077
2025-03-24 17:14:42.367,12.34330075321249
2025-03-24 17:14:42.367,13.707235049185424
2025-03-24 17:14:42.368,1.7842168103858196
2025-03-24 17:14:42.368,-9.908808351428753
2025-03-24 17:14:42.376,-9.813556524481376
2025-03-24 17:14:42.376,-0.5304857925352406
2025-03-24 17:14:42.376,6.267239327558838
2025-03-24 17:14:42.376,4.3460451022714235
2025-03-24 17:14:42.376,-1.3365578073842508
2025-03-24 17:14:42.385,-3.0200063852343937
2025-03-24 17:14:42.386,-0.004929113295701226
2025-03-24 17:14:42.386,2.3748305178773945
2025-03-24 17:14:42.386,1.0232535553855409
2025-03-24 17:14:42.395,-1.5474136680504005
2025-03-24 17:14:42.396,-1.9140733067830242
2025-03-24 17:14:42.396,-0.39051986394972005
2025-03-24 17:14:42.396,0.5343513724620799
2025-03-24 17:14:42.396,0.27833038861934445
2025-03-24 17:14:42.405,0.3919966084713371
2025-03-24 17:14:42.405,1.3930560090363011
2025-03-24 17:14:42.406,1.668820832917085
2025-03-24 17:14:42.406,0.0510976002752662
2025-03-24 17:14:42.406,-2.177543046328846
2025-03-24 17:14:42.415,-2.8601787340893954
2025-03-24 17:14:42.416,-1.5193720744713233
2025-03-24 17:14:42.416,0.6428584101288279
2025-03-24 17:14:42.416,2.464430951253487
2025-03-24 17:14:42.416,3.3675130549609227
2025-03-24 17:14:42.425,2.6612382984053133
2025-03-24 17:14:42.425,-0.20469002986249857
2025-03-24 17:14:42.426,-4.119422083504098
2025-03-24 17:14:42.426,-5.965875680286242
2025-03-24 17:14:42.426,-3.162321655060908
2025-03-24 17:14:42.435,2.996705119676246
2025-03-24 17:14:42.435,7.423478810508159
2025-03-24 17:14:42.435,5.832338461354167
2025-03-24 17:14:42.436,-0.6535871658214877
2025-03-24 17:14:42.436,-6.2729846657998785
2025-03-24 17:14:42.445,-6.290305525850994
2025-03-24 17:14:42.446,-1.4285029807389251
2025-03-24 17:14:42.446,3.4417628572673453
2025-03-24 17:14:42.446,4.4010221015468405
2025-03-24 17:14:42.446,1.8936895678982926
2025-03-24 17:14:42.455,-0.6133655443084588
2025-03-24 17:14:42.455,-0.8942529959602052
2025-03-24 17:14:42.456,-0.352839238098123
2025-03-24 17:14:42.456,-1.4874193626571313
2025-03-24 17:14:42.456,-3.4009108662448058
2025-03-24 17:14:42.465,-2.0840283590238187
2025-03-24 17:14:42.465,3.4006213397273677
2025-03-24 17:14:42.465,7.33385710636119
2025-03-24 17:14:42.465,3.521727976813043
2025-03-24 17:14:42.466,-5.446682137305456
2025-03-24 17:14:42.474,-9.432350063244732
2025-03-24 17:14:42.474,-3.0160510865062164
2025-03-24 17:14:42.474,6.876508907860095
2025-03-24 17:14:42.474,8.910025189024166
2025-03-24 17:14:42.483,1.1380342731014
2025-03-24 17:14:42.484,-6.97043314762892
2025-03-24 17:14:42.484,-6.3733022125425745
2025-03-24 17:14:42.484,1.1405817459295053
2025-03-24 17:14:42.484,6.159935876608665
2025-03-24 17:14:42.493,3.2381991766014617
2025-03-24 17:14:42.494,-3.3230194231290433
2025-03-24 17:14:42.494,-5.347897663879254
2025-03-24 17:14:42.494,-0.5633964316005919
2025-03-24 17:14:42.494,5.083735296658581
2025-03-24 17:14:42.503,4.778465846593295
2025-03-24 17:14:42.504,-1.143385231665666
2025-03-24 17:14:42.504,-5.912390142397594
2025-03-24 17:14:42.504,-4.375380304039032
2025-03-24 17:14:42.504,1.5029762289310842
2025-03-24 17:14:42.513,5.499656002669146
2025-03-24 17:14:42.513,4.020426727309765
2025-03-24 17:14:42.514,-0.7554171980835497
2025-03-24 17:14:42.514,-3.8990179343989007
2025-03-24 17:14:42.514,-2.973606526509421
2025-03-24 17:14:42.523,-0.0538895919828031
2025-03-24 17:14:42.524,1.301606051222554
2025-03-24 17:14:42.524,0.48486520655748355
2025-03-24 17:14:42.524,0.1718704195584786
2025-03-24 17:14:42.524,1.9601470617055925
2025-03-24 17:14:42.533,3.248972174792532
2025-03-24 17:14:42.533,0.3865222293649494
2025-03-24 17:14:42.534,-5.358407563429193
2025-03-24 17:14:42.534,-7.452011964305157
2025-03-24 17:14:42.534,-1.5252082291102331
2025-03-24 17:14:42.543,7.926131723361807
2025-03-24 17:14:42.543,10.944055827000229
2025-03-24 17:14:42.544,3.1843921037395995
2025-03-24 17:14:42.544,-8.252513130644664
2025-03-24 17:14:42.544,-12.014104206959722
2025-03-24 17:14:42.553,-4.775357598268057
2025-03-24 17:14:42.553,5.725318307824009
2025-03-24 17:14:42.554,9.750227793663397
2025-03-24 17:14:42.554,5.325044077781891
2025-03-24 17:14:42.554,-1.7517615929485661
2025-03-24 17:14:42.562,-5.3222772366053075
2025-03-24 17:14:42.562,-4.236367320376783
2025-03-24 17:14:42.562,-1.2791392746915105
2025-03-24 17:14:42.562,0.8920251657078111
2025-03-24 17:14:42.562,1.8274950900885476
2025-03-24 17:14:42.572,2.205347470620101
2025-03-24 17:14:42.572,2.0294216509454825
2025-03-24 17:14:42.572,0.6824456102239405
2025-03-24 17:14:42.572,-1.5101637160488124
2025-03-24 17:14:42.572,-2.8568997538211254
2025-03-24 17:14:42.583,-2.0520868155985017
2025-03-24 17:14:42.583,0.21719014768388004
2025-03-24 17:14:42.584,2.0220239974156713
2025-03-24 17:14:42.584,2.1334710463510875
2025-03-24 17:14:42.584,0.7615050754035243
2025-03-24 17:14:42.592,-1.015134372435061
2025-03-24 17:14:42.592,-1.8735054492765035
2025-03-24 17:14:42.592,-0.9240972767274934
2025-03-24 17:14:42.592,1.2071214430157238
2025-03-24 17:14:42.592,2.2570501565646754
2025-03-24 17:14:42.602,0.511506021315424
2025-03-24 17:14:42.602,-2.6257824256776274
2025-03-24 17:14:42.602,-3.4332126970549415
2025-03-24 17:14:42.602,-0.16504099588646096
2025-03-24 17:14:42.611,4.170770698305894
2025-03-24 17:14:42.612,4.685098108418366
2025-03-24 17:14:42.612,0.3086992935191186
2025-03-24 17:14:42.612,-4.633350734365212
2025-03-24 17:14:42.612,-5.15638762879662
2025-03-24 17:14:42.621,-1.004616877218339
2025-03-24 17:14:42.622,3.548945521186125
2025-03-24 17:14:42.622,4.5672609204815116
2025-03-24 17:14:42.622,1.9499998030950745
2025-03-24 17:14:42.622,-1.5251946379694867
2025-03-24 17:14:42.631,-3.2023148353733126
2025-03-24 17:14:42.632,-2.3418283035580174
2025-03-24 17:14:42.632,-0.13031740145676718
2025-03-24 17:14:42.632,1.451332272323264
2025-03-24 17:14:42.632,1.3655053555716805
2025-03-24 17:14:42.641,0.45341502021471747
2025-03-24 17:14:42.642,0.16902391208370093
2025-03-24 17:14:42.642,0.5274399558666937
2025-03-24 17:14:42.642,0.3037335295737581
2025-03-24 17:14:42.642,-0.765012477965555
2025-03-24 17:14:42.651,-1.4275871233388817
2025-03-24 17:14:42.651,-0.9929161431433653
2025-03-24 17:14:42.652,-0.36044353036031473
2025-03-24 17:14:42.652,-0.10993352360155373
2025-03-24 17:14:42.652,0.745965887655927
2025-03-24 17:14:42.661,2.6135536014527996
2025-03-24 17:14:42.662,3.3818796404581617
2025-03-24 17:14:42.662,0.7503093494148094
2025-03-24 17:14:42.662,-4.03522368280283
2025-03-24 17:14:42.662,-6.594822659767847
2025-03-24 17:14:42.671,-3.7745718885846884
2025-03-24 17:14:42.672,3.041350853174871
2025-03-24 17:14:42.672,8.631532810738957
2025-03-24 17:14:42.672,7.830329033567852
2025-03-24 17:14:42.672,0.11280198649457385
2025-03-24 17:14:42.681,-8.782532896131478
2025-03-24 17:14:42.681,-11.036170254340345
2025-03-24 17:14:42.682,-4.055955758702889
2025-03-24 17:14:42.682,6.533048915760932
2025-03-24 17:14:42.682,11.821048799322288
2025-03-24 17:14:42.689,7.473735905913634
2025-03-24 17:14:42.690,-2.8461895639013512
2025-03-24 17:14:42.690,-10.60487449749368
2025-03-24 17:14:42.690,-9.179291325203351
2025-03-24 17:14:42.699,0.26714685006868766
2025-03-24 17:14:42.700,8.896002617059313
2025-03-24 17:14:42.700,8.24397212682451
2025-03-24 17:14:42.700,-0.558852313331355
2025-03-24 17:14:42.700,-7.485761751397179
2025-03-24 17:14:42.709,-5.0710246710763105
2025-03-24 17:14:42.710,2.825385852479324
2025-03-24 17:14:42.710,6.211577763293604
2025-03-24 17:14:42.710,1.5445371099443408
2025-03-24 17:14:42.710,-4.495631673865861
2025-03-24 17:14:42.719,-4.367760401203426
2025-03-24 17:14:42.720,0.7155041390128236
2025-03-24 17:14:42.720,3.4421814276095133
2025-03-24 17:14:42.720,0.9617332828950926
2025-03-24 17:14:42.720,-1.5678956047549357
2025-03-24 17:14:42.729,0.6623865365428949
2025-03-24 17:14:42.730,4.106776381907711
2025-03-24 17:14:42.730,1.6226121342851967
2025-03-24 17:14:42.730,-5.990914097660137
2025-03-24 17:14:42.730,-8.91883961916321
2025-03-24 17:14:42.739,-1.2165630204780766
2025-03-24 17:14:42.739,9.595016151864494
2025-03-24 17:14:42.740,10.718862051404344
2025-03-24 17:14:42.740,0.3504117977343355
2025-03-24 17:14:42.740,-9.59442025339451
2025-03-24 17:14:42.749,-8.26092749445944
2025-03-24 17:14:42.749,1.094116836447235
2025-03-24 17:14:42.750,6.392540530034134
2025-03-24 17:14:42.750,2.584119081814165
2025-03-24 17:14:42.750,-3.0108199189853813
2025-03-24 17:14:42.759,-1.9642311780734223
2025-03-24 17:14:42.759,3.621822962527394
2025-03-24 17:14:42.760,4.7972034415921305
2025-03-24 17:14:42.760,-1.2735890484760728
2025-03-24 17:14:42.760,-7.324765245826852
2025-03-24 17:14:42.769,-5.776775765873921
2025-03-24 17:14:42.769,1.688212684237205
2025-03-24 17:14:42.769,6.947700791663773
2025-03-24 17:14:42.770,5.439912597579299
2025-03-24 17:14:42.770,0.21846171140088877
2025-03-24 17:14:42.778,-3.2434690885518966
2025-03-24 17:14:42.778,-3.295635798457118
2025-03-24 17:14:42.778,-2.1717567895909884
2025-03-24 17:14:42.778,-1.6083911776325852
2025-03-24 17:14:42.788,-0.5128789961401407
2025-03-24 17:14:42.788,2.50509969117838
2025-03-24 17:14:42.788,5.572918228053438
2025-03-24 17:14:42.788,4.5536519483614555
2025-03-24 17:14:42.788,-1.5468072591286215
2025-03-24 17:14:42.798,-7.6318732908814795
2025-03-24 17:14:42.798,-7.121292009298403
2025-03-24 17:14:42.798,0.378187902854056
2025-03-24 17:14:42.798,7.797778703535204
2025-03-24 17:14:42.798,7.895935849896997
2025-03-24 17:14:42.798,0.79529939016734
2025-03-24 17:14:42.808,-6.597758924762172
2025-03-24 17:14:42.808,-7.856016680949466
2025-03-24 17:14:42.808,-2.655005087573979
2025-03-24 17:14:42.808,4.237172319944171
2025-03-24 17:14:42.817,7.803525973009653
2025-03-24 17:14:42.818,5.949397078206168
2025-03-24 17:14:42.818,-0.3847341715491236
2025-03-24 17:14:42.818,-7.701182868027744
2025-03-24 17:14:42.818,-10.547500530686593
2025-03-24 17:14:42.827,-4.8762275007022415
2025-03-24 17:14:42.828,6.7001893589066
2025-03-24 17:14:42.828,14.600962236129728
2025-03-24 17:14:42.828,10.520533962133811
2025-03-24 17:14:42.828,-3.398690627844129
2025-03-24 17:14:42.836,-15.420640777025206
2025-03-24 17:14:42.836,-15.038010460635284
2025-03-24 17:14:42.836,-2.487629370048648
2025-03-24 17:14:42.836,11.918702297810713
2025-03-24 17:14:42.845,16.740531880617638
2025-03-24 17:14:42.845,8.512237107524971
2025-03-24 17:14:42.846,-5.742787402991729
2025-03-24 17:14:42.846,-14.41096019262767
2025-03-24 17:14:42.846,-11.153312727596258
2025-03-24 17:14:42.855,-0.06901527712004829
2025-03-24 17:14:42.856,8.86385588807439
2025-03-24 17:14:42.856,9.273757126001463
2025-03-24 17:14:42.856,3.115585181827159
2025-03-24 17:14:42.856,-3.067477039497604
2025-03-24 17:14:42.865,-4.9138593997951725
2025-03-24 17:14:42.865,-2.976371751620092
2025-03-24 17:14:42.865,-0.28672866292878724
2025-03-24 17:14:42.866,1.1291599986031093
2025-03-24 17:14:42.866,1.2602363120243663
2025-03-24 17:14:42.874,0.8750086633073235
2025-03-24 17:14:42.874,0.3183431050147936
2025-03-24 17:14:42.874,-0.3043803286975201
2025-03-24 17:14:42.874,-0.38742913390476597
2025-03-24 17:14:42.874,0.6216730437030015
2025-03-24 17:14:42.884,1.6021854049938564
2025-03-24 17:14:42.884,0.24713975966164953
2025-03-24 17:14:42.884,-3.277505511088942
2025-03-24 17:14:42.884,-4.63248200910355
2025-03-24 17:14:42.893,-0.24058965227301407
2025-03-24 17:14:42.894,6.428013012755508
2025-03-24 17:14:42.894,7.251969176818329
2025-03-24 17:14:42.894,-0.2980800786817722
2025-03-24 17:14:42.894,-8.393583084678072
2025-03-24 17:14:42.903,-7.493119177957028
2025-03-24 17:14:42.904,1.5849600257610101
2025-03-24 17:14:42.904,8.114516744279195
2025-03-24 17:14:42.904,4.765367393820898
2025-03-24 17:14:42.904,-3.3123013517435735
2025-03-24 17:14:42.913,-5.7299064564456135
2025-03-24 17:14:42.914,-0.5460705939401157
2025-03-24 17:14:42.914,4.2092951056278896
2025-03-24 17:14:42.914,2.3775885299368413
2025-03-24 17:14:42.914,-2.4162423477847446
2025-03-24 17:14:42.923,-3.1274722105586434
2025-03-24 17:14:42.924,0.5747975409480848
2025-03-24 17:14:42.924,2.846182390419065
2025-03-24 17:14:42.924,0.6719561524293981
2025-03-24 17:14:42.924,-2.2824123410262684
2025-03-24 17:14:42.933,-1.6412907765232014
2025-03-24 17:14:42.934,1.424960602939422
2025-03-24 17:14:42.934,2.39453564726324
2025-03-24 17:14:42.934,0.03904021012086359
2025-03-24 17:14:42.934,-2.1599020095374333
2025-03-24 17:14:42.943,-1.2175823686937788
2025-03-24 17:14:42.943,1.3348700587895557
2025-03-24 17:14:42.944,1.9303746706220346
2025-03-24 17:14:42.944,-0.10787482318842026
2025-03-24 17:14:42.944,-2.0182008222646433
2025-03-24 17:14:42.953,-1.5650545103084372
2025-03-24 17:14:42.954,0.32875624536695536
2025-03-24 17:14:42.954,1.4533688433411913
2025-03-24 17:14:42.954,1.289867897835283
2025-03-24 17:14:42.954,0.8259191626152094
2025-03-24 17:14:42.963,0.31374900446810594
2025-03-24 17:14:42.964,-0.913734271745152
2025-03-24 17:14:42.964,-2.3347898888249827
2025-03-24 17:14:42.964,-1.9379048007179605
2025-03-24 17:14:42.964,0.7854227376051685
2025-03-24 17:14:42.973,2.974957889704896
2025-03-24 17:14:42.973,1.5715483763625744
2025-03-24 17:14:42.974,-1.994490768529362
2025-03-24 17:14:42.974,-2.6917223247325266
2025-03-24 17:14:42.974,1.4010505981394945
2025-03-24 17:14:42.983,5.245787144921067
2025-03-24 17:14:42.983,2.4378367030743333
2025-03-24 17:14:42.984,-5.636034164078322
2025-03-24 17:14:42.984,-9.568644777759573
2025-03-24 17:14:42.984,-2.9398037396138523
2025-03-24 17:14:42.992,8.56459170373668
2025-03-24 17:14:42.992,12.487649471763415
2025-03-24 17:14:42.992,4.0296793204747035
2025-03-24 17:14:42.992,-8.107676280517573
2025-03-24 17:14:43.002,-11.8058612319386
2025-03-24 17:14:43.002,-4.894770947028477
2025-03-24 17:14:43.002,4.229625050896732
2025-03-24 17:14:43.002,7.594258788266188
2025-03-24 17:14:43.002,5.139088644617718
2025-03-24 17:14:43.002,1.0565724151023042
2025-03-24 17:14:43.011,-2.5525483524779946
2025-03-24 17:14:43.012,-5.3026199319932985
2025-03-24 17:14:43.012,-5.158059916064522
2025-03-24 17:14:43.012,-0.38908255217019255
2025-03-24 17:14:43.021,5.6977547846948795
2025-03-24 17:14:43.022,6.6401166587313964
2025-03-24 17:14:43.022,0.8539420454366797
2025-03-24 17:14:43.022,-5.513787465746659
2025-03-24 17:14:43.022,-5.824905164582147
2025-03-24 17:14:43.031,-0.6941941847582673
2025-03-24 17:14:43.032,3.8139849379356017
2025-03-24 17:14:43.032,3.941736332321628
2025-03-24 17:14:43.032,1.3374102273246962
2025-03-24 17:14:43.032,-0.841600041419527
2025-03-24 17:14:43.041,-1.8238137391507676
2025-03-24 17:14:43.042,-2.3778512920437005
2025-03-24 17:14:43.042,-2.2488072472153506
2025-03-24 17:14:43.042,-0.36987349548984466
2025-03-24 17:14:43.042,2.7352742345566323
2025-03-24 17:14:43.051,4.335429644864898
2025-03-24 17:14:43.052,2.2299418852137394
2025-03-24 17:14:43.052,-2.191880147094611
2025-03-24 17:14:43.052,-4.694833299446262
2025-03-24 17:14:43.052,-2.71432580067973
2025-03-24 17:14:43.061,1.4416510044484216
2025-03-24 17:14:43.061,3.1286129487120693
2025-03-24 17:14:43.062,1.0736674204628376
2025-03-24 17:14:43.062,-1.1324324641341046
2025-03-24 17:14:43.062,-0.1729532981157757
2025-03-24 17:14:43.071,2.1123710332547847
2025-03-24 17:14:43.071,1.295634115630891
2025-03-24 17:14:43.072,-2.848750282089538
2025-03-24 17:14:43.072,-5.137239246085687
2025-03-24 17:14:43.072,-1.680053270080753
2025-03-24 17:14:43.081,4.442651907802769
2025-03-24 17:14:43.081,6.410182632111524
2025-03-24 17:14:43.082,1.890614010675354
2025-03-24 17:14:43.082,-4.073077488611085
2025-03-24 17:14:43.082,-5.0939007012392175
2025-03-24 17:14:43.090,-0.9986930970045403
2025-03-24 17:14:43.090,2.4110412517423736
2025-03-24 17:14:43.090,1.1456231035125775
2025-03-24 17:14:43.090,-1.7391447448194541
2025-03-24 17:14:43.090,-0.6826824004737858
2025-03-24 17:14:43.100,3.982697235020542
2025-03-24 17:14:43.100,5.5911171878215695
2025-03-24 17:14:43.100,0.04773533622401524
2025-03-24 17:14:43.100,-7.627492346231888
2025-03-24 17:14:43.110,-8.472559879658979
2025-03-24 17:14:43.110,-0.6201001350306332
2025-03-24 17:14:43.110,7.842671575190719
2025-03-24 17:14:43.110,8.267024063549542
2025-03-24 17:14:43.110,1.392339911527024
2025-03-24 17:14:43.120,-4.6173484146487604
2025-03-24 17:14:43.120,-4.689157968062927
2025-03-24 17:14:43.120,-1.6376568992491398
2025-03-24 17:14:43.120,-0.13368230826104982
2025-03-24 17:14:43.120,-0.08533972662301528
2025-03-24 17:14:43.129,1.279402359335228
2025-03-24 17:14:43.130,3.558101492794224
2025-03-24 17:14:43.130,3.3742068630934594
2025-03-24 17:14:43.130,-0.17865370443627526
2025-03-24 17:14:43.130,-3.749727615396395
2025-03-24 17:14:43.140,-4.06153647643007
2025-03-24 17:14:43.140,-1.5669692937086823
2025-03-24 17:14:43.140,1.1615284182796566
2025-03-24 17:14:43.140,2.6446421695813314
2025-03-24 17:14:43.140,2.800017496180964
2025-03-24 17:14:43.149,1.6881977776250563
2025-03-24 17:14:43.150,-0.3275042878187129
2025-03-24 17:14:43.150,-2.029082365001813
2025-03-24 17:14:43.150,-2.394307085050165
2025-03-24 17:14:43.150,-1.6691331800696732
2025-03-24 17:14:43.159,-0.4734997996193633
2025-03-24 17:14:43.160,1.1472094559637387
2025-03-24 17:14:43.160,2.629105977094113
2025-03-24 17:14:43.160,2.236393700466067
2025-03-24 17:14:43.160,-0.5105883679126973
2025-03-24 17:14:43.169,-2.738110254170121
2025-03-24 17:14:43.170,-1.2307854327369985
2025-03-24 17:14:43.170,2.4738801984296566
2025-03-24 17:14:43.170,2.946161132319579
2025-03-24 17:14:43.170,-1.8166293657631716
2025-03-24 17:14:43.179,-6.378488922737898
2025-03-24 17:14:43.179,-3.955105380163362
2025-03-24 17:14:43.180,4.339308142883576
2025-03-24 17:14:43.180,9.555249105645007
2025-03-24 17:14:43.180,5.283124187880608
2025-03-24 17:14:43.188,-4.400595085460485
2025-03-24 17:14:43.188,-9.535092300812824
2025-03-24 17:14:43.188,-5.640563296663516
2025-03-24 17:14:43.188,2.1169040642185353
2025-03-24 17:14:43.189,6.01948682208562
2025-03-24 17:14:43.198,4.227270153942164
2025-03-24 17:14:43.198,0.7332479057666901
2025-03-24 17:14:43.198,-0.9631889170975235
2025-03-24 17:14:43.198,-1.3798723537108697
2025-03-24 17:14:43.208,-2.346997206175163
2025-03-24 17:14:43.208,-3.251362957352338
2025-03-24 17:14:43.208,-1.765992187626931
2025-03-24 17:14:43.208,2.242928563734422
2025-03-24 17:14:43.208,5.3437324785127105
2025-03-24 17:14:43.218,4.004775983325776
2025-03-24 17:14:43.218,-1.1476892378565524
2025-03-24 17:14:43.218,-5.468587833087638
2025-03-24 17:14:43.218,-4.87087269147744
2025-03-24 17:14:43.218,0.07544475599330558
2025-03-24 17:14:43.227,4.734602235004722
2025-03-24 17:14:43.228,4.895470553909717
2025-03-24 17:14:43.228,0.6152209155801049
2025-03-24 17:14:43.228,-4.0912713343907585
2025-03-24 17:14:43.228,-5.020564590505055
2025-03-24 17:14:43.237,-1.3942391666691951
2025-03-24 17:14:43.238,3.6077552347919397
2025-03-24 17:14:43.238,5.558861221221947
2025-03-24 17:14:43.238,2.5767811357911725
2025-03-24 17:14:43.238,-2.8420712412902667
2025-03-24 17:14:43.247,-5.851002376720574
2025-03-24 17:14:43.248,-3.7183213204303858
2025-03-24 17:14:43.248,1.5878520488582208
2025-03-24 17:14:43.248,5.390080638133595
2025-03-24 17:14:43.248,4.576685451352165
2025-03-24 17:14:43.257,-0.08681273821462743
2025-03-24 17:14:43.258,-4.855466811172997
2025-03-24 17:14:43.258,-5.663338137299226
2025-03-24 17:14:43.258,-1.2648107166218487
2025-03-24 17:14:43.258,4.89437712547127
2025-03-24 17:14:43.266,6.919355195851704
2025-03-24 17:14:43.266,2.342109815770609
2025-03-24 17:14:43.266,-4.604842956146572
2025-03-24 17:14:43.266,-7.14857590642088
2025-03-24 17:14:43.276,-3.2294775484220057
2025-03-24 17:14:43.276,2.811645913179952
2025-03-24 17:14:43.276,5.533584854749548
2025-03-24 17:14:43.276,3.660936507122644
2025-03-24 17:14:43.276,-0.09106202457209048
2025-03-24 17:14:43.286,-2.6190517260745576
2025-03-24 17:14:43.286,-2.8761644580458876
2025-03-24 17:14:43.286,-1.730735192919282
2025-03-24 17:14:43.286,-0.4841896060359299
2025-03-24 17:14:43.286,0.4559303087966695
2025-03-24 17:14:43.296,1.5644021824115606
2025-03-24 17:14:43.296,2.7763700134149523
2025-03-24 17:14:43.296,2.652910935677338
2025-03-24 17:14:43.296,0.04145099782736552
2025-03-24 17:14:43.296,-3.4682405499102544
2025-03-24 17:14:43.306,-4.30636604115542
2025-03-24 17:14:43.306,-1.2013310329377287
2025-03-24 17:14:43.306,2.488918244974946
2025-03-24 17:14:43.306,2.6236598693247934
2025-03-24 17:14:43.306,-0.046116444625088376
2025-03-24 17:14:43.315,-0.7356897307113346
2025-03-24 17:14:43.316,2.125982763609501
2025-03-24 17:14:43.316,3.6824097185717
2025-03-24 17:14:43.316,-0.5453048497904667
2025-03-24 17:14:43.316,-6.894172359352689
2025-03-24 17:14:43.325,-7.066555314249525
2025-03-24 17:14:43.326,0.6208412768877704
2025-03-24 17:14:43.326,8.03044800369461
2025-03-24 17:14:43.326,7.224447589985428
2025-03-24 17:14:43.326,0.15567982534869623
2025-03-24 17:14:43.334,-4.823016781437471
2025-03-24 17:14:43.334,-3.7796859749040483
2025-03-24 17:14:43.334,-0.48442724873179893
2025-03-24 17:14:43.334,0.42504154839707275
2025-03-24 17:14:43.334,-0.6864837501697245
2025-03-24 17:14:43.345,-0.694220689678193
2025-03-24 17:14:43.346,1.2392900450278037
2025-03-24 17:14:43.346,3.0956293829974917
2025-03-24 17:14:43.346,2.9721412934157296
2025-03-24 17:14:43.346,0.7045705138637195
2025-03-24 17:14:43.354,-2.5638693575946068
2025-03-24 17:14:43.354,-4.736365509724576
2025-03-24 17:14:43.354,-3.535258886213733
2025-03-24 17:14:43.354,0.9303025220511502
2025-03-24 17:14:43.355,4.704833817002263
2025-03-24 17:14:43.364,3.6680979902443593
2025-03-24 17:14:43.364,-0.8355920650301771
2025-03-24 17:14:43.364,-2.8458765399617403
2025-03-24 17:14:43.364,0.19855644570639952
2025-03-24 17:14:43.364,3.1352749618676663
2025-03-24 17:14:43.374,0.04043022068925092
2025-03-24 17:14:43.374,-6.185281862797452
2025-03-24 17:14:43.374,-6.151132001701164
2025-03-24 17:14:43.374,2.888594363534809
2025-03-24 17:14:43.383,11.009852789742446
2025-03-24 17:14:43.383,7.153169861652104
2025-03-24 17:14:43.384,-5.624017137144095
2025-03-24 17:14:43.384,-12.395619797688793
2025-03-24 17:14:43.384,-4.869891322633196
2025-03-24 17:14:43.392,7.788999241539647
2025-03-24 17:14:43.392,10.418954379577249
2025-03-24 17:14:43.392,0.7349839832949137
2025-03-24 17:14:43.392,-8.675503512469446
2025-03-24 17:14:43.401,-6.823590794904097
2025-03-24 17:14:43.402,2.648999699672523
2025-03-24 17:14:43.402,7.640822502536266
2025-03-24 17:14:43.402,3.211314544113711
2025-03-24 17:14:43.402,-3.7409503940774136
2025-03-24 17:14:43.411,-4.84761887301929
2025-03-24 17:14:43.412,-0.4266727839267308
2025-03-24 17:14:43.412,2.9609356802666627
2025-03-24 17:14:43.412,1.803385618936678
2025-03-24 17:14:43.412,-1.1669700915259078
2025-03-24 17:14:43.421,-1.9716399341173634
2025-03-24 17:14:43.422,-0.1922540668223266
2025-03-24 17:14:43.422,1.6923482465735442
2025-03-24 17:14:43.422,1.6401872125616408
2025-03-24 17:14:43.422,-0.10681633243350333
2025-03-24 17:14:43.431,-1.5506075367327492
2025-03-24 17:14:43.432,-1.046159220579271
2025-03-24 17:14:43.432,0.6395355474243426
2025-03-24 17:14:43.432,0.9793000320379409
2025-03-24 17:14:43.432,-0.7757307684135877
2025-03-24 17:14:43.442,-1.9284165612571476
2025-03-24 17:14:43.442,-0.030338236343069584
2025-03-24 17:14:43.442,2.8787191478829217
2025-03-24 17:14:43.442,2.611779326546439
2025-03-24 17:14:43.442,-0.9040529869722596
2025-03-24 17:14:43.451,-3.159598871086562
2025-03-24 17:14:43.451,-1.5817640130613164
2025-03-24 17:14:43.452,0.9791937758509621
2025-03-24 17:14:43.452,1.0454133503980851
2025-03-24 17:14:43.452,-0.32930257600631696
2025-03-24 17:14:43.461,-0.011930265212101263
2025-03-24 17:14:43.461,1.71568387093103
2025-03-24 17:14:43.462,1.6245717887584197
2025-03-24 17:14:43.462,-1.0593852559893273
2025-03-24 17:14:43.462,-3.0578436850958512
2025-03-24 17:14:43.471,-1.6967134504906607
2025-03-24 17:14:43.472,1.3095052214259653
2025-03-24 17:14:43.472,2.3648884239454224
2025-03-24 17:14:43.472,0.7966423328072756
2025-03-24 17:14:43.472,-0.8114430183606801
2025-03-24 17:14:43.481,-0.5606061773489321
2025-03-24 17:14:43.482,0.45932714750001324
2025-03-24 17:14:43.482,0.28914588532226126
2025-03-24 17:14:43.482,-0.917538121907171
2025-03-24 17:14:43.482,-1.2605734168065792
2025-03-24 17:14:43.491,-0.0025567591760378566
2025-03-24 17:14:43.492,1.2498411264330744
2025-03-24 17:14:43.492,0.8461098219934461
2025-03-24 17:14:43.492,-0.42202795568370643
2025-03-24 17:14:43.492,-0.48055172823717535
2025-03-24 17:14:43.501,0.7298642138892969
2025-03-24 17:14:43.502,0.9633227792145728
2025-03-24 17:14:43.502,-0.7846551575997192
2025-03-24 17:14:43.502,-2.2975992695891465
2025-03-24 17:14:43.502,-1.1271871944603824
2025-03-24 17:14:43.511,1.6961850873576445
2025-03-24 17:14:43.511,2.7706504094869415
2025-03-24 17:14:43.512,0.7563871784250711
2025-03-24 17:14:43.512,-1.9108917087610648
2025-03-24 17:14:43.512,-2.085058871572724
2025-03-24 17:14:43.521,0.26270830912255716
2025-03-24 17:14:43.522,2.013486540236681
2025-03-24 17:14:43.522,0.7002076028326094
2025-03-24 17:14:43.522,-2.207104962188002
2025-03-24 17:14:43.522,-2.71450341064348
2025-03-24 17:14:43.531,0.685929255539346
2025-03-24 17:14:43.532,4.522760123553766
2025-03-24 17:14:43.532,4.088077995867757
2025-03-24 17:14:43.532,-0.8837555246894555
2025-03-24 17:14:43.532,-5.714219500620801
2025-03-24 17:14:43.541,-5.8338547594697046
2025-03-24 17:14:43.542,-1.0965746190088603
2025-03-24 17:14:43.542,4.735030485418509
2025-03-24 17:14:43.542,7.318447341061542
2025-03-24 17:14:43.542,4.5876942906247695
2025-03-24 17:14:43.550,-1.839553256530728
2025-03-24 17:14:43.550,-7.268346734079722
2025-03-24 17:14:43.550,-7.260646915269752
2025-03-24 17:14:43.550,-1.6753721205715655
2025-03-24 17:14:43.551,4.855521632525197
2025-03-24 17:14:43.560,7.132655562828917
2025-03-24 17:14:43.560,4.013290997791564
2025-03-24 17:14:43.560,-1.194008257360329
2025-03-24 17:14:43.560,-4.303710186780376
2025-03-24 17:14:43.560,-3.802200068822456
2025-03-24 17:14:43.570,-1.3605035800499103
2025-03-24 17:14:43.570,0.5074235414709047
2025-03-24 17:14:43.570,1.1081014464094765
2025-03-24 17:14:43.570,1.6897054800045357
2025-03-24 17:14:43.580,2.7968701265048828
2025-03-24 17:14:43.580,2.5608443795718734
2025-03-24 17:14:43.580,-0.8135385550309384
2025-03-24 17:14:43.580,-5.208237921457602
2025-03-24 17:14:43.580,-5.588270241664785
2025-03-24 17:14:43.589,-0.06476602670488571
2025-03-24 17:14:43.590,6.568138998106427
2025-03-24 17:14:43.590,7.3226818359290204
2025-03-24 17:14:43.590,0.8869388023329141
2025-03-24 17:14:43.590,-6.504454687957619
2025-03-24 17:14:43.599,-7.619953481566649
2025-03-24 17:14:43.600,-1.7866509092452527
2025-03-24 17:14:43.600,4.880877260157366
2025-03-24 17:14:43.600,6.3290479576173855
2025-03-24 17:14:43.600,2.4606668132296017
2025-03-24 17:14:43.609,-2.093863116967389
2025-03-24 17:14:43.609,-3.713460847140521
2025-03-24 17:14:43.610,-2.700566472055636
2025-03-24 17:14:43.610,-0.9625758709609342
2025-03-24 17:14:43.610,0.8088069168561782
2025-03-24 17:14:43.619,2.4893503186850663
2025-03-24 17:14:43.620,2.9170415568727956
2025-03-24 17:14:43.620,1.109361991857712
2025-03-24 17:14:43.620,-1.5944117988988646
2025-03-24 17:14:43.620,-2.6553695296880235
2025-03-24 17:14:43.628,-1.5094717824229296
2025-03-24 17:14:43.628,0.062374316520277764
2025-03-24 17:14:43.628,0.6834596292460619
2025-03-24 17:14:43.628,0.7686754773516984
2025-03-24 17:14:43.628,0.9607902629864644
2025-03-24 17:14:43.638,0.9205976464737541
2025-03-24 17:14:43.638,0.34718937991480703
2025-03-24 17:14:43.638,-0.19898819523687525
2025-03-24 17:14:43.638,-0.38937621563130753
2025-03-24 17:14:43.638,-0.9070023582562473
2025-03-24 17:14:43.648,-1.9943560277413672
2025-03-24 17:14:43.648,-2.1172311427361223
2025-03-24 17:14:43.648,0.2846866162373529
2025-03-24 17:14:43.648,3.8339599652458785
2025-03-24 17:14:43.658,4.719146596377739
2025-03-24 17:14:43.658,1.076819787171761
2025-03-24 17:14:43.658,-4.0523280847065335
2025-03-24 17:14:43.658,-5.460959544966441
2025-03-24 17:14:43.658,-1.6006282610414542
2025-03-24 17:14:43.667,3.280692888783468
2025-03-24 17:14:43.668,3.7217328949902844
2025-03-24 17:14:43.668,-0.40632039729579544
2025-03-24 17:14:43.668,-3.313303119984985
2025-03-24 17:14:43.668,-0.41623340825941935
2025-03-24 17:14:43.677,4.984407267156297
2025-03-24 17:14:43.678,4.883903350128865
2025-03-24 17:14:43.678,-2.790401826901424
2025-03-24 17:14:43.678,-9.741422675385994
2025-03-24 17:14:43.678,-6.604698059785412
2025-03-24 17:14:43.686,4.657108065827368
2025-03-24 17:14:43.686,11.758375128141802
2025-03-24 17:14:43.686,6.522241248898162
2025-03-24 17:14:43.687,-5.0877758009127625
2025-03-24 17:14:43.687,-10.160370336663554
2025-03-24 17:14:43.696,-4.1906343845866205
2025-03-24 17:14:43.696,4.5870061968756985
2025-03-24 17:14:43.696,6.356158349586668
2025-03-24 17:14:43.696,1.1581279756081302
2025-03-24 17:14:43.696,-3.331901633696511
2025-03-24 17:14:43.706,-2.5966436618151696
2025-03-24 17:14:43.706,0.42743229477080597
2025-03-24 17:14:43.706,1.3725581981706798
2025-03-24 17:14:43.706,0.3738171068710529
2025-03-24 17:14:43.715,0.09662136701966821
2025-03-24 17:14:43.716,0.779028377415638
2025-03-24 17:14:43.716,0.33659137876226475
2025-03-24 17:14:43.716,-1.5429707162541646
2025-03-24 17:14:43.716,-2.3568642146668113
2025-03-24 17:14:43.725,-0.41779154483749015
2025-03-24 17:14:43.726,2.4392497480484634
2025-03-24 17:14:43.726,2.993422548738329
2025-03-24 17:14:43.726,0.5554575247093811
2025-03-24 17:14:43.726,-2.348006048868823
2025-03-24 17:14:43.735,-2.8738088379039697
2025-03-24 17:14:43.736,-0.7031829834315368
2025-03-24 17:14:43.736,1.8713668569750967
2025-03-24 17:14:43.736,2.2887173115968134
2025-03-24 17:14:43.736,0.320673213707384
2025-03-24 17:14:43.745,-1.612343637768932
2025-03-24 17:14:43.746,-1.2330761008969733
2025-03-24 17:14:43.746,0.6441758911952701
2025-03-24 17:14:43.746,1.1531786676094922
2025-03-24 17:14:43.746,-0.452561196735167
2025-03-24 17:14:43.755,-1.466779040395914
2025-03-24 17:14:43.755,0.2572632502340735
2025-03-24 17:14:43.756,2.60339350673474
2025-03-24 17:14:43.756,1.7269892737267878
2025-03-24 17:14:43.756,-2.2417203958090113
2025-03-24 17:14:43.765,-4.538268287343172
2025-03-24 17:14:43.766,-1.7190630163015201
2025-03-24 17:14:43.766,3.504700899204542
2025-03-24 17:14:43.766,5.248403706768531
2025-03-24 17:14:43.766,1.6609935484655165
2025-03-24 17:14:43.775,-2.997901124782087
2025-03-24 17:14:43.776,-3.970639473448311
2025-03-24 17:14:43.776,-1.570140803945151
2025-03-24 17:14:43.776,0.518616007827909
2025-03-24 17:14:43.776,0.9090564143905634
2025-03-24 17:14:43.785,1.569111495402626
2025-03-24 17:14:43.786,3.1912956690609615
2025-03-24 17:14:43.786,2.802358939487146
2025-03-24 17:14:43.786,-1.7089100902308174
2025-03-24 17:14:43.786,-6.637585277032914
2025-03-24 17:14:43.795,-5.694371200487144
2025-03-24 17:14:43.796,1.57493182413044
2025-03-24 17:14:43.796,7.981388865228654
2025-03-24 17:14:43.796,6.929154553716904
2025-03-24 17:14:43.796,-0.1069337043136096
2025-03-24 17:14:43.805,-6.282944470691346
2025-03-24 17:14:43.805,-7.116203746898836
2025-03-24 17:14:43.806,-3.1079685148029754
2025-03-24 17:14:43.806,2.8274046581677745
2025-03-24 17:14:43.806,7.079230270283661
2025-03-24 17:14:43.814,6.177288775515381
2025-03-24 17:14:43.814,-0.04228932188552062
2025-03-24 17:14:43.814,-6.347824879799058
2025-03-24 17:14:43.814,-6.595688484743809
2025-03-24 17:14:43.824,-0.8427479831068683
2025-03-24 17:14:43.824,4.52133891423013
2025-03-24 17:14:43.824,4.351710908910137
2025-03-24 17:14:43.824,0.24927998242316296
2025-03-24 17:14:43.824,-2.5092759638327844
2025-03-24 17:14:43.834,-1.6082586698226482
2025-03-24 17:14:43.834,0.6133783268940097
2025-03-24 17:14:43.834,1.2487686175535646
2025-03-24 17:14:43.834,0.31329520865749405
2025-03-24 17:14:43.834,-0.4985940664435895
2025-03-24 17:14:43.834,-0.7432788941088967
2025-03-24 17:14:43.844,-1.115170234010315
2025-03-24 17:14:43.844,-1.1635872377248648
2025-03-24 17:14:43.844,0.5344869208465021
2025-03-24 17:14:43.844,3.358904530489791
2025-03-24 17:14:43.844,3.889385799794996
2025-03-24 17:14:43.854,-0.048854527315717766
2025-03-24 17:14:43.854,-5.470102938054426
2025-03-24 17:14:43.854,-6.503986170062911
2025-03-24 17:14:43.854,-1.1311644219647057
2025-03-24 17:14:43.863,5.82001016513933
2025-03-24 17:14:43.864,7.617327417986682
2025-03-24 17:14:43.864,2.847013308991579
2025-03-24 17:14:43.864,-3.6035286028848046
2025-03-24 17:14:43.864,-6.303744445620387
2025-03-24 17:14:43.873,-4.303452939082708
2025-03-24 17:14:43.874,-0.33797803556521033
2025-03-24 17:14:43.874,2.8929779237213933
2025-03-24 17:14:43.874,4.338073826682529
2025-03-24 17:14:43.874,3.740769828005747
2025-03-24 17:14:43.883,1.1372172535471134
2025-03-24 17:14:43.884,-2.426818943894296
2025-03-24 17:14:43.884,-4.728262748731127
2025-03-24 17:14:43.884,-3.911273913315133
2025-03-24 17:14:43.884,-0.4103407619977366
2025-03-24 17:14:43.893,3.0818827445889214
2025-03-24 17:14:43.894,4.043096293576115
2025-03-24 17:14:43.894,2.4499044512826575
2025-03-24 17:14:43.894,0.22041693427538772
2025-03-24 17:14:43.894,-1.4300695338529317
2025-03-24 17:14:43.903,-2.8683252250776294
2025-03-24 17:14:43.904,-3.8979200675864933
2025-03-24 17:14:43.904,-2.5504679184687853
2025-03-24 17:14:43.904,2.029464467278944
2025-03-24 17:14:43.904,6.4642971857555835
2025-03-24 17:14:43.912,5.742278676466668
2025-03-24 17:14:43.912,-0.46688771242443006
2025-03-24 17:14:43.912,-6.416020549754811
2025-03-24 17:14:43.912,-6.5533046746647985
2025-03-24 17:14:43.913,-1.5586214410625843
2025-03-24 17:14:43.923,3.383474860903203
2025-03-24 17:14:43.924,4.837054281357458
2025-03-24 17:14:43.924,3.473962371593992
2025-03-24 17:14:43.924,1.0889627636227877
2025-03-24 17:14:43.924,-1.7626689881770097
2025-03-24 17:14:43.932,-4.340717619552385
2025-03-24 17:14:43.932,-4.424288528357895
2025-03-24 17:14:43.932,-0.7833912448933171
2025-03-24 17:14:43.933,3.8481804896581573
2025-03-24 17:14:43.933,4.809144810747501
2025-03-24 17:14:43.942,1.171691593599523
2025-03-24 17:14:43.942,-2.6471584552660667
2025-03-24 17:14:43.942,-2.3781446744185675
2025-03-24 17:14:43.942,0.5938501968243785
2025-03-24 17:14:43.943,1.4871034415557771
2025-03-24 17:14:43.952,-0.9615270410994798
2025-03-24 17:14:43.952,-2.8161729158235507
2025-03-24 17:14:43.952,-0.7594932412697577
2025-03-24 17:14:43.952,3.0772057716383876
2025-03-24 17:14:43.962,3.909409259130981
2025-03-24 17:14:43.962,0.4991983862791093
2025-03-24 17:14:43.962,-3.40362863412368
2025-03-24 17:14:43.962,-3.562549651726211
2025-03-24 17:14:43.962,0.05504209936191801
2025-03-24 17:14:43.972,3.2914012306965197
2025-03-24 17:14:43.972,2.2299887574325026
2025-03-24 17:14:43.972,-2.2072908623333305
2025-03-24 17:14:43.972,-4.493234148883357
2025-03-24 17:14:43.972,-0.6252457652923957
2025-03-24 17:14:43.981,6.0069377175379834
2025-03-24 17:14:43.982,7.180327886942135
2025-03-24 17:14:43.982,-0.28448468099278507
2025-03-24 17:14:43.982,-9.21751110508476
2025-03-24 17:14:43.982,-9.48320702277206
2025-03-24 17:14:43.992,-0.08210977091947413
2025-03-24 17:14:43.992,9.198669322712213
2025-03-24 17:14:43.992,9.073664763562762
2025-03-24 17:14:43.992,1.06050094134604
2025-03-24 17:14:43.992,-5.555117672788487
2025-03-24 17:14:44.002,-5.233542175341515
2025-03-24 17:14:44.002,-1.3282266309087016
2025-03-24 17:14:44.002,0.3478961256850058
2025-03-24 17:14:44.002,-0.5210258140536004
2025-03-24 17:14:44.002,0.1757017132358118
2025-03-24 17:14:44.011,3.7045373712686875
2025-03-24 17:14:44.012,5.813901021523691
2025-03-24 17:14:44.012,2.2377721501765953
2025-03-24 17:14:44.012,-5.069474982416752
2025-03-24 17:14:44.012,-9.018235759832429
2025-03-24 17:14:44.021,-4.884267786054821
2025-03-24 17:14:44.022,4.05450758244895
2025-03-24 17:14:44.022,9.311055095871875
2025-03-24 17:14:44.022,5.9972344000420055
2025-03-24 17:14:44.022,-1.955564739526087
2025-03-24 17:14:44.030,-6.412236128259374
2025-03-24 17:14:44.030,-4.227777454587803
2025-03-24 17:14:44.030,0.08679994830046783
2025-03-24 17:14:44.030,1.1573371019954892
2025-03-24 17:14:44.031,-0.28093418045691393
2025-03-24 17:14:44.041,0.5097065773777991
2025-03-24 17:14:44.042,4.344645737976846
2025-03-24 17:14:44.042,5.8160935921355845
2025-03-24 17:14:44.042,0.5163097170289205
2025-03-24 17:14:44.042,-7.693274622488582
2025-03-24 17:14:44.050,-9.814352181400874
2025-03-24 17:14:44.050,-2.3494002418686692
2025-03-24 17:14:44.050,7.717907333277523
2025-03-24 17:14:44.050,10.28209568851445
2025-03-24 17:14:44.051,3.3218023324524664
2025-03-24 17:14:44.060,-5.272062055311139
2025-03-24 17:14:44.060,-7.044832092259277
2025-03-24 17:14:44.060,-2.0946237333515265
2025-03-24 17:14:44.060,2.465029472946459
2025-03-24 17:14:44.070,1.8235834834866933
2025-03-24 17:14:44.070,-1.2668114159812673
2025-03-24 17:14:44.070,-1.182490518387425
2025-03-24 17:14:44.070,2.7233401974918636
2025-03-24 17:14:44.070,5.253589233148848
2025-03-24 17:14:44.080,2.145784485939631
2025-03-24 17:14:44.080,-4.355147557366946
2025-03-24 17:14:44.080,-7.834021524185631
2025-03-24 17:14:44.080,-4.702656321159367
2025-03-24 17:14:44.080,2.348971965073849
2025-03-24 17:14:44.090,7.5516824254557005
2025-03-24 17:14:44.090,7.369107148694131
2025-03-24 17:14:44.090,2.4056349420853227
2025-03-24 17:14:44.090,-4.2797479995018595
2025-03-24 17:14:44.090,-8.9877086238608
2025-03-24 17:14:44.099,-8.192926721531736
2025-03-24 17:14:44.100,-0.6103466781934329
2025-03-24 17:14:44.100,9.508017176566417
2025-03-24 17:14:44.100,13.146159395928656
2025-03-24 17:14:44.100,4.747870760708461
2025-03-24 17:14:44.108,-9.481309483535746
2025-03-24 17:14:44.108,-15.401587958292689
2025-03-24 17:14:44.108,-6.146235916633905
2025-03-24 17:14:44.108,8.839575743844009
2025-03-24 17:14:44.118,13.814110912198867
2025-03-24 17:14:44.118,4.755693257378067
2025-03-24 17:14:44.118,-6.920873635377582
2025-03-24 17:14:44.118,-9.018619989487359
2025-03-24 17:14:44.118,-2.251316179241373
2025-03-24 17:14:44.128,3.489082565026798
2025-03-24 17:14:44.128,2.9754578310186064
2025-03-24 17:14:44.128,0.49378638065774605
2025-03-24 17:14:44.128,1.0679468624708315
2025-03-24 17:14:44.128,2.4155430571804675
2025-03-24 17:14:44.137,-0.5199515251062836
2025-03-24 17:14:44.138,-5.888791675697648
2025-03-24 17:14:44.138,-5.738551237186239
2025-03-24 17:14:44.138,2.2911806895108224
2025-03-24 17:14:44.138,9.341783249493883
2025-03-24 17:14:44.147,5.9034002639268754
2025-03-24 17:14:44.148,-4.732286448055184
2025-03-24 17:14:44.148,-9.593874490937036
2025-03-24 17:14:44.148,-2.862738070767019
2025-03-24 17:14:44.148,6.364118869370053
2025-03-24 17:14:44.157,6.317774717248221
2025-03-24 17:14:44.157,-1.8594306833649341
2025-03-24 17:14:44.158,-6.341304285757699
2025-03-24 17:14:44.158,-1.1281175404120674
2025-03-24 17:14:44.158,6.003533757185917
2025-03-24 17:14:44.166,4.674014540008028
2025-03-24 17:14:44.166,-3.6216876038057895
2025-03-24 17:14:44.166,-7.692292472767348
2025-03-24 17:14:44.167,-2.0456202203851612
2025-03-24 17:14:44.167,5.9818940352536325
2025-03-24 17:14:44.176,6.555710642362982
2025-03-24 17:14:44.176,-0.008675395092425542
2025-03-24 17:14:44.176,-5.185515734324802
2025-03-24 17:14:44.176,-4.133638360334179
2025-03-24 17:14:44.177,-0.3017166199196751
2025-03-24 17:14:44.187,1.6844941594223863
2025-03-24 17:14:44.188,2.295916876086533
2025-03-24 17:14:44.188,3.568791413299491
2025-03-24 17:14:44.188,3.362468582085568
2025-03-24 17:14:44.188,-1.6517636262602107
2025-03-24 17:14:44.196,-8.260601295976702
2025-03-24 17:14:44.196,-7.915723302089977
2025-03-24 17:14:44.196,1.7720224666775926
2025-03-24 17:14:44.196,11.20241764654893
2025-03-24 17:14:44.197,9.306741021218075
2025-03-24 17:14:44.206,-2.069993875003471
2025-03-24 17:14:44.206,-9.883606764388905
2025-03-24 17:14:44.206,-6.292473906575954
2025-03-24 17:14:44.206,2.241898507312936
2025-03-24 17:14:44.216,4.876598063125734
2025-03-24 17:14:44.216,0.6353246486775663
2025-03-24 17:14:44.216,-2.307362538028829
2025-03-24 17:14:44.216,0.6658647732968744
2025-03-24 17:14:44.216,4.600286979150093
2025-03-24 17:14:44.225,2.758572944554479
2025-03-24 17:14:44.226,-3.9046918108183735
2025-03-24 17:14:44.226,-7.927180790140989
2025-03-24 17:14:44.226,-4.330595709840367
2025-03-24 17:14:44.226,3.921717077805615
2025-03-24 17:14:44.235,9.22296031814579
2025-03-24 17:14:44.236,6.781722485875335
2025-03-24 17:14:44.236,-1.2294630488248162
2025-03-24 17:14:44.236,-8.041110311083292
2025-03-24 17:14:44.236,-8.356563946182956
2025-03-24 17:14:44.245,-2.53024622970377
2025-03-24 17:14:44.246,4.4178608746329555
2025-03-24 17:14:44.246,7.365305490777388
2025-03-24 17:14:44.246,4.938689608685811
2025-03-24 17:14:44.246,-0.21460933059729337
2025-03-24 17:14:44.255,-4.169178029715956
2025-03-24 17:14:44.256,-4.702926316813875
2025-03-24 17:14:44.256,-2.267658476369599
2025-03-24 17:14:44.256,1.0445803048942162
2025-03-24 17:14:44.256,3.0445224236079658
2025-03-24 17:14:44.265,2.542515715836261
2025-03-24 17:14:44.266,0.040429510612366076
2025-03-24 17:14:44.266,-2.2751710851344873
2025-03-24 17:14:44.266,-2.0446814777872695
2025-03-24 17:14:44.266,0.8220667623498754
2025-03-24 17:14:44.274,3.3825012938546912
2025-03-24 17:14:44.274,2.3571989707341228
2025-03-24 17:14:44.274,-1.9642768164150164
2025-03-24 17:14:44.274,-5.301550972101604
2025-03-24 17:14:44.275,-3.745473721497718
2025-03-24 17:14:44.285,1.7792784014723575
2025-03-24 17:14:44.286,6.223282014870826
2025-03-24 17:14:44.286,5.4500208627938225
2025-03-24 17:14:44.286,0.03335437697592114
2025-03-24 17:14:44.286,-5.537457162770556
2025-03-24 17:14:44.295,-6.719829537471687
2025-03-24 17:14:44.296,-2.480479693959622
2025-03-24 17:14:44.296,3.8753317798549665
2025-03-24 17:14:44.296,7.239949242827289
2025-03-24 17:14:44.296,4.7900446282162825
2025-03-24 17:14:44.304,-1.6933940261191076
2025-03-24 17:14:44.304,-7.115936211765389
2025-03-24 17:14:44.304,-6.918543129964132
2025-03-24 17:14:44.304,-0.8299795855211654
2025-03-24 17:14:44.314,6.330340717739075
2025-03-24 17:14:44.314,8.318491486371144
2025-03-24 17:14:44.314,3.2178647860260727
2025-03-24 17:14:44.314,-4.433505690716019
2025-03-24 17:14:44.314,-7.957378276215921
2025-03-24 17:14:44.324,-4.886721181236765
2025-03-24 17:14:44.324,1.3777532140866051
2025-03-24 17:14:44.324,5.605907051154037
2025-03-24 17:14:44.324,5.3838319470288125
2025-03-24 17:14:44.324,1.9603381201729422
2025-03-24 17:14:44.333,-2.0341464266468976
2025-03-24 17:14:44.334,-4.586413811640016
2025-03-24 17:14:44.334,-4.530843773274877
2025-03-24 17:14:44.334,-1.531083177649892
2025-03-24 17:14:44.334,2.9692916651551595
2025-03-24 17:14:44.344,5.594107568247398
2025-03-24 17:14:44.344,3.733602928562581
2025-03-24 17:14:44.344,-1.1793124656490406
2025-03-24 17:14:44.344,-4.581799484414039
2025-03-24 17:14:44.344,-3.7474665114750505
2025-03-24 17:14:44.354,-0.5568543486257742
2025-03-24 17:14:44.354,1.5746183883015776
2025-03-24 17:14:44.354,1.9712940860593424
2025-03-24 17:14:44.354,2.1670673036155965
2025-03-24 17:14:44.354,2.2351063232003456
2025-03-24 17:14:44.363,0.36108230084059995
2025-03-24 17:14:44.364,-3.383173951904883
2025-03-24 17:14:44.364,-5.243911136696858
2025-03-24 17:14:44.364,-1.9723200943240515
2025-03-24 17:14:44.364,3.9797945561179353
2025-03-24 17:14:44.373,6.1665837193953035
2025-03-24 17:14:44.374,1.9696341785970615
2025-03-24 17:14:44.374,-3.6248335207583167
2025-03-24 17:14:44.374,-4.2485543496269536
2025-03-24 17:14:44.374,-0.4301141221710345
2025-03-24 17:14:44.383,1.7644647969367349
2025-03-24 17:14:44.384,-0.1313906477790977
2025-03-24 17:14:44.384,-1.6148651782609884
2025-03-24 17:14:44.384,1.269544286609688
2025-03-24 17:14:44.384,5.0055111045542
2025-03-24 17:14:44.393,3.2031440575650647
2025-03-24 17:14:44.394,-3.655365682634307
2025-03-24 17:14:44.394,-7.750198516641466
2025-03-24 17:14:44.394,-3.9136013503269407
2025-03-24 17:14:44.394,3.664400711936921
2025-03-24 17:14:44.402,6.917322908242608
2025-03-24 17:14:44.402,3.621059137424448
2025-03-24 17:14:44.402,-1.3746755458550788
2025-03-24 17:14:44.402,-3.388484872896661
2025-03-24 17:14:44.403,-2.677606770558961
2025-03-24 17:14:44.412,-1.4728013825731694
2025-03-24 17:14:44.412,0.030920816623007122
2025-03-24 17:14:44.412,2.160892505938246
2025-03-24 17:14:44.413,2.8022608136946405
2025-03-24 17:14:44.413,-0.0028533500866980838
2025-03-24 17:14:44.422,-3.218405402324001
2025-03-24 17:14:44.422,-1.4091731130487466
2025-03-24 17:14:44.422,4.4135913735114265
2025-03-24 17:14:44.423,5.593204074420571
2025-03-24 17:14:44.423,-2.399408162219273
2025-03-24 17:14:44.432,-10.908058881673334
2025-03-24 17:14:44.432,-7.492781167127108
2025-03-24 17:14:44.432,6.531818113259506
2025-03-24 17:14:44.432,15.320268782290075
2025-03-24 17:14:44.441,7.775709736380569
2025-03-24 17:14:44.442,-8.179329297150245
2025-03-24 17:14:44.442,-15.215780975466135
2025-03-24 17:14:44.442,-7.03896866743992
2025-03-24 17:14:44.442,6.144849900204433
2025-03-24 17:14:44.450,11.331137307288461
2025-03-24 17:14:44.450,6.282127655603975
2025-03-24 17:14:44.450,-1.787416247440073
2025-03-24 17:14:44.450,-6.196252365883836
2025-03-24 17:14:44.451,-5.780898498416407
2025-03-24 17:14:44.461,-2.3811065947654257
2025-03-24 17:14:44.462,2.0112991061262546
2025-03-24 17:14:44.462,5.075155258555533
2025-03-24 17:14:44.462,4.483136173487387
2025-03-24 17:14:44.462,0.42764445568980447
2025-03-24 17:14:44.470,-3.5456139940048206
2025-03-24 17:14:44.470,-3.9329044113300884
2025-03-24 17:14:44.470,-1.057945928109565
2025-03-24 17:14:44.470,1.572619810841077
2025-03-24 17:14:44.480,1.3803205751909609
2025-03-24 17:14:44.480,-0.5540955858757427
2025-03-24 17:14:44.480,-0.8808047335560413
2025-03-24 17:14:44.480,1.8465344108299442
2025-03-24 17:14:44.481,4.480504483840931
2025-03-24 17:14:44.481,2.291029019863933
2025-03-24 17:14:44.490,-4.284720619933052
2025-03-24 17:14:44.490,-8.276574957429226
2025-03-24 17:14:44.490,-4.287506361186632
2025-03-24 17:14:44.490,4.053832546223202
2025-03-24 17:14:44.500,8.346204036801018
2025-03-24 17:14:44.500,5.554443953778028
2025-03-24 17:14:44.500,-0.15528499546721225
2025-03-24 17:14:44.500,-4.372392145718818
2025-03-24 17:14:44.501,-6.253260823970889
2025-03-24 17:14:44.510,-5.480656505988354
2025-03-24 17:14:44.510,-0.7991616686266569
2025-03-24 17:14:44.510,6.177926494847567
2025-03-24 17:14:44.510,9.481012398667088
2025-03-24 17:14:44.510,4.720293072644067
2025-03-24 17:14:44.519,-4.6095627679359685
2025-03-24 17:14:44.520,-9.776960244617143
2025-03-24 17:14:44.520,-6.216342000757309
2025-03-24 17:14:44.520,1.701983724988964
2025-03-24 17:14:44.520,6.244751102967623
2025-03-24 17:14:44.530,4.903911343996519
2025-03-24 17:14:44.530,1.4468448232357218
2025-03-24 17:14:44.530,-0.5036744291891891
2025-03-24 17:14:44.530,-1.6118981985942875
2025-03-24 17:14:44.530,-3.551937140864568
2025-03-24 17:14:44.539,-4.679343724846979
2025-03-24 17:14:44.540,-2.018996335675858
2025-03-24 17:14:44.540,3.5366773000884244
2025-03-24 17:14:44.540,7.093250799670371
2025-03-24 17:14:44.540,5.157200360824259
2025-03-24 17:14:44.548,-0.78453418141585
2025-03-24 17:14:44.548,-6.300055524309523
2025-03-24 17:14:44.548,-7.857517001254912
2025-03-24 17:14:44.549,-4.430798757378446
2025-03-24 17:14:44.558,2.559080371827898
2025-03-24 17:14:44.558,9.340411730522758
2025-03-24 17:14:44.558,10.785051425270177
2025-03-24 17:14:44.558,3.768254058427683
2025-03-24 17:14:44.558,-8.501681501502269
2025-03-24 17:14:44.567,-16.1208782972753
2025-03-24 17:14:44.567,-10.148432263227841
2025-03-24 17:14:44.568,6.479152054743188
2025-03-24 17:14:44.568,18.23367880887523
2025-03-24 17:14:44.568,12.246065388424906
2025-03-24 17:14:44.576,-5.922421239067552
2025-03-24 17:14:44.576,-16.86739038017824
2025-03-24 17:14:44.576,-9.1266788748975
2025-03-24 17:14:44.576,7.89334009395156
2025-03-24 17:14:44.584,15.074564328179994
2025-03-24 17:14:44.584,4.740986771769334
2025-03-24 17:14:44.584,-11.709127105576632
2025-03-24 17:14:44.584,-16.091970107916165
2025-03-24 17:14:44.594,-2.3981514278048572
2025-03-24 17:14:44.594,15.942435700747666
2025-03-24 17:14:44.594,18.876991229154292
2025-03-24 17:14:44.594,1.665188607420078
2025-03-24 17:14:44.594,-18.073622232353173
2025-03-24 17:14:44.602,-19.150929861159895
2025-03-24 17:14:44.602,-1.1818732923280189
2025-03-24 17:14:44.602,15.458974256906957
2025-03-24 17:14:44.603,14.322614562231609
2025-03-24 17:14:44.603,0.7830930296413341
2025-03-24 17:14:44.612,-8.118480658729274
2025-03-24 17:14:44.612,-5.7028143109849125
2025-03-24 17:14:44.612,-0.4451003621894284
2025-03-24 17:14:44.612,-0.7555860262977218
2025-03-24 17:14:44.622,-3.298360035714401
2025-03-24 17:14:44.622,-0.1415071913184775
2025-03-24 17:14:44.622,7.537345732605753
2025-03-24 17:14:44.622,9.563739201128906
2025-03-24 17:14:44.622,0.7539122759133585
2025-03-24 17:14:44.632,-10.588328731489156
2025-03-24 17:14:44.632,-11.683621664297336
2025-03-24 17:14:44.632,-0.6848647914279543
2025-03-24 17:14:44.632,10.732366626812112
2025-03-24 17:14:44.632,10.539480794879104
2025-03-24 17:14:44.642,-0.47902375748779313
2025-03-24 17:14:44.642,-10.156893018652104
2025-03-24 17:14:44.642,-8.411777247077259
2025-03-24 17:14:44.642,2.269002389046408
2025-03-24 17:14:44.642,10.074034217050936
2025-03-24 17:14:44.651,6.829859538160412
2025-03-24 17:14:44.652,-3.404581420006828
2025-03-24 17:14:44.652,-9.376630855176264
2025-03-24 17:14:44.652,-5.392035004740801
2025-03-24 17:14:44.652,2.97702306174828
2025-03-24 17:14:44.662,6.433911780097099
2025-03-24 17:14:44.662,2.8777237719904654
2025-03-24 17:14:44.662,-1.6032164993479596
2025-03-24 17:14:44.662,-1.6489241729446145
2025-03-24 17:14:44.662,0.8514345751954411
2025-03-24 17:14:44.671,0.6149155690294131
2025-03-24 17:14:44.672,-2.9056090632519833
2025-03-24 17:14:44.672,-4.398131140333924
2025-03-24 17:14:44.672,-0.1803479131452307
2025-03-24 17:14:44.672,5.7741483776242815
2025-03-24 17:14:44.681,5.996461414149285
2025-03-24 17:14:44.682,-0.7347676524038416
2025-03-24 17:14:44.682,-6.946070883801601
2025-03-24 17:14:44.682,-5.286772748789036
2025-03-24 17:14:44.682,2.475749762337531
2025-03-24 17:14:44.690,7.6109370751814875
2025-03-24 17:14:44.690,4.382269413531829
2025-03-24 17:14:44.690,-4.1648936766400775
2025-03-24 17:14:44.691,-9.572942350840208
2025-03-24 17:14:44.691,-5.812021886270185
2025-03-24 17:14:44.700,4.909591460786384
2025-03-24 17:14:44.700,12.850412336728997
2025-03-24 17:14:44.700,9.154998049249865
2025-03-24 17:14:44.700,-4.284613679845297
2025-03-24 17:14:44.710,-14.8307484144736
2025-03-24 17:14:44.710,-11.58652165386469
2025-03-24 17:14:44.710,2.5373461676068874
2025-03-24 17:14:44.710,13.513298564467426
2025-03-24 17:14:44.710,11.125580759044592
2025-03-24 17:14:44.720,-0.7701406095070206
2025-03-24 17:14:44.720,-9.640619981738524
2025-03-24 17:14:44.720,-8.036785484559058
2025-03-24 17:14:44.720,-0.0035486933225575834
2025-03-24 17:14:44.720,5.420898884312021
2025-03-24 17:14:44.729,4.232895108750574
2025-03-24 17:14:44.730,-0.22238921958830876
2025-03-24 17:14:44.730,-2.8156031108498523
2025-03-24 17:14:44.730,-1.8886318535147206
2025-03-24 17:14:44.730,0.6938370836785547
2025-03-24 17:14:44.738,2.340627903507389
2025-03-24 17:14:44.738,1.7145870265049472
2025-03-24 17:14:44.738,-0.6948877595034305
2025-03-24 17:14:44.738,-2.88352804425723
2025-03-24 17:14:44.739,-2.731637682263573
2025-03-24 17:14:44.750,0.04782371516618618
2025-03-24 17:14:44.750,3.219650659682632
2025-03-24 17:14:44.750,3.7045183107824293
2025-03-24 17:14:44.750,0.6225326233833669
2025-03-24 17:14:44.750,-3.135029431138669
2025-03-24 17:14:44.758,-3.4214228122400536
2025-03-24 17:14:44.758,0.13652409629900805
2025-03-24 17:14:44.758,2.895026678680845
2025-03-24 17:14:44.758,0.8831091844925081
2025-03-24 17:14:44.759,-3.3089710087556643
2025-03-24 17:14:44.768,-3.254487313128317
2025-03-24 17:14:44.768,2.60707307721981
2025-03-24 17:14:44.768,7.958741112775987
2025-03-24 17:14:44.768,5.667228150462297
2025-03-24 17:14:44.769,-3.735418287406849
2025-03-24 17:14:44.778,-11.829539244123486
2025-03-24 17:14:44.778,-10.231604703729564
2025-03-24 17:14:44.778,1.0321928358616965
2025-03-24 17:14:44.779,12.545042167350575
2025-03-24 17:14:44.786,13.907581764419007
2025-03-24 17:14:44.786,4.046167522522911
2025-03-24 17:14:44.787,-8.055930976397642
2025-03-24 17:14:44.787,-13.202222482377799
2025-03-24 17:14:44.787,-9.809273102308977
2025-03-24 17:14:44.796,-1.3610274789218182
2025-03-24 17:14:44.796,8.598328135937649
2025-03-24 17:14:44.796,15.131395602331823
2025-03-24 17:14:44.796,11.095400171976346
2025-03-24 17:14:44.805,-4.379763191601474
2025-03-24 17:14:44.806,-18.544858514943364
2025-03-24 17:14:44.806,-15.444612151508956
2025-03-24 17:14:44.806,3.8593928707450202
2025-03-24 17:14:44.806,19.019364523913108
2025-03-24 17:14:44.814,13.409268208262555
2025-03-24 17:14:44.814,-5.7504513999910625
2025-03-24 17:14:44.814,-16.645032167747786
2025-03-24 17:14:44.814,-9.183162705442175
2025-03-24 17:14:44.823,5.573420689901633
2025-03-24 17:14:44.824,11.969215375621928
2025-03-24 17:14:44.824,7.326884059951962
2025-03-24 17:14:44.824,-0.5436645337838666
2025-03-24 17:14:44.824,-6.0784401849608205
2025-03-24 17:14:44.832,-8.846871731552673
2025-03-24 17:14:44.832,-7.4001009351631835
2025-03-24 17:14:44.832,0.6690603479955081
2025-03-24 17:14:44.833,11.295767684839408
2025-03-24 17:14:44.841,13.93619400360695
2025-03-24 17:14:44.842,3.462314246759152
2025-03-24 17:14:44.842,-11.530953700297944
2025-03-24 17:14:44.842,-16.684961723012787
2025-03-24 17:14:44.842,-7.094005587583588
2025-03-24 17:14:44.850,8.14995145903656
2025-03-24 17:14:44.850,15.798885963244782
2025-03-24 17:14:44.850,10.542226984043564
2025-03-24 17:14:44.851,-2.02385269808103
2025-03-24 17:14:44.851,-11.701161221750436
2025-03-24 17:14:44.860,-12.110770327763245
2025-03-24 17:14:44.860,-4.581398197077659
2025-03-24 17:14:44.860,4.5939408780001
2025-03-24 17:14:44.861,10.048701423260978
2025-03-24 17:14:44.870,10.115411305725427
2025-03-24 17:14:44.870,4.805223906769701
2025-03-24 17:14:44.870,-5.237297790978087
2025-03-24 17:14:44.870,-15.187762145858013
2025-03-24 17:14:44.870,-15.21634588823218
2025-03-24 17:14:44.878,-0.07143085223675805
2025-03-24 17:14:44.878,19.939677942271484
2025-03-24 17:14:44.878,24.61400330452388
2025-03-24 17:14:44.879,5.497143709311425
2025-03-24 17:14:44.887,-21.376610803526386
2025-03-24 17:14:44.888,-29.92411128947752
2025-03-24 17:14:44.888,-11.357760889601902
2025-03-24 17:14:44.888,16.43156816714985
2025-03-24 17:14:44.888,27.778098388200675
2025-03-24 17:14:44.896,14.990093835548517
2025-03-24 17:14:44.896,-6.523137014827717
2025-03-24 17:14:44.896,-16.973546185207173
2025-03-24 17:14:44.896,-12.14337495442381
2025-03-24 17:14:44.906,-2.9502287706889265
2025-03-24 17:14:44.906,1.2972045202381022
2025-03-24 17:14:44.906,2.8568852043173623
2025-03-24 17:14:44.906,7.240029093357589
2025-03-24 17:14:44.906,11.344469427921245
2025-03-24 17:14:44.916,6.8106544515865615
2025-03-24 17:14:44.916,-6.112149647988543
2025-03-24 17:14:44.916,-15.288698979034054
2025-03-24 17:14:44.916,-10.510113734315949
2025-03-24 17:14:44.916,3.432021899325382
2025-03-24 17:14:44.926,11.921180042418868
2025-03-24 17:14:44.926,7.485629385071206
2025-03-24 17:14:44.926,-2.6594016887610232
2025-03-24 17:14:44.926,-6.662985277126804
2025-03-24 17:14:44.926,-1.9062263418569816
2025-03-24 17:14:44.934,3.7879060142391974
2025-03-24 17:14:44.934,3.0666214475610665
2025-03-24 17:14:44.934,-2.1869995718334723
2025-03-24 17:14:44.935,-4.262098563517122
2025-03-24 17:14:44.935,-0.27475283441802395
2025-03-24 17:14:44.944,3.6697224893317397
2025-03-24 17:14:44.944,1.0257743229047604
2025-03-24 17:14:44.944,-4.7151146836180144
2025-03-24 17:14:44.944,-3.422555853015472
2025-03-24 17:14:44.953,6.4937297920893755
2025-03-24 17:14:44.954,12.389229175546479
2025-03-24 17:14:44.954,2.7583633501293305
2025-03-24 17:14:44.954,-14.775772464541015
2025-03-24 17:14:44.954,-19.24416225315798
2025-03-24 17:14:44.962,-2.1838676685513163
2025-03-24 17:14:44.962,19.309483931480546
2025-03-24 17:14:44.962,21.305950074297318
2025-03-24 17:14:44.963,1.4462815305440588
2025-03-24 17:14:44.971,-18.40351844936651
2025-03-24 17:14:44.972,-17.9843307412079
2025-03-24 17:14:44.972,-0.6357329785626735
2025-03-24 17:14:44.972,13.563132413784649
2025-03-24 17:14:44.972,11.863408921612978
2025-03-24 17:14:44.981,0.41825188158716575
2025-03-24 17:14:44.982,-7.106995629736932
2025-03-24 17:14:44.982,-6.056047232163135
2025-03-24 17:14:44.982,-2.0731659513263123
2025-03-24 17:14:44.982,0.276806015303825
2025-03-24 17:14:44.990,2.824944878713998
2025-03-24 17:14:44.990,6.468576830822788
2025-03-24 17:14:44.991,5.782611071421395
2025-03-24 17:14:44.991,-2.962550873315642
2025-03-24 17:14:44.991,-12.181323871823798
2025-03-24 17:14:45.000,-9.464228697508174
2025-03-24 17:14:45.000,5.429659546590208
2025-03-24 17:14:45.000,16.79299156125081
2025-03-24 17:14:45.000,10.484108209117453
2025-03-24 17:14:45.010,-8.105149877609767
2025-03-24 17:14:45.010,-18.92921670164542
2025-03-24 17:14:45.010,-10.157200453320186
2025-03-24 17:14:45.010,8.488079193861118
2025-03-24 17:14:45.010,17.565063024085717
2025-03-24 17:14:45.018,9.608902722772166
2025-03-24 17:14:45.018,-5.0507421222669375
2025-03-24 17:14:45.018,-12.368854178831247
2025-03-24 17:14:45.018,-8.964476983543005
2025-03-24 17:14:45.028,-1.1174682617709224
2025-03-24 17:14:45.028,5.2887157236709115
2025-03-24 17:14:45.028,8.63451853529531
2025-03-24 17:14:45.028,7.496989850907873
2025-03-24 17:14:45.029,-0.01457912484009491
2025-03-24 17:14:45.037,-10.025043670913501
2025-03-24 17:14:45.038,-11.980621767910966
2025-03-24 17:14:45.038,-0.6792739453474773
2025-03-24 17:14:45.038,13.264922113103355
2025-03-24 17:14:45.038,13.118490389880142
2025-03-24 17:14:45.046,-2.546998201725433
2025-03-24 17:14:45.046,-15.736850737745346
2025-03-24 17:14:45.046,-10.723787513751297
2025-03-24 17:14:45.046,6.017373040295866
2025-03-24 17:14:45.055,14.40475255864173
2025-03-24 17:14:45.056,6.241383727327579
2025-03-24 17:14:45.056,-6.268538076759785
2025-03-24 17:14:45.056,-8.476936467181922
2025-03-24 17:14:45.056,-1.6107389569593844
2025-03-24 17:14:45.066,2.4878428762421665
2025-03-24 17:14:45.066,-0.20380638013579777
2025-03-24 17:14:45.066,-1.7016333826744823
2025-03-24 17:14:45.066,3.448291895384321
2025-03-24 17:14:45.066,8.271804127915873
2025-03-24 17:14:45.075,3.418472633850447
2025-03-24 17:14:45.076,-8.044959531633657
2025-03-24 17:14:45.076,-13.103428476928075
2025-03-24 17:14:45.076,-5.066042767508286
2025-03-24 17:14:45.076,8.360026499669882
2025-03-24 17:14:45.084,14.217685408086698
2025-03-24 17:14:45.084,7.777032714549187
2025-03-24 17:14:45.084,-4.367309077343628
2025-03-24 17:14:45.085,-11.92637073733009
2025-03-24 17:14:45.094,-9.852329045977765
2025-03-24 17:14:45.094,-1.1490723258806004
2025-03-24 17:14:45.094,6.9486712387465595
2025-03-24 17:14:45.094,8.988683311775446
2025-03-24 17:14:45.095,4.702396389695729
2025-03-24 17:14:45.095,-1.800163836074303
2025-03-24 17:14:45.104,-5.549740002269778
2025-03-24 17:14:45.104,-4.475524636671959
2025-03-24 17:14:45.104,-0.7433873043173032
2025-03-24 17:14:45.104,1.8627537896349187
2025-03-24 17:14:45.114,1.9838733796008798
2025-03-24 17:14:45.114,1.121212279347993
2025-03-24 17:14:45.114,0.31234320013688865
2025-03-24 17:14:45.114,-1.0617788908409913
2025-03-24 17:14:45.114,-2.3151926284865856
2025-03-24 17:14:45.124,-0.697766163708189
2025-03-24 17:14:45.124,3.744485341460183
2025-03-24 17:14:45.124,5.526302972932218
2025-03-24 17:14:45.124,0.22536396650997695
2025-03-24 17:14:45.124,-7.806693052247005
2025-03-24 17:14:45.132,-9.073963432438005
2025-03-24 17:14:45.132,-0.6746454546226193
2025-03-24 17:14:45.132,9.55847512237818
2025-03-24 17:14:45.133,11.725296280671666
2025-03-24 17:14:45.133,3.731063025674075
2025-03-24 17:14:45.142,-7.9592616031441095
2025-03-24 17:14:45.142,-14.141668884162087
2025-03-24 17:14:45.142,-9.059539278927259
2025-03-24 17:14:45.142,4.844599686195146
2025-03-24 17:14:45.150,16.356397252245724
2025-03-24 17:14:45.150,13.777576101217743
2025-03-24 17:14:45.150,-2.3281515044451044
2025-03-24 17:14:45.151,-16.82533963006018
2025-03-24 17:14:45.160,-14.779389665517684
2025-03-24 17:14:45.160,1.5993870517360147
2025-03-24 17:14:45.160,14.61005555825223
2025-03-24 17:14:45.160,10.965913901600398
2025-03-24 17:14:45.160,-3.2611624476818277
2025-03-24 17:14:45.170,-10.707418827034225
2025-03-24 17:14:45.170,-3.824277786889182
2025-03-24 17:14:45.170,6.937071680101656
2025-03-24 17:14:45.170,7.295223999261011
2025-03-24 17:14:45.170,-2.952764372309613
2025-03-24 17:14:45.178,-10.562170017090372
2025-03-24 17:14:45.178,-5.883713767050737
2025-03-24 17:14:45.178,5.732919064257261
2025-03-24 17:14:45.178,11.268638665462928
2025-03-24 17:14:45.179,5.52757129891033
2025-03-24 17:14:45.188,-4.018725761587641
2025-03-24 17:14:45.188,-7.336108193394216
2025-03-24 17:14:45.188,-3.502036539702335
2025-03-24 17:14:45.188,0.12364449314419829
2025-03-24 17:14:45.198,-0.776792307534867
2025-03-24 17:14:45.198,-1.390301752619633
2025-03-24 17:14:45.198,3.9540713163213037
2025-03-24 17:14:45.198,10.57956613859503
2025-03-24 17:14:45.198,7.255224818101799
2025-03-24 17:14:45.206,-7.362917411479303
2025-03-24 17:14:45.206,-18.587306679730187
2025-03-24 17:14:45.206,-11.674701178934654
2025-03-24 17:14:45.207,8.874551695382946
2025-03-24 17:14:45.215,22.31081243785957
2025-03-24 17:14:45.216,14.41839701543585
2025-03-24 17:14:45.216,-7.143723560112307
2025-03-24 17:14:45.216,-21.6350647119609
2025-03-24 17:14:45.216,-16.298564605286565
2025-03-24 17:14:45.224,2.7045171922417977
2025-03-24 17:14:45.224,17.825254136249903
2025-03-24 17:14:45.225,16.607159966733768
2025-03-24 17:14:45.225,1.9839211566344872
2025-03-24 17:14:45.234,-11.899275746451082
2025-03-24 17:14:45.234,-13.734510103842378
2025-03-24 17:14:45.234,-4.906938071550909
2025-03-24 17:14:45.234,4.588433814125811
2025-03-24 17:14:45.235,7.948422645416878
2025-03-24 17:14:45.243,6.3067858291082874
2025-03-24 17:14:45.244,2.869032397063892
2025-03-24 17:14:45.244,-2.027081667913593
2025-03-24 17:14:45.244,-7.423151147108183
2025-03-24 17:14:45.244,-8.321726581969749
2025-03-24 17:14:45.254,-1.372319389565295
2025-03-24 17:14:45.254,7.977099478969684
2025-03-24 17:14:45.254,9.872686508588554
2025-03-24 17:14:45.254,2.1037701167166647
2025-03-24 17:14:45.254,-6.839616380177095
2025-03-24 17:14:45.264,-8.083083160791006
2025-03-24 17:14:45.264,-1.9199688224030675
2025-03-24 17:14:45.264,4.646644981750635
2025-03-24 17:14:45.264,6.236286126433924
2025-03-24 17:14:45.264,2.4570808660130807
2025-03-24 17:14:45.273,-3.701848244334554
2025-03-24 17:14:45.274,-7.308409554894431
2025-03-24 17:14:45.274,-3.902614810137592
2025-03-24 17:14:45.274,5.0790942674538195
2025-03-24 17:14:45.274,10.661655097933934
2025-03-24 17:14:45.282,5.160272691633853
2025-03-24 17:14:45.282,-7.070014937101174
2025-03-24 17:14:45.282,-12.699897229053194
2025-03-24 17:14:45.282,-5.163278945565256
2025-03-24 17:14:45.292,7.008993507504652
2025-03-24 17:14:45.292,10.810725506796041
2025-03-24 17:14:45.292,4.156062424444486
2025-03-24 17:14:45.292,-3.8897325050827507
2025-03-24 17:14:45.293,-5.931994931283523
2025-03-24 17:14:45.302,-3.4024164413417135
2025-03-24 17:14:45.302,-0.845905801561808
2025-03-24 17:14:45.302,0.9561977753980864
2025-03-24 17:14:45.302,3.2366083732220097
2025-03-24 17:14:45.302,4.574050544237888
2025-03-24 17:14:45.312,2.291301242487078
2025-03-24 17:14:45.312,-2.5646837398139817
2025-03-24 17:14:45.312,-5.3154796933089274
2025-03-24 17:14:45.312,-3.40579336881172
2025-03-24 17:14:45.312,0.5085631765280962
2025-03-24 17:14:45.322,2.6027777055742747
2025-03-24 17:14:45.322,2.74377549783717
2025-03-24 17:14:45.322,2.81242174576211
2025-03-24 17:14:45.322,2.030005593742387
2025-03-24 17:14:45.323,-1.786807967202394
2025-03-24 17:14:45.332,-6.3567300578323644
2025-03-24 17:14:45.332,-5.4203985364744405
2025-03-24 17:14:45.332,2.2728919204027944
2025-03-24 17:14:45.332,8.553313564193909
2025-03-24 17:14:45.332,5.103234710958541
2025-03-24 17:14:45.342,-4.684658394135248
2025-03-24 17:14:45.342,-8.612653941677884
2025-03-24 17:14:45.342,-1.2999657869032026
2025-03-24 17:14:45.342,8.084670749360253
2025-03-24 17:14:45.343,7.203188387518684
2025-03-24 17:14:45.352,-3.357300716567745
2025-03-24 17:14:45.352,-10.575973680681713
2025-03-24 17:14:45.352,-5.573150940439825
2025-03-24 17:14:45.352,5.522130844941357
2025-03-24 17:14:45.352,10.109632760121952
2025-03-24 17:14:45.361,4.669153372696444
2025-03-24 17:14:45.362,-3.10005027411965
2025-03-24 17:14:45.362,-5.972609801585999
2025-03-24 17:14:45.362,-4.836268033586569
2025-03-24 17:14:45.362,-3.2701190749723383
2025-03-24 17:14:45.371,-0.48546613181982823
2025-03-24 17:14:45.372,5.423887163511205
2025-03-24 17:14:45.372,10.370718983286968
2025-03-24 17:14:45.372,6.920420815650896
2025-03-24 17:14:45.372,-4.978259802221792
2025-03-24 17:14:45.380,-14.616737771214549
2025-03-24 17:14:45.380,-11.276013980557076
2025-03-24 17:14:45.380,2.9777314657415364
2025-03-24 17:14:45.381,14.289595332025296
2025-03-24 17:14:45.388,11.74708802086827
2025-03-24 17:14:45.388,-0.7614942935481012
2025-03-24 17:14:45.388,-9.640524993815786
2025-03-24 17:14:45.389,-7.560054335422304
2025-03-24 17:14:45.389,-0.45206395157416535
2025-03-24 17:14:45.400,2.4828229913079762
2025-03-24 17:14:45.400,0.8645344925609202
2025-03-24 17:14:45.400,0.850882608563204
2025-03-24 17:14:45.400,3.954691675848189
2025-03-24 17:14:45.400,4.625912542582046
2025-03-24 17:14:45.408,-0.5718288897521401
2025-03-24 17:14:45.408,-6.807313427603105
2025-03-24 17:14:45.408,-6.908066553294934
2025-03-24 17:14:45.409,-0.6595516641422271
2025-03-24 17:14:45.409,5.168614199593803
2025-03-24 17:14:45.420,5.479503006833701
2025-03-24 17:14:45.420,2.343564052037695
2025-03-24 17:14:45.420,0.4668889489798833
2025-03-24 17:14:45.420,-0.16935357558682748
2025-03-24 17:14:45.420,-3.2885825676613174
2025-03-24 17:14:45.428,-8.219292982340503
2025-03-24 17:14:45.428,-7.792123436254016
2025-03-24 17:14:45.428,2.2299199659205615
2025-03-24 17:14:45.429,14.410818405799327
2025-03-24 17:14:45.438,15.459498178516872
2025-03-24 17:14:45.438,1.5801421464116627
2025-03-24 17:14:45.438,-15.421307157606734
2025-03-24 17:14:45.438,-19.569346361376773
2025-03-24 17:14:45.438,-7.052291160293056
2025-03-24 17:14:45.446,10.429297482254466
2025-03-24 17:14:45.446,17.93599710827971
2025-03-24 17:14:45.446,11.157935281750666
2025-03-24 17:14:45.447,-1.9633718105756683
2025-03-24 17:14:45.456,-10.924046611827654
2025-03-24 17:14:45.456,-11.49808319638362
2025-03-24 17:14:45.456,-5.869944106908402
2025-03-24 17:14:45.456,2.014087373852227
2025-03-24 17:14:45.456,8.582130743122296
2025-03-24 17:14:45.466,10.09900308945262
2025-03-24 17:14:45.466,4.350465341955115
2025-03-24 17:14:45.466,-5.365008883654605
2025-03-24 17:14:45.466,-10.581271742270713
2025-03-24 17:14:45.466,-5.656851533481188
2025-03-24 17:14:45.476,4.600116677857338
2025-03-24 17:14:45.476,8.843745948832327
2025-03-24 17:14:45.476,2.443291296349888
2025-03-24 17:14:45.476,-6.246612618459853
2025-03-24 17:14:45.476,-6.113035680489206
2025-03-24 17:14:45.486,2.3724457118332616
2025-03-24 17:14:45.486,7.858252598978493
2025-03-24 17:14:45.486,3.1744493011195227
2025-03-24 17:14:45.486,-5.51186286732326
2025-03-24 17:14:45.486,-7.321847123281303
2025-03-24 17:14:45.494,-0.7164513738272084
2025-03-24 17:14:45.494,5.552953202840243
2025-03-24 17:14:45.494,4.410595227160112
2025-03-24 17:14:45.495,-1.1979631856510409
2025-03-24 17:14:45.495,-3.442377937831221
2025-03-24 17:14:45.504,-0.127788676089367
2025-03-24 17:14:45.504,3.0892448025138672
2025-03-24 17:14:45.504,0.8567699780139401
2025-03-24 17:14:45.505,-4.280894285736738
2025-03-24 17:14:45.514,-4.814976023712955
2025-03-24 17:14:45.514,1.5879285642674366
2025-03-24 17:14:45.514,7.734913178465248
2025-03-24 17:14:45.515,5.1126236051557905
2025-03-24 17:14:45.515,-4.543006491551168
2025-03-24 17:14:45.524,-9.656762239210611
2025-03-24 17:14:45.524,-2.8363499903292873
2025-03-24 17:14:45.524,8.441501167199927
2025-03-24 17:14:45.524,9.80533342391952
2025-03-24 17:14:45.524,-1.5523897912086508
2025-03-24 17:14:45.532,-11.917905657209102
2025-03-24 17:14:45.532,-7.870943653423579
2025-03-24 17:14:45.532,6.060309673257107
2025-03-24 17:14:45.533,12.654097695654011
2025-03-24 17:14:45.542,4.021226779394922
2025-03-24 17:14:45.542,-8.574741735273097
2025-03-24 17:14:45.542,-9.830199091669988
2025-03-24 17:14:45.542,0.23883770698615026
2025-03-24 17:14:45.543,7.982878400737748
2025-03-24 17:14:45.552,4.8050683508126815
2025-03-24 17:14:45.552,-2.9558358858944063
2025-03-24 17:14:45.552,-4.562808217813552
2025-03-24 17:14:45.552,0.4764875841518608
2025-03-24 17:14:45.553,3.4408955439368487
2025-03-24 17:14:45.562,-0.16752430646486496
2025-03-24 17:14:45.562,-4.475413992130683
2025-03-24 17:14:45.562,-2.3745975018119596
2025-03-24 17:14:45.562,3.9438766337708375
2025-03-24 17:14:45.562,6.071983335505172
2025-03-24 17:14:45.570,1.0299226845982685
2025-03-24 17:14:45.570,-5.106466463599509
2025-03-24 17:14:45.570,-5.4999546311476095
2025-03-24 17:14:45.571,-0.3958383339386929
2025-03-24 17:14:45.571,4.566544742750409
2025-03-24 17:14:45.580,4.756943883578776
2025-03-24 17:14:45.580,0.033037997682232034
2025-03-24 17:14:45.580,-5.399219564148134
2025-03-24 17:14:45.581,-5.622511808183167
2025-03-24 17:14:45.590,1.3087268685671107
2025-03-24 17:14:45.590,9.016543661312374
2025-03-24 17:14:45.590,7.865357952775881
2025-03-24 17:14:45.590,-3.1082763695755107
2025-03-24 17:14:45.590,-12.748868332949638
2025-03-24 17:14:45.599,-9.985243803231658
2025-03-24 17:14:45.600,2.7685645840322897
2025-03-24 17:14:45.600,12.514758695577958
2025-03-24 17:14:45.600,10.710728037108556
2025-03-24 17:14:45.600,1.1030141935106164
2025-03-24 17:14:45.608,-7.124560143103275
2025-03-24 17:14:45.608,-9.222098480418438
2025-03-24 17:14:45.608,-6.26838787459269
2025-03-24 17:14:45.608,-0.8142743576410529
2025-03-24 17:14:45.618,5.063839618798562
2025-03-24 17:14:45.618,8.661610765654915
2025-03-24 17:14:45.618,7.2182018701205966
2025-03-24 17:14:45.618,0.8269134283115269
2025-03-24 17:14:45.618,-6.4112780713555
2025-03-24 17:14:45.628,-9.219798317891401
2025-03-24 17:14:45.628,-5.52539390704039
2025-03-24 17:14:45.628,1.6268934097471996
