timestamp,bandpass_and_notch
2025-03-24 17:11:22.001,-0.06445013018681423
2025-03-24 17:11:22.001,3.4635854951805003
2025-03-24 17:11:22.001,4.179756066979533
2025-03-24 17:11:22.001,-4.636241826341504
2025-03-24 17:11:22.010,-19.76423478964126
2025-03-24 17:11:22.010,-20.35275164445753
2025-03-24 17:11:22.010,7.668763061927241
2025-03-24 17:11:22.011,42.51497870051552
2025-03-24 17:11:22.011,42.054976717909696
2025-03-24 17:11:22.018,-4.447978333200279
2025-03-24 17:11:22.019,-54.7874044214866
2025-03-24 17:11:22.019,-56.84645766698369
2025-03-24 17:11:22.019,-6.899332261372068
2025-03-24 17:11:22.027,46.6854339601997
2025-03-24 17:11:22.027,55.7790865799231
2025-03-24 17:11:22.027,18.574264825915193
2025-03-24 17:11:22.027,-26.299771688870518
2025-03-24 17:11:22.027,-41.46596343932492
2025-03-24 17:11:22.036,-22.095380243117816
2025-03-24 17:11:22.037,7.911336361955689
2025-03-24 17:11:22.037,22.948808064768258
2025-03-24 17:11:22.037,17.23315324246344
2025-03-24 17:11:22.046,3.1946519552070467
2025-03-24 17:11:22.046,-5.91203450921365
2025-03-24 17:11:22.046,-7.847984516717487
2025-03-24 17:11:22.047,-7.228702835311013
2025-03-24 17:11:22.047,-5.695385308263295
2025-03-24 17:11:22.056,-1.0035604302437455
2025-03-24 17:11:22.056,5.9139477350783585
2025-03-24 17:11:22.056,8.92658320878528
2025-03-24 17:11:22.057,4.421296702733436
2025-03-24 17:11:22.057,-2.546541453825395
2025-03-24 17:11:22.064,-4.189312220598436
2025-03-24 17:11:22.065,-0.6481018804918436
2025-03-24 17:11:22.065,0.4625860567338785
2025-03-24 17:11:22.065,-4.083234574876205
2025-03-24 17:11:22.065,-7.221076473305345
2025-03-24 17:11:22.074,-1.3779452135655772
2025-03-24 17:11:22.075,9.407248024995171
2025-03-24 17:11:22.075,12.844235421583296
2025-03-24 17:11:22.075,3.7383714042646212
2025-03-24 17:11:22.084,-8.912427111119975
2025-03-24 17:11:22.085,-12.321499377517833
2025-03-24 17:11:22.085,-4.3831871111981275
2025-03-24 17:11:22.085,5.273104234858115
2025-03-24 17:11:22.085,7.279799751741594
2025-03-24 17:11:22.094,2.1335099720395023
2025-03-24 17:11:22.094,-2.6644993501003142
2025-03-24 17:11:22.095,-2.160719772665707
2025-03-24 17:11:22.095,1.4598206906863367
2025-03-24 17:11:22.095,2.7991963818753627
2025-03-24 17:11:22.104,-0.17455654916559568
2025-03-24 17:11:22.105,-3.9647519723020213
2025-03-24 17:11:22.105,-3.72908555778863
2025-03-24 17:11:22.105,0.6164478643125655
2025-03-24 17:11:22.105,3.8076576913948004
2025-03-24 17:11:22.114,2.141528102977026
2025-03-24 17:11:22.114,-0.96693791102976
2025-03-24 17:11:22.115,-0.13354960956856188
2025-03-24 17:11:22.115,2.591616661334707
2025-03-24 17:11:22.115,0.07089147723648227
2025-03-24 17:11:22.124,-6.848807532705638
2025-03-24 17:11:22.124,-7.053995298072798
2025-03-24 17:11:22.125,4.254467149459942
2025-03-24 17:11:22.125,14.175585865684825
2025-03-24 17:11:22.125,7.39842669451195
2025-03-24 17:11:22.132,-10.61211655600897
2025-03-24 17:11:22.133,-17.64712863558086
2025-03-24 17:11:22.133,-3.6951947364448836
2025-03-24 17:11:22.133,14.776938367277648
2025-03-24 17:11:22.142,15.59647597175026
2025-03-24 17:11:22.142,-1.1263154271769713
2025-03-24 17:11:22.142,-14.408945910774316
2025-03-24 17:11:22.143,-9.507608218441153
2025-03-24 17:11:22.143,5.160964148030946
2025-03-24 17:11:22.150,10.8866851201045
2025-03-24 17:11:22.151,2.2921157756689556
2025-03-24 17:11:22.151,-8.095135985020764
2025-03-24 17:11:22.151,-7.388269427780503
2025-03-24 17:11:22.151,2.333959776891048
2025-03-24 17:11:22.160,9.231365954588254
2025-03-24 17:11:22.161,7.091814910889437
2025-03-24 17:11:22.161,-0.39657494841316365
2025-03-24 17:11:22.161,-7.719045324831244
2025-03-24 17:11:22.170,-11.762103692304114
2025-03-24 17:11:22.170,-8.49912302915321
2025-03-24 17:11:22.171,4.525245462566524
2025-03-24 17:11:22.171,18.86403391933957
2025-03-24 17:11:22.171,18.107641320503614
2025-03-24 17:11:22.178,-1.9174243448926385
2025-03-24 17:11:22.179,-22.355731873274205
2025-03-24 17:11:22.179,-20.681462462566618
2025-03-24 17:11:22.179,1.4497305885972003
2025-03-24 17:11:22.188,19.28960408127636
2025-03-24 17:11:22.188,14.839167751898197
2025-03-24 17:11:22.188,-3.045031718973391
2025-03-24 17:11:22.189,-12.480532573642904
2025-03-24 17:11:22.189,-5.737612560282655
2025-03-24 17:11:22.198,4.899326342969827
2025-03-24 17:11:22.198,6.018348175407464
2025-03-24 17:11:22.198,-0.8224380022744221
2025-03-24 17:11:22.198,-4.866273402723536
2025-03-24 17:11:22.199,-1.8348020094547204
2025-03-24 17:11:22.208,2.5524003545667484
2025-03-24 17:11:22.208,2.7739303593276388
2025-03-24 17:11:22.208,0.45183968303771244
2025-03-24 17:11:22.209,-0.5317681687075029
2025-03-24 17:11:22.209,-0.5182284511590748
2025-03-24 17:11:22.216,-1.7689771166357346
2025-03-24 17:11:22.217,-2.8738262528876413
2025-03-24 17:11:22.217,-0.45967527406278813
2025-03-24 17:11:22.217,4.24575010618264
2025-03-24 17:11:22.217,5.399771393529561
2025-03-24 17:11:22.226,0.520402732930195
2025-03-24 17:11:22.227,-5.193705091142321
2025-03-24 17:11:22.227,-5.250079033422222
2025-03-24 17:11:22.227,-0.3215394480570731
2025-03-24 17:11:22.236,3.1289068785130145
2025-03-24 17:11:22.237,1.8844424785182643
2025-03-24 17:11:22.237,-0.3190050099586032
2025-03-24 17:11:22.237,0.6987141128814691
2025-03-24 17:11:22.237,2.9393509608909034
2025-03-24 17:11:22.237,1.446841628839797
2025-03-24 17:11:22.246,-3.568935141299055
2025-03-24 17:11:22.247,-6.061355822122932
2025-03-24 17:11:22.247,-2.268445119220861
2025-03-24 17:11:22.247,3.9189691981975163
2025-03-24 17:11:22.256,5.804017669756131
2025-03-24 17:11:22.256,2.045360446867404
2025-03-24 17:11:22.257,-2.5592830839172414
2025-03-24 17:11:22.257,-3.5187501504679517
2025-03-24 17:11:22.257,-1.1897440259587704
2025-03-24 17:11:22.266,1.2824721358940598
2025-03-24 17:11:22.266,1.985355298294605
2025-03-24 17:11:22.267,0.9678689246717824
2025-03-24 17:11:22.267,-1.013908811075631
2025-03-24 17:11:22.267,-2.5523307134942095
2025-03-24 17:11:22.276,-1.7548459997306731
2025-03-24 17:11:22.276,1.4257176380221472
2025-03-24 17:11:22.277,3.832361085453816
2025-03-24 17:11:22.277,2.3923442054502617
2025-03-24 17:11:22.277,-1.5604782360176865
2025-03-24 17:11:22.286,-3.5619953478053206
2025-03-24 17:11:22.286,-1.7351655534597947
2025-03-24 17:11:22.287,1.053446917456004
2025-03-24 17:11:22.287,1.4443989735271754
2025-03-24 17:11:22.287,-0.11069080963910902
2025-03-24 17:11:22.296,-0.7278308422334705
2025-03-24 17:11:22.296,0.6369153567100349
2025-03-24 17:11:22.297,2.0916944537567193
2025-03-24 17:11:22.297,1.5054660374849325
2025-03-24 17:11:22.297,-1.0816419765406113
2025-03-24 17:11:22.306,-3.5106727243339453
2025-03-24 17:11:22.306,-3.096200785828312
2025-03-24 17:11:22.307,0.9361135493821531
2025-03-24 17:11:22.307,5.289765579421636
2025-03-24 17:11:22.307,4.375967493672629
2025-03-24 17:11:22.316,-2.925114479541213
2025-03-24 17:11:22.316,-9.114142335098965
2025-03-24 17:11:22.317,-5.013563047958579
2025-03-24 17:11:22.317,7.648232006396297
2025-03-24 17:11:22.317,14.813474577877821
2025-03-24 17:11:22.324,5.5983943289663305
2025-03-24 17:11:22.325,-12.502253686867983
2025-03-24 17:11:22.325,-19.503052308234594
2025-03-24 17:11:22.325,-5.863071090103931
2025-03-24 17:11:22.333,14.769639497801702
2025-03-24 17:11:22.333,20.05553201970196
2025-03-24 17:11:22.333,4.561746209060212
2025-03-24 17:11:22.333,-14.128247614487245
2025-03-24 17:11:22.333,-16.039703301326785
2025-03-24 17:11:22.342,-1.2691538923657562
2025-03-24 17:11:22.343,11.913983511892674
2025-03-24 17:11:22.343,9.525791987635106
2025-03-24 17:11:22.343,-2.797481709528062
2025-03-24 17:11:22.352,-8.926112232317838
2025-03-24 17:11:22.353,-2.7850095604937586
2025-03-24 17:11:22.353,5.57689322700266
2025-03-24 17:11:22.353,4.686996100126525
2025-03-24 17:11:22.353,-3.1249258857350264
2025-03-24 17:11:22.362,-5.8087665553381544
2025-03-24 17:11:22.363,1.2764527915954194
2025-03-24 17:11:22.363,8.456065427395886
2025-03-24 17:11:22.363,4.348522206904794
2025-03-24 17:11:22.363,-8.297938279743956
2025-03-24 17:11:22.372,-14.075125428591631
2025-03-24 17:11:22.372,-3.117110248722593
2025-03-24 17:11:22.372,15.03498968551782
2025-03-24 17:11:22.373,19.65929781956521
2025-03-24 17:11:22.373,2.5018988535792284
2025-03-24 17:11:22.380,-19.92127672709232
2025-03-24 17:11:22.381,-22.735287912364196
2025-03-24 17:11:22.381,-1.538631369946401
2025-03-24 17:11:22.381,21.05556005634324
2025-03-24 17:11:22.388,21.050774131951542
2025-03-24 17:11:22.389,0.3864212170985504
2025-03-24 17:11:22.389,-17.203068808183076
2025-03-24 17:11:22.389,-14.971338022249254
2025-03-24 17:11:22.389,-0.11082747022619621
2025-03-24 17:11:22.400,9.236576523975735
2025-03-24 17:11:22.400,6.468878473086491
2025-03-24 17:11:22.400,0.3250461510797704
2025-03-24 17:11:22.401,-0.2550390089107998
2025-03-24 17:11:22.401,2.4286123640384716
2025-03-24 17:11:22.409,0.606543854418381
2025-03-24 17:11:22.409,-6.2435130304350155
2025-03-24 17:11:22.409,-9.372652109102548
2025-03-24 17:11:22.409,-2.221534155749467
2025-03-24 17:11:22.409,9.235891667798148
2025-03-24 17:11:22.418,11.684678218221604
2025-03-24 17:11:22.419,0.9594341692023812
2025-03-24 17:11:22.419,-10.726923154700724
2025-03-24 17:11:22.419,-8.634955944332713
2025-03-24 17:11:22.428,5.1610439689241865
2025-03-24 17:11:22.428,12.877024506952916
2025-03-24 17:11:22.428,3.3878819174533485
2025-03-24 17:11:22.429,-12.620425052728345
2025-03-24 17:11:22.429,-15.289182211126336
2025-03-24 17:11:22.437,-0.34476058624133166
2025-03-24 17:11:22.437,15.541371577370898
2025-03-24 17:11:22.437,15.071113575115948
2025-03-24 17:11:22.437,0.3807946214251279
2025-03-24 17:11:22.446,-11.342580377941013
2025-03-24 17:11:22.446,-9.434064930338115
2025-03-24 17:11:22.446,-0.7166264396155876
2025-03-24 17:11:22.447,2.503803395246089
2025-03-24 17:11:22.447,-0.6194866778599715
2025-03-24 17:11:22.456,-0.7435135510978665
2025-03-24 17:11:22.457,5.631129792109554
2025-03-24 17:11:22.457,9.655352239434443
2025-03-24 17:11:22.457,2.953063981247767
2025-03-24 17:11:22.457,-8.978441640831004
2025-03-24 17:11:22.466,-12.593445980345686
2025-03-24 17:11:22.466,-3.668348766890408
2025-03-24 17:11:22.466,7.500427819906975
2025-03-24 17:11:22.467,9.374172291138612
2025-03-24 17:11:22.467,2.4582509721546515
2025-03-24 17:11:22.474,-3.8313457248717477
2025-03-24 17:11:22.475,-3.951354173366477
2025-03-24 17:11:22.475,-1.0075135858470294
2025-03-24 17:11:22.475,0.24880536213087895
2025-03-24 17:11:22.475,-0.030063637709598107
2025-03-24 17:11:22.484,0.790986767310417
2025-03-24 17:11:22.485,2.3980508159954486
2025-03-24 17:11:22.485,1.941479740458808
2025-03-24 17:11:22.485,-1.220855899079654
2025-03-24 17:11:22.485,-4.018812387921885
2025-03-24 17:11:22.496,-3.2302492379568135
2025-03-24 17:11:22.496,0.8073384841777546
2025-03-24 17:11:22.496,4.389860668301234
2025-03-24 17:11:22.497,4.062384146069275
2025-03-24 17:11:22.497,0.2554548474933638
2025-03-24 17:11:22.504,-2.9322233806445213
2025-03-24 17:11:22.505,-2.4314647218526027
2025-03-24 17:11:22.505,-0.10905646712624531
2025-03-24 17:11:22.505,-0.10461842167208803
2025-03-24 17:11:22.514,-2.4520359955802706
2025-03-24 17:11:22.515,-2.339587988594396
2025-03-24 17:11:22.515,2.750422281151106
2025-03-24 17:11:22.515,7.859115081388804
2025-03-24 17:11:22.515,5.826788021468909
2025-03-24 17:11:22.524,-2.984110701901366
2025-03-24 17:11:22.525,-9.799507709447798
2025-03-24 17:11:22.525,-7.484491911198615
2025-03-24 17:11:22.525,1.0880511567932014
2025-03-24 17:11:22.525,6.915603351419939
2025-03-24 17:11:22.534,5.504977041077973
2025-03-24 17:11:22.534,0.6813062313279619
2025-03-24 17:11:22.535,-1.842008856668279
2025-03-24 17:11:22.535,-1.2285430074847958
2025-03-24 17:11:22.535,-0.4219171142117645
2025-03-24 17:11:22.544,-1.0516186105122756
2025-03-24 17:11:22.544,-2.0833745397645185
2025-03-24 17:11:22.544,-2.156998651718353
2025-03-24 17:11:22.545,-0.6892677995636048
2025-03-24 17:11:22.545,2.4659986333640918
2025-03-24 17:11:22.552,5.8389027939129585
2025-03-24 17:11:22.553,5.59517628520923
2025-03-24 17:11:22.553,-0.5946224499458799
2025-03-24 17:11:22.553,-8.507519838287761
2025-03-24 17:11:22.553,-9.780356566704445
2025-03-24 17:11:22.562,-1.5511913597863516
2025-03-24 17:11:22.563,8.605688002313583
2025-03-24 17:11:22.563,10.328281186640895
2025-03-24 17:11:22.563,2.335604172804235
2025-03-24 17:11:22.572,-6.1900892554016895
2025-03-24 17:11:22.572,-6.647424086069542
2025-03-24 17:11:22.573,-0.8614117097813875
2025-03-24 17:11:22.573,2.418200275385938
2025-03-24 17:11:22.573,-0.34781131873039123
2025-03-24 17:11:22.582,-2.836364299987875
2025-03-24 17:11:22.582,1.4838348947682807
2025-03-24 17:11:22.583,8.325112734696853
2025-03-24 17:11:22.583,6.857776466380177
2025-03-24 17:11:22.583,-4.625311622778697
2025-03-24 17:11:22.592,-13.64871031826698
2025-03-24 17:11:22.592,-8.452729147023035
2025-03-24 17:11:22.593,6.200819868514919
2025-03-24 17:11:22.593,14.178709447779354
2025-03-24 17:11:22.593,7.439793206358117
2025-03-24 17:11:22.600,-5.629023613639043
2025-03-24 17:11:22.601,-11.651814303311387
2025-03-24 17:11:22.601,-6.605061977757141
2025-03-24 17:11:22.601,3.0587983306914204
2025-03-24 17:11:22.601,9.081738421106675
2025-03-24 17:11:22.610,7.884992709545277
2025-03-24 17:11:22.611,1.0103605759763714
2025-03-24 17:11:22.611,-6.862816513330222
2025-03-24 17:11:22.611,-10.216506766127592
2025-03-24 17:11:22.620,-5.963359561327111
2025-03-24 17:11:22.621,3.502138170995106
2025-03-24 17:11:22.621,10.977741742088941
2025-03-24 17:11:22.621,9.995705891593868
2025-03-24 17:11:22.621,1.019930892098655
2025-03-24 17:11:22.630,-8.155595400313663
2025-03-24 17:11:22.630,-9.637635097994593
2025-03-24 17:11:22.631,-3.645668927737799
2025-03-24 17:11:22.631,2.0396932167159276
2025-03-24 17:11:22.631,2.049389458696154
2025-03-24 17:11:22.640,0.4235465869742723
2025-03-24 17:11:22.640,4.02205270772357
2025-03-24 17:11:22.641,10.432998039919328
2025-03-24 17:11:22.641,8.697049132096256
2025-03-24 17:11:22.641,-5.385221870403795
2025-03-24 17:11:22.649,-19.854122131667058
2025-03-24 17:11:22.649,-18.22021228803716
2025-03-24 17:11:22.649,0.7058649102114759
2025-03-24 17:11:22.649,19.749216440666455
2025-03-24 17:11:22.649,21.443002140147343
2025-03-24 17:11:22.658,5.855085924186994
2025-03-24 17:11:22.659,-11.45346387067739
2025-03-24 17:11:22.659,-16.485739633182753
2025-03-24 17:11:22.659,-8.734067111205613
2025-03-24 17:11:22.668,2.2601552368269373
2025-03-24 17:11:22.669,7.699283022812464
2025-03-24 17:11:22.669,5.841413010348724
2025-03-24 17:11:22.669,1.169144491116137
2025-03-24 17:11:22.669,-0.5134848533521972
2025-03-24 17:11:22.678,1.7870482061760122
2025-03-24 17:11:22.678,2.2434433749294898
2025-03-24 17:11:22.679,-4.256838439859138
2025-03-24 17:11:22.679,-12.012089492189023
2025-03-24 17:11:22.679,-8.307298201231593
2025-03-24 17:11:22.686,8.594992793481788
2025-03-24 17:11:22.687,21.503269197431692
2025-03-24 17:11:22.687,12.64096548371056
2025-03-24 17:11:22.687,-12.113344646519161
2025-03-24 17:11:22.696,-26.471217325392296
2025-03-24 17:11:22.696,-13.862276835029562
2025-03-24 17:11:22.696,12.473944402126586
2025-03-24 17:11:22.697,24.757109176706077
2025-03-24 17:11:22.697,12.211345897744241
2025-03-24 17:11:22.704,-9.08008160201423
2025-03-24 17:11:22.705,-17.11752224056921
2025-03-24 17:11:22.705,-7.983847284173487
2025-03-24 17:11:22.705,4.279872107989668
2025-03-24 17:11:22.714,7.031186377077704
2025-03-24 17:11:22.715,1.95841141903482
2025-03-24 17:11:22.715,-1.3268930079270274
2025-03-24 17:11:22.715,0.9797903262643712
2025-03-24 17:11:22.715,3.6138252544094716
2025-03-24 17:11:22.715,1.14359350063807
2025-03-24 17:11:22.725,-4.223274293602763
2025-03-24 17:11:22.725,-5.7961306999827364
2025-03-24 17:11:22.725,-1.4408973194202734
2025-03-24 17:11:22.725,3.686965468923019
2025-03-24 17:11:22.734,3.925929362865091
2025-03-24 17:11:22.735,0.009563100003399938
2025-03-24 17:11:22.735,-2.647027226280456
2025-03-24 17:11:22.735,-0.9697574622543055
2025-03-24 17:11:22.735,2.6462957094875637
2025-03-24 17:11:22.744,3.612873407135565
2025-03-24 17:11:22.744,0.04313614808212263
2025-03-24 17:11:22.745,-5.1230768626684124
2025-03-24 17:11:22.745,-6.269906914942687
2025-03-24 17:11:22.745,-0.7920784151172682
2025-03-24 17:11:22.754,6.710254211402386
2025-03-24 17:11:22.754,8.12462342514259
2025-03-24 17:11:22.755,1.205254980176903
2025-03-24 17:11:22.755,-6.851097855502972
2025-03-24 17:11:22.755,-7.445239424993674
2025-03-24 17:11:22.764,-0.6799751268111115
2025-03-24 17:11:22.765,5.347568935633097
2025-03-24 17:11:22.765,4.738328288650975
2025-03-24 17:11:22.765,0.048795575047227424
2025-03-24 17:11:22.765,-2.5572322825265346
2025-03-24 17:11:22.774,-1.4733629177106986
2025-03-24 17:11:22.774,-0.21201743723613847
2025-03-24 17:11:22.775,-1.0271169949274914
2025-03-24 17:11:22.775,-1.5403554556975723
2025-03-24 17:11:22.775,0.9943291553732533
2025-03-24 17:11:22.782,4.513503020538894
2025-03-24 17:11:22.783,4.073911646325675
2025-03-24 17:11:22.783,-1.2851185145586694
2025-03-24 17:11:22.783,-6.255952799829534
2025-03-24 17:11:22.783,-5.299792643658111
2025-03-24 17:11:22.794,0.5218894025038328
2025-03-24 17:11:22.794,4.896521558852639
2025-03-24 17:11:22.795,4.020902476917412
2025-03-24 17:11:22.795,0.5322617232474223
2025-03-24 17:11:22.795,-1.0856242533731637
2025-03-24 17:11:22.802,-0.5452576343090538
2025-03-24 17:11:22.803,-0.8429557272956517
2025-03-24 17:11:22.803,-2.6278860176979393
2025-03-24 17:11:22.803,-2.8371747089954873
2025-03-24 17:11:22.812,0.35188956103481195
2025-03-24 17:11:22.813,4.041885816492945
2025-03-24 17:11:22.813,4.145529048096301
2025-03-24 17:11:22.813,0.7159131982219673
2025-03-24 17:11:22.813,-2.6739863567348827
2025-03-24 17:11:22.822,-3.807604525590899
2025-03-24 17:11:22.823,-3.165111736910637
2025-03-24 17:11:22.823,-0.941107260105031
2025-03-24 17:11:22.823,3.336668378716459
2025-03-24 17:11:22.823,7.22437543438314
2025-03-24 17:11:22.832,5.647789339002897
2025-03-24 17:11:22.833,-2.238226610742329
2025-03-24 17:11:22.833,-9.585590176250818
2025-03-24 17:11:22.833,-9.082515340834863
2025-03-24 17:11:22.833,-1.710415104399015
2025-03-24 17:11:22.842,5.457388547863922
2025-03-24 17:11:22.843,8.324671273506446
2025-03-24 17:11:22.843,7.9841770281896105
2025-03-24 17:11:22.843,5.023505399963312
2025-03-24 17:11:22.843,-2.198326338758909
2025-03-24 17:11:22.851,-11.66790831135135
2025-03-24 17:11:22.851,-15.244151243120735
2025-03-24 17:11:22.851,-6.77318129628296
2025-03-24 17:11:22.851,8.733230924292386
2025-03-24 17:11:22.851,18.10756062575302
2025-03-24 17:11:22.860,13.195467587016648
2025-03-24 17:11:22.861,-0.9972807765608193
2025-03-24 17:11:22.861,-12.182642021881831
2025-03-24 17:11:22.861,-13.026826873747872
2025-03-24 17:11:22.870,-5.996855432831452
2025-03-24 17:11:22.871,2.2654879889117776
2025-03-24 17:11:22.871,7.666274171569673
2025-03-24 17:11:22.871,8.821926538339875
2025-03-24 17:11:22.871,4.707785800286258
2025-03-24 17:11:22.880,-3.2446986689931467
2025-03-24 17:11:22.880,-8.415925078492196
2025-03-24 17:11:22.881,-4.584390718826123
2025-03-24 17:11:22.881,4.480747096141875
2025-03-24 17:11:22.881,7.0817870390585105
2025-03-24 17:11:22.889,-1.1862334868035966
2025-03-24 17:11:22.889,-9.626664245022734
2025-03-24 17:11:22.889,-5.71453156694924
2025-03-24 17:11:22.889,7.232236855690043
2025-03-24 17:11:22.889,13.169823866136879
2025-03-24 17:11:22.898,4.051680721073199
2025-03-24 17:11:22.899,-9.656467171617468
2025-03-24 17:11:22.899,-12.24540442632968
2025-03-24 17:11:22.899,-1.7401982949137809
2025-03-24 17:11:22.908,9.060431938041601
2025-03-24 17:11:22.908,8.656539280501397
2025-03-24 17:11:22.909,-0.7007138373847636
2025-03-24 17:11:22.909,-7.583334104245326
2025-03-24 17:11:22.909,-5.304353656106149
2025-03-24 17:11:22.918,1.6611515676945414
2025-03-24 17:11:22.919,4.875948125336975
2025-03-24 17:11:22.919,2.4567226510165714
2025-03-24 17:11:22.919,-0.29422321505305093
2025-03-24 17:11:22.919,0.3643060435864195
2025-03-24 17:11:22.928,1.3877247431348454
2025-03-24 17:11:22.929,-1.5580277445839184
2025-03-24 17:11:22.929,-6.363185446869694
2025-03-24 17:11:22.929,-6.201254435573574
2025-03-24 17:11:22.929,1.175724654055072
2025-03-24 17:11:22.938,9.235322204812999
2025-03-24 17:11:22.939,9.541249123875536
2025-03-24 17:11:22.939,1.3867099164911147
2025-03-24 17:11:22.939,-7.404567722313757
2025-03-24 17:11:22.939,-9.098829564761772
2025-03-24 17:11:22.948,-3.60056597104975
2025-03-24 17:11:22.949,3.197264413320961
2025-03-24 17:11:22.949,6.238446255268993
2025-03-24 17:11:22.949,4.320103062798846
2025-03-24 17:11:22.949,-1.16473086615471
2025-03-24 17:11:22.958,-6.114536578379232
2025-03-24 17:11:22.959,-4.291208972645513
2025-03-24 17:11:22.959,5.1867074524162975
2025-03-24 17:11:22.959,11.49083716072043
2025-03-24 17:11:22.959,2.7498733032140352
2025-03-24 17:11:22.966,-14.420794539610736
2025-03-24 17:11:22.967,-17.441725202759535
2025-03-24 17:11:22.967,2.478924151619877
2025-03-24 17:11:22.967,23.138630120820963
2025-03-24 17:11:22.975,16.822090768698164
2025-03-24 17:11:22.975,-11.671706432249197
2025-03-24 17:11:22.975,-27.598148350246706
2025-03-24 17:11:22.975,-9.624061690499381
2025-03-24 17:11:22.975,21.95163371274422
2025-03-24 17:11:22.984,29.209417635656887
2025-03-24 17:11:22.985,2.5924729685025625
2025-03-24 17:11:22.985,-28.084565355459592
2025-03-24 17:11:22.985,-29.246636575358554
2025-03-24 17:11:22.993,-1.0531311226596516
2025-03-24 17:11:22.993,26.06281784569761
2025-03-24 17:11:22.993,26.672913508108014
2025-03-24 17:11:22.993,4.354555818693207
2025-03-24 17:11:22.993,-17.756469333027177
2025-03-24 17:11:23.003,-21.845478947416947
2025-03-24 17:11:23.003,-8.38645094574857
2025-03-24 17:11:23.003,9.1341786462747
2025-03-24 17:11:23.003,16.90243604980397
2025-03-24 17:11:23.011,10.41199938427592
2025-03-24 17:11:23.011,-3.55729030593872
2025-03-24 17:11:23.011,-13.108631811776794
2025-03-24 17:11:23.011,-10.941686645970991
2025-03-24 17:11:23.011,0.2347956581542786
2025-03-24 17:11:23.021,10.568110311230235
2025-03-24 17:11:23.021,11.238237785711405
2025-03-24 17:11:23.021,1.7840596928862422
2025-03-24 17:11:23.021,-9.007509801984135
2025-03-24 17:11:23.030,-10.72746765073863
2025-03-24 17:11:23.031,-1.880540656655179
2025-03-24 17:11:23.031,7.903117927152818
2025-03-24 17:11:23.031,8.212877184503235
2025-03-24 17:11:23.031,-0.21259926963411468
2025-03-24 17:11:23.040,-6.6562948961219535
2025-03-24 17:11:23.040,-3.870642144128108
2025-03-24 17:11:23.040,3.1185267126191136
2025-03-24 17:11:23.041,4.425772968300396
2025-03-24 17:11:23.041,-0.9981871097237859
2025-03-24 17:11:23.050,-4.3797959024393744
2025-03-24 17:11:23.050,-0.35109232866356743
2025-03-24 17:11:23.050,4.822981497073848
2025-03-24 17:11:23.051,2.4998198415788826
2025-03-24 17:11:23.051,-4.97789616542383
2025-03-24 17:11:23.060,-6.842340792902965
2025-03-24 17:11:23.060,0.8385117659372638
2025-03-24 17:11:23.061,9.066692510207847
2025-03-24 17:11:23.061,7.55344179918884
2025-03-24 17:11:23.061,-2.161166536272118
2025-03-24 17:11:23.070,-9.256683047302557
2025-03-24 17:11:23.070,-7.0805404212293235
2025-03-24 17:11:23.070,0.3210328946174102
2025-03-24 17:11:23.071,5.053219786048108
2025-03-24 17:11:23.071,4.6343517603361075
2025-03-24 17:11:23.079,2.2661482799352592
2025-03-24 17:11:23.079,0.6701652739943799
2025-03-24 17:11:23.079,-0.6179809862903872
2025-03-24 17:11:23.079,-2.35282080896364
2025-03-24 17:11:23.079,-3.4692482919594094
2025-03-24 17:11:23.089,-2.7706230773834757
2025-03-24 17:11:23.089,-0.5285724196032152
2025-03-24 17:11:23.089,2.144040825030771
2025-03-24 17:11:23.089,3.749259336455002
2025-03-24 17:11:23.089,2.6687919001587934
2025-03-24 17:11:23.099,-0.5692988397670696
2025-03-24 17:11:23.099,-2.217460340051716
2025-03-24 17:11:23.099,0.017444591413199068
2025-03-24 17:11:23.099,2.242915338785803
2025-03-24 17:11:23.108,-0.8097719921677251
2025-03-24 17:11:23.108,-6.425160034288368
2025-03-24 17:11:23.109,-5.550982616120124
2025-03-24 17:11:23.109,3.963481767094884
2025-03-24 17:11:23.109,11.619106943811657
2025-03-24 17:11:23.118,6.754978004429079
2025-03-24 17:11:23.118,-6.488704650184759
2025-03-24 17:11:23.119,-12.878185766798449
2025-03-24 17:11:23.119,-4.790530288285536
2025-03-24 17:11:23.119,8.23241699500099
2025-03-24 17:11:23.127,11.268284385111334
2025-03-24 17:11:23.127,1.7583041195108893
2025-03-24 17:11:23.127,-8.657235182425548
2025-03-24 17:11:23.127,-8.806283437483632
2025-03-24 17:11:23.136,-0.13196695107155298
2025-03-24 17:11:23.137,6.980264667541286
2025-03-24 17:11:23.137,5.931392061614664
2025-03-24 17:11:23.137,0.17441364442481305
2025-03-24 17:11:23.137,-2.818012277202974
2025-03-24 17:11:23.146,-1.2910043631480963
2025-03-24 17:11:23.147,-0.3521168212519752
2025-03-24 17:11:23.147,-3.2127728088786114
2025-03-24 17:11:23.147,-5.081144433373423
2025-03-24 17:11:23.147,0.04280812543042619
2025-03-24 17:11:23.156,8.431752935482256
2025-03-24 17:11:23.156,9.172977902443256
2025-03-24 17:11:23.157,-0.6820426476865975
2025-03-24 17:11:23.157,-9.94768917405989
2025-03-24 17:11:23.157,-7.1289345930587364
2025-03-24 17:11:23.166,3.8541059708422547
2025-03-24 17:11:23.166,8.441416784439372
2025-03-24 17:11:23.167,0.805599192725283
2025-03-24 17:11:23.167,-8.514845960694489
2025-03-24 17:11:23.167,-6.792936979631387
2025-03-24 17:11:23.175,4.271204677330375
2025-03-24 17:11:23.175,11.155903868862035
2025-03-24 17:11:23.175,5.830866510961445
2025-03-24 17:11:23.175,-5.058192452755898
2025-03-24 17:11:23.175,-9.542996471005303
2025-03-24 17:11:23.186,-4.525730842379577
2025-03-24 17:11:23.187,2.7445093407023657
2025-03-24 17:11:23.187,5.069966230367959
2025-03-24 17:11:23.187,2.72407897067667
2025-03-24 17:11:23.187,0.14337962030344847
2025-03-24 17:11:23.195,-0.8096255756296433
2025-03-24 17:11:23.195,-1.5042077633538307
2025-03-24 17:11:23.195,-2.3065751607840568
2025-03-24 17:11:23.195,-1.3529136177774255
2025-03-24 17:11:23.204,1.6926807598419926
2025-03-24 17:11:23.205,3.4864318491391324
2025-03-24 17:11:23.205,1.1099110411016186
2025-03-24 17:11:23.205,-2.9365748895711725
2025-03-24 17:11:23.205,-3.1516956759034134
2025-03-24 17:11:23.214,1.156380474619809
2025-03-24 17:11:23.215,4.0146951168882685
2025-03-24 17:11:23.215,0.936585552366322
2025-03-24 17:11:23.215,-4.137524269595403
2025-03-24 17:11:23.215,-3.992320128912919
2025-03-24 17:11:23.224,1.492341890926773
2025-03-24 17:11:23.225,5.225011685877658
2025-03-24 17:11:23.225,3.2154437138851812
2025-03-24 17:11:23.225,-0.6579670406031569
2025-03-24 17:11:23.225,-2.1577177209206586
2025-03-24 17:11:23.234,-2.9838206041755946
2025-03-24 17:11:23.235,-5.098647127018014
2025-03-24 17:11:23.235,-4.184438335174961
2025-03-24 17:11:23.235,3.779015045437665
2025-03-24 17:11:23.235,12.246716488088369
2025-03-24 17:11:23.244,9.544493974351285
2025-03-24 17:11:23.244,-4.359793450180093
2025-03-24 17:11:23.245,-14.730619883176969
2025-03-24 17:11:23.245,-9.842434579782875
2025-03-24 17:11:23.245,3.964684140541533
2025-03-24 17:11:23.253,10.708016210490577
2025-03-24 17:11:23.253,4.84498720887637
2025-03-24 17:11:23.253,-3.7034708084491053
2025-03-24 17:11:23.253,-4.206827873884908
2025-03-24 17:11:23.253,1.6421259327473365
2025-03-24 17:11:23.262,4.214946902210286
2025-03-24 17:11:23.263,-0.26127349185023047
2025-03-24 17:11:23.263,-5.408450743666463
2025-03-24 17:11:23.263,-4.0786436033604
2025-03-24 17:11:23.272,2.168729370046876
2025-03-24 17:11:23.273,5.558852981631818
2025-03-24 17:11:23.273,2.21185692310348
2025-03-24 17:11:23.273,-3.4427763841649215
2025-03-24 17:11:23.273,-4.594561648745474
2025-03-24 17:11:23.282,-0.026110845681603934
2025-03-24 17:11:23.283,5.054165271507672
2025-03-24 17:11:23.283,5.018732506020167
2025-03-24 17:11:23.283,-0.44459753589694173
2025-03-24 17:11:23.283,-6.223693332523657
2025-03-24 17:11:23.292,-6.720114774484156
2025-03-24 17:11:23.293,-1.0012997951037066
2025-03-24 17:11:23.293,6.337506692322252
2025-03-24 17:11:23.293,8.890501319671909
2025-03-24 17:11:23.293,3.465122556112949
2025-03-24 17:11:23.302,-6.71339520206012
2025-03-24 17:11:23.303,-12.774185827216357
2025-03-24 17:11:23.303,-6.774008123819415
2025-03-24 17:11:23.303,8.795597377343435
2025-03-24 17:11:23.303,19.230260965385146
2025-03-24 17:11:23.310,10.994304323562705
2025-03-24 17:11:23.311,-11.012969110288482
2025-03-24 17:11:23.311,-24.718507960712238
2025-03-24 17:11:23.311,-14.3683177085261
2025-03-24 17:11:23.319,10.12005781817648
2025-03-24 17:11:23.319,23.44204621695007
2025-03-24 17:11:23.319,13.776085670154693
2025-03-24 17:11:23.319,-5.455121197657493
2025-03-24 17:11:23.329,-14.14999529993805
2025-03-24 17:11:23.329,-8.448573321980517
2025-03-24 17:11:23.329,0.06467165801780572
2025-03-24 17:11:23.329,2.497422128740121
2025-03-24 17:11:23.329,1.4564997349468307
2025-03-24 17:11:23.329,2.3699145273052804
2025-03-24 17:11:23.339,4.266766022707029
2025-03-24 17:11:23.339,3.1171920472766517
2025-03-24 17:11:23.339,-0.6164441180477556
2025-03-24 17:11:23.339,-3.108003207471752
2025-03-24 17:11:23.348,-3.545521628318944
2025-03-24 17:11:23.349,-3.9684518475931276
2025-03-24 17:11:23.349,-3.5259239696888045
2025-03-24 17:11:23.349,1.1641560103091446
2025-03-24 17:11:23.349,8.49943289703507
2025-03-24 17:11:23.358,10.259846543154138
2025-03-24 17:11:23.358,1.538450234943128
2025-03-24 17:11:23.359,-10.599136604084924
2025-03-24 17:11:23.359,-13.197391610955338
2025-03-24 17:11:23.359,-2.4291287835921107
2025-03-24 17:11:23.366,10.78322337816213
2025-03-24 17:11:23.367,12.255644029805772
2025-03-24 17:11:23.367,0.5270875305591798
2025-03-24 17:11:23.367,-11.194672069841987
2025-03-24 17:11:23.376,-9.908093449863763
2025-03-24 17:11:23.377,2.554121745387845
2025-03-24 17:11:23.377,12.170548800190211
2025-03-24 17:11:23.377,8.830831412312472
2025-03-24 17:11:23.377,-3.4135038769803128
2025-03-24 17:11:23.385,-12.217093758116341
2025-03-24 17:11:23.385,-9.799402250943672
2025-03-24 17:11:23.385,0.9989712103627206
2025-03-24 17:11:23.385,10.562472355733311
2025-03-24 17:11:23.385,10.772500344266545
2025-03-24 17:11:23.395,1.726943731481179
2025-03-24 17:11:23.395,-7.942061312340978
2025-03-24 17:11:23.395,-9.030442219155011
2025-03-24 17:11:23.395,-1.494144883381623
2025-03-24 17:11:23.404,5.4356036023049334
2025-03-24 17:11:23.405,4.3092322964154555
2025-03-24 17:11:23.405,-1.6347545047365533
2025-03-24 17:11:23.405,-3.4396419511554974
2025-03-24 17:11:23.405,1.2672068547920106
2025-03-24 17:11:23.414,5.24973463871529
2025-03-24 17:11:23.415,1.8576046863889548
2025-03-24 17:11:23.415,-5.568645645325422
2025-03-24 17:11:23.415,-7.688755076083791
2025-03-24 17:11:23.415,-1.0433651097374097
2025-03-24 17:11:23.424,7.552542759951994
2025-03-24 17:11:23.425,8.97352738696126
2025-03-24 17:11:23.425,1.713900663649909
2025-03-24 17:11:23.425,-7.184590427917639
2025-03-24 17:11:23.425,-9.528025429032173
2025-03-24 17:11:23.434,-3.372257279202597
2025-03-24 17:11:23.435,5.572261848589243
2025-03-24 17:11:23.435,9.039264745221873
2025-03-24 17:11:23.435,3.9754270456120313
2025-03-24 17:11:23.435,-4.079799956243888
2025-03-24 17:11:23.444,-6.775871465843878
2025-03-24 17:11:23.445,-2.4365372544355353
2025-03-24 17:11:23.445,2.6038880989005015
2025-03-24 17:11:23.445,2.896897717593168
2025-03-24 17:11:23.445,0.5029996601618794
2025-03-24 17:11:23.454,0.1034736141575366
2025-03-24 17:11:23.455,1.0863731564124381
2025-03-24 17:11:23.455,-0.5490948498825144
2025-03-24 17:11:23.455,-4.073845400874028
2025-03-24 17:11:23.455,-3.7761279126136738
2025-03-24 17:11:23.464,2.1392416224303
2025-03-24 17:11:23.464,7.374758356998069
2025-03-24 17:11:23.465,5.1682351069018155
2025-03-24 17:11:23.465,-2.750764021569707
2025-03-24 17:11:23.465,-8.019144131006687
2025-03-24 17:11:23.474,-5.459127178418984
2025-03-24 17:11:23.475,1.5395833259049096
2025-03-24 17:11:23.475,5.652394762477762
2025-03-24 17:11:23.475,3.8328212757688536
2025-03-24 17:11:23.475,-0.27893262249522177
2025-03-24 17:11:23.484,-1.633210857594706
2025-03-24 17:11:23.484,0.06741430417708955
2025-03-24 17:11:23.485,0.7154062451890071
2025-03-24 17:11:23.485,-2.0028861009446177
2025-03-24 17:11:23.485,-4.7227512286074065
2025-03-24 17:11:23.494,-2.453810370392237
2025-03-24 17:11:23.494,4.149214002023648
2025-03-24 17:11:23.494,8.090137035354525
2025-03-24 17:11:23.495,3.9355297142519565
2025-03-24 17:11:23.495,-5.023336483924868
2025-03-24 17:11:23.504,-9.627386924052525
2025-03-24 17:11:23.504,-4.8678373758350535
2025-03-24 17:11:23.504,4.647737351754332
2025-03-24 17:11:23.505,9.843983526624704
2025-03-24 17:11:23.505,6.427834651363167
2025-03-24 17:11:23.512,-1.9469896225474086
2025-03-24 17:11:23.513,-8.389553598993672
2025-03-24 17:11:23.513,-8.748760771573343
2025-03-24 17:11:23.513,-3.4430614290326806
2025-03-24 17:11:23.522,4.06772951871119
2025-03-24 17:11:23.523,9.333832543530301
2025-03-24 17:11:23.523,8.965593792746194
2025-03-24 17:11:23.523,2.8254426454688524
2025-03-24 17:11:23.523,-5.327320793918765
2025-03-24 17:11:23.532,-10.213678092365738
2025-03-24 17:11:23.533,-8.80892584586891
2025-03-24 17:11:23.533,-2.2996048908638116
2025-03-24 17:11:23.533,5.072431746814201
2025-03-24 17:11:23.533,9.042199156382543
2025-03-24 17:11:23.542,8.02572548218061
2025-03-24 17:11:23.542,3.4984651994682214
2025-03-24 17:11:23.543,-2.1086018961422486
2025-03-24 17:11:23.543,-7.148265351196886
2025-03-24 17:11:23.543,-9.771647752600973
2025-03-24 17:11:23.552,-7.0699171552295175
2025-03-24 17:11:23.553,1.5480986142819926
2025-03-24 17:11:23.553,10.357757296753737
2025-03-24 17:11:23.553,11.00821831426925
2025-03-24 17:11:23.553,2.3703784835136177
2025-03-24 17:11:23.561,-6.606405073350036
2025-03-24 17:11:23.561,-7.066493339392577
2025-03-24 17:11:23.561,-0.9452793672640745
2025-03-24 17:11:23.561,2.432995604648611
2025-03-24 17:11:23.561,-0.7336862579027499
2025-03-24 17:11:23.571,-4.033176842777606
2025-03-24 17:11:23.571,-0.4405259649528196
2025-03-24 17:11:23.571,7.180099168434712
2025-03-24 17:11:23.571,8.856250696180481
2025-03-24 17:11:23.571,0.23069752006885286
2025-03-24 17:11:23.580,-10.694232087912267
2025-03-24 17:11:23.581,-11.614942269798195
2025-03-24 17:11:23.581,-0.12271266207107856
2025-03-24 17:11:23.581,12.381165922578983
2025-03-24 17:11:23.588,12.51831632296431
2025-03-24 17:11:23.589,-0.1581799243548898
2025-03-24 17:11:23.589,-12.392585390929106
2025-03-24 17:11:23.589,-11.915251588974892
2025-03-24 17:11:23.598,-0.5284616405007032
2025-03-24 17:11:23.599,9.341514636891873
2025-03-24 17:11:23.599,9.160270500539145
2025-03-24 17:11:23.599,2.018062845620091
2025-03-24 17:11:23.599,-3.6570627093171573
2025-03-24 17:11:23.608,-4.105183002815279
2025-03-24 17:11:23.608,-2.0094456906902045
2025-03-24 17:11:23.609,-0.9037752431409687
2025-03-24 17:11:23.609,-1.0771043334392274
2025-03-24 17:11:23.609,-0.7923523081972984
2025-03-24 17:11:23.618,0.8851954443616444
2025-03-24 17:11:23.618,3.2195157618742365
2025-03-24 17:11:23.619,4.402403486175474
2025-03-24 17:11:23.619,2.660628579046235
2025-03-24 17:11:23.619,-1.7722580578775313
2025-03-24 17:11:23.628,-5.502634662085644
2025-03-24 17:11:23.628,-4.812575971505888
2025-03-24 17:11:23.629,-0.41750313765144076
2025-03-24 17:11:23.629,2.9047862072580397
2025-03-24 17:11:23.629,2.508293958632451
2025-03-24 17:11:23.638,0.8608895668773089
2025-03-24 17:11:23.638,0.745607423181089
2025-03-24 17:11:23.638,0.9890745872703564
2025-03-24 17:11:23.639,-0.2529693947912769
2025-03-24 17:11:23.639,-1.3434643773473043
2025-03-24 17:11:23.647,-0.22748327075413644
2025-03-24 17:11:23.647,0.8721633244084487
2025-03-24 17:11:23.647,-1.4360358923899859
2025-03-24 17:11:23.647,-4.976237910777213
2025-03-24 17:11:23.656,-3.521763343479825
2025-03-24 17:11:23.657,3.8808834567410155
2025-03-24 17:11:23.657,9.524591159650742
2025-03-24 17:11:23.657,6.04643050239554
2025-03-24 17:11:23.657,-3.652986537108655
2025-03-24 17:11:23.667,-9.261864608647901
2025-03-24 17:11:23.667,-5.389760133838491
2025-03-24 17:11:23.667,2.3615184086919223
2025-03-24 17:11:23.667,4.92348101888754
2025-03-24 17:11:23.667,0.9731412247339368
2025-03-24 17:11:23.676,-2.2958500731344116
2025-03-24 17:11:23.677,0.4030477580154168
2025-03-24 17:11:23.677,4.710821330691153
2025-03-24 17:11:23.677,2.6697915850159406
2025-03-24 17:11:23.677,-5.0145020716165725
2025-03-24 17:11:23.686,-8.310960417800525
2025-03-24 17:11:23.687,-1.4527384254058688
2025-03-24 17:11:23.687,7.984980214489215
2025-03-24 17:11:23.687,8.43791695515875
2025-03-24 17:11:23.687,-0.3966247374821582
2025-03-24 17:11:23.696,-7.799316007006227
2025-03-24 17:11:23.697,-6.490732759880596
2025-03-24 17:11:23.697,-0.291234498299219
2025-03-24 17:11:23.697,3.7885387529490764
2025-03-24 17:11:23.697,4.609933014553046
2025-03-24 17:11:23.706,4.3839045470801326
2025-03-24 17:11:23.707,2.3109397502956344
2025-03-24 17:11:23.707,-3.2407754168690466
2025-03-24 17:11:23.707,-8.522337314282847
2025-03-24 17:11:23.707,-6.927569216449442
2025-03-24 17:11:23.716,1.5167377394016812
2025-03-24 17:11:23.717,8.358143394539633
2025-03-24 17:11:23.717,6.812481536268968
2025-03-24 17:11:23.717,0.0980477214887403
2025-03-24 17:11:23.717,-3.5008481926583865
2025-03-24 17:11:23.726,-1.6374322936950074
2025-03-24 17:11:23.726,0.23325156111282086
2025-03-24 17:11:23.727,-2.0953767212703327
2025-03-24 17:11:23.727,-5.060662367453094
2025-03-24 17:11:23.727,-2.6052461142980055
2025-03-24 17:11:23.736,4.4884128421963485
2025-03-24 17:11:23.737,8.551898493966025
2025-03-24 17:11:23.737,4.550253258367121
2025-03-24 17:11:23.737,-3.4222758364184163
2025-03-24 17:11:23.737,-6.929009074881387
2025-03-24 17:11:23.746,-3.150903447216373
2025-03-24 17:11:23.746,2.094862127121023
2025-03-24 17:11:23.747,1.919651242667959
2025-03-24 17:11:23.747,-2.599496608581648
2025-03-24 17:11:23.747,-3.5667204193939703
2025-03-24 17:11:23.755,2.8648570993305653
2025-03-24 17:11:23.755,9.883394033793481
2025-03-24 17:11:23.755,7.6830027510250725
2025-03-24 17:11:23.755,-3.646761982452306
2025-03-24 17:11:23.756,-13.2149587450335
2025-03-24 17:11:23.765,-11.763588830488143
2025-03-24 17:11:23.765,-1.1945727349435673
2025-03-24 17:11:23.765,9.393378381944583
2025-03-24 17:11:23.765,13.235983236714992
2025-03-24 17:11:23.773,9.221774721388023
2025-03-24 17:11:23.773,-0.4374348984858024
2025-03-24 17:11:23.773,-11.145227688315922
2025-03-24 17:11:23.773,-15.739196527892117
2025-03-24 17:11:23.773,-8.795050491358817
2025-03-24 17:11:23.783,6.2945856651816605
2025-03-24 17:11:23.783,17.332858270895336
2025-03-24 17:11:23.783,14.161255823159667
2025-03-24 17:11:23.783,-0.41573547348194406
2025-03-24 17:11:23.792,-13.0139718192665
2025-03-24 17:11:23.793,-13.600622471586226
2025-03-24 17:11:23.793,-4.809718733711372
2025-03-24 17:11:23.793,3.7767700882512796
2025-03-24 17:11:23.793,7.490639425900413
2025-03-24 17:11:23.801,8.555835855215424
2025-03-24 17:11:23.801,7.6513882171494245
2025-03-24 17:11:23.801,0.7618796740808215
2025-03-24 17:11:23.801,-11.507865210232143
2025-03-24 17:11:23.802,-17.438992463540437
2025-03-24 17:11:23.811,-6.052567211951594
2025-03-24 17:11:23.811,14.933261914402534
2025-03-24 17:11:23.811,22.568671273666748
2025-03-24 17:11:23.811,5.466821181685239
2025-03-24 17:11:23.819,-18.969736551900596
2025-03-24 17:11:23.819,-22.596701735048914
2025-03-24 17:11:23.819,-0.5214076570369235
2025-03-24 17:11:23.819,21.870135816610368
2025-03-24 17:11:23.820,19.1779871327426
2025-03-24 17:11:23.829,-4.093645050973965
2025-03-24 17:11:23.829,-20.862291895515355
2025-03-24 17:11:23.829,-14.508561068734863
2025-03-24 17:11:23.829,4.478390355068656
2025-03-24 17:11:23.838,14.994763148310117
2025-03-24 17:11:23.839,9.7006476387924
2025-03-24 17:11:23.839,-1.4944926954082534
2025-03-24 17:11:23.839,-6.739287091485972
2025-03-24 17:11:23.839,-4.386733895752378
2025-03-24 17:11:23.847,-0.5737968578497921
2025-03-24 17:11:23.847,0.09990749436084832
2025-03-24 17:11:23.847,-1.1629371035116116
2025-03-24 17:11:23.847,-0.7853825413890656
2025-03-24 17:11:23.847,2.143810153713264
2025-03-24 17:11:23.857,4.99794704400463
2025-03-24 17:11:23.857,4.570629116835134
2025-03-24 17:11:23.857,0.05751096645749744
2025-03-24 17:11:23.857,-5.955089522283318
2025-03-24 17:11:23.857,-8.591217233670001
2025-03-24 17:11:23.867,-4.204209491161714
2025-03-24 17:11:23.867,5.155411525437258
2025-03-24 17:11:23.867,11.446090899451297
2025-03-24 17:11:23.867,7.5878793096685335
2025-03-24 17:11:23.876,-4.1885457387787
2025-03-24 17:11:23.876,-12.823634132237315
2025-03-24 17:11:23.877,-9.297209731429195
2025-03-24 17:11:23.877,3.3379243967910512
2025-03-24 17:11:23.877,12.489322771681909
2025-03-24 17:11:23.886,9.174722222147203
2025-03-24 17:11:23.887,-2.387204367133013
2025-03-24 17:11:23.887,-9.58644197733516
2025-03-24 17:11:23.887,-5.714928172688599
2025-03-24 17:11:23.887,2.5885320440133825
2025-03-24 17:11:23.896,4.135028269932636
2025-03-24 17:11:23.897,-2.1835976382729876
2025-03-24 17:11:23.897,-5.931216067198345
2025-03-24 17:11:23.897,0.5877748897027514
2025-03-24 17:11:23.897,11.04745423802278
2025-03-24 17:11:23.904,12.10131242602758
2025-03-24 17:11:23.905,-0.11968085246306659
2025-03-24 17:11:23.905,-14.613242246288308
2025-03-24 17:11:23.905,-17.179727825577473
2025-03-24 17:11:23.914,-5.125877104443024
2025-03-24 17:11:23.914,10.63604376347198
2025-03-24 17:11:23.914,16.743680227676226
2025-03-24 17:11:23.915,9.478509985459887
2025-03-24 17:11:23.915,-3.3751237751634178
2025-03-24 17:11:23.923,-10.8711023383092
2025-03-24 17:11:23.923,-8.526130768110919
2025-03-24 17:11:23.923,-0.8926095686336307
2025-03-24 17:11:23.923,4.102573292232247
2025-03-24 17:11:23.932,3.143413706888238
2025-03-24 17:11:23.933,-0.047841370769896086
2025-03-24 17:11:23.933,-0.21002647918751968
2025-03-24 17:11:23.933,2.581923805480269
2025-03-24 17:11:23.933,3.254642571488087
2025-03-24 17:11:23.942,-0.9832902802152618
2025-03-24 17:11:23.943,-5.9252501636836845
2025-03-24 17:11:23.943,-4.96279922410973
2025-03-24 17:11:23.943,2.152497112151444
2025-03-24 17:11:23.943,7.645884268643543
2025-03-24 17:11:23.952,4.428279121042902
2025-03-24 17:11:23.953,-4.762828423823422
2025-03-24 17:11:23.953,-9.556442339939734
2025-03-24 17:11:23.953,-3.806243306317858
2025-03-24 17:11:23.953,6.9977257172838865
2025-03-24 17:11:23.961,11.677351064633479
2025-03-24 17:11:23.961,5.294850465900713
2025-03-24 17:11:23.961,-6.346883360629211
2025-03-24 17:11:23.961,-12.878021733543298
2025-03-24 17:11:23.962,-8.542381994465856
2025-03-24 17:11:23.971,3.3151728739060626
2025-03-24 17:11:23.971,12.74712350690856
2025-03-24 17:11:23.971,11.173049726953622
2025-03-24 17:11:23.971,-0.5077537123646144
2025-03-24 17:11:23.979,-11.664415497196625
2025-03-24 17:11:23.979,-11.760566825266398
2025-03-24 17:11:23.979,-0.9485563595767121
2025-03-24 17:11:23.979,10.089692071126729
2025-03-24 17:11:23.980,10.898807444008003
2025-03-24 17:11:23.989,1.3793287585563023
2025-03-24 17:11:23.989,-8.404159525840797
2025-03-24 17:11:23.989,-8.50304092981737
2025-03-24 17:11:23.989,0.14325862581221727
2025-03-24 17:11:23.999,6.394424179526726
2025-03-24 17:11:23.999,2.506826441394418
2025-03-24 17:11:23.999,-5.029353919224716
2025-03-24 17:11:23.999,-3.5456842828100776
2025-03-24 17:11:23.999,7.169493714264805
2025-03-24 17:11:24.008,12.033206473393108
2025-03-24 17:11:24.009,0.7848519146231958
2025-03-24 17:11:24.009,-15.60358629778689
2025-03-24 17:11:24.009,-16.961784865038805
2025-03-24 17:11:24.009,-0.029719922071445803
2025-03-24 17:11:24.017,16.67905350808617
2025-03-24 17:11:24.017,15.879137771851132
2025-03-24 17:11:24.017,1.3739789094835055
2025-03-24 17:11:24.017,-9.770988114968924
2025-03-24 17:11:24.017,-8.88682444321791
2025-03-24 17:11:24.028,-2.3652263964578784
2025-03-24 17:11:24.029,0.8309925050458975
2025-03-24 17:11:24.029,0.35169942414380945
2025-03-24 17:11:24.029,1.0757421374772795
2025-03-24 17:11:24.029,3.9646377472959635
2025-03-24 17:11:24.037,4.893884456088395
2025-03-24 17:11:24.037,1.2897858064660959
2025-03-24 17:11:24.037,-3.784828001940051
2025-03-24 17:11:24.037,-5.2472226723626285
2025-03-24 17:11:24.037,-2.0677379123478516
2025-03-24 17:11:24.048,1.7608981778116013
2025-03-24 17:11:24.049,2.278032223961437
2025-03-24 17:11:24.049,0.33325588049399807
2025-03-24 17:11:24.049,-0.0888432494147479
2025-03-24 17:11:24.049,1.9309031863295478
2025-03-24 17:11:24.057,2.3311689546600762
2025-03-24 17:11:24.057,-1.7076096282424298
2025-03-24 17:11:24.057,-5.940810637688894
2025-03-24 17:11:24.057,-3.6585562803614247
2025-03-24 17:11:24.057,4.131158850650275
2025-03-24 17:11:24.067,8.12759846569646
2025-03-24 17:11:24.067,2.7335838282241802
2025-03-24 17:11:24.067,-5.584732669327315
2025-03-24 17:11:24.067,-6.496903251020289
2025-03-24 17:11:24.067,0.03323094826030443
2025-03-24 17:11:24.078,3.9774234533367516
2025-03-24 17:11:24.079,0.10102211402176747
2025-03-24 17:11:24.079,-4.118217075462568
2025-03-24 17:11:24.079,0.22791598075640457
2025-03-24 17:11:24.079,8.972596217508311
2025-03-24 17:11:24.086,8.949839422343837
2025-03-24 17:11:24.087,-3.680797171736069
2025-03-24 17:11:24.087,-16.03063160344304
2025-03-24 17:11:24.087,-13.044608711844244
2025-03-24 17:11:24.096,3.959796561904559
2025-03-24 17:11:24.097,17.73814213622837
2025-03-24 17:11:24.097,14.023595779117787
2025-03-24 17:11:24.097,-2.8540100475056462
2025-03-24 17:11:24.097,-14.879963042759401
2025-03-24 17:11:24.105,-10.224859973984993
2025-03-24 17:11:24.105,3.9511597353986745
2025-03-24 17:11:24.105,10.4657286331278
2025-03-24 17:11:24.105,2.735597238077581
2025-03-24 17:11:24.114,-7.77637188051067
2025-03-24 17:11:24.115,-6.718197989872835
2025-03-24 17:11:24.115,4.613092533519916
2025-03-24 17:11:24.115,11.249168053379886
2025-03-24 17:11:24.115,4.1693996617438245
2025-03-24 17:11:24.124,-8.23645608186
2025-03-24 17:11:24.125,-11.2486326231216
2025-03-24 17:11:24.125,-2.1748957950587937
2025-03-24 17:11:24.125,7.526566242216995
2025-03-24 17:11:24.125,7.463342460868329
2025-03-24 17:11:24.134,0.195732356874613
2025-03-24 17:11:24.135,-4.290197537980546
2025-03-24 17:11:24.135,-2.061852009949206
2025-03-24 17:11:24.135,1.4144631233393505
2025-03-24 17:11:24.135,0.5849411666936288
2025-03-24 17:11:24.144,-2.49918342663
2025-03-24 17:11:24.145,-2.226429238393589
2025-03-24 17:11:24.145,1.9324563381914255
2025-03-24 17:11:24.145,4.777567761381918
2025-03-24 17:11:24.145,2.7238802537262723
2025-03-24 17:11:24.154,-1.8311329757005617
2025-03-24 17:11:24.155,-4.338601571927279
2025-03-24 17:11:24.155,-3.5062238023021757
2025-03-24 17:11:24.155,-1.1634897979591063
2025-03-24 17:11:24.155,1.3301490556247852
2025-03-24 17:11:24.164,3.922942089290333
2025-03-24 17:11:24.164,5.479744359854441
2025-03-24 17:11:24.165,3.38610246531257
2025-03-24 17:11:24.165,-2.7205225150566057
2025-03-24 17:11:24.165,-8.280572351851314
2025-03-24 17:11:24.174,-7.520869454196134
2025-03-24 17:11:24.175,-0.19766623689031426
2025-03-24 17:11:24.175,7.2783223623634505
2025-03-24 17:11:24.175,8.385240400222935
2025-03-24 17:11:24.175,3.0161776068936934
2025-03-24 17:11:24.183,-3.259116358240313
2025-03-24 17:11:24.183,-5.407966982651917
2025-03-24 17:11:24.183,-3.3469227847511243
2025-03-24 17:11:24.183,-0.5079801231088221
2025-03-24 17:11:24.193,0.7849633269183901
2025-03-24 17:11:24.193,1.3576710384337147
2025-03-24 17:11:24.193,2.4455070309671623
2025-03-24 17:11:24.193,2.6316647703049867
2025-03-24 17:11:24.193,-0.21124109221087414
2025-03-24 17:11:24.203,-4.2850243411137
2025-03-24 17:11:24.203,-4.287051576681792
2025-03-24 17:11:24.203,1.7551805541986858
2025-03-24 17:11:24.203,8.030343681031013
2025-03-24 17:11:24.203,6.2840781135435595
2025-03-24 17:11:24.212,-3.9968877552183435
2025-03-24 17:11:24.213,-12.888735619440224
2025-03-24 17:11:24.213,-9.719619681557772
2025-03-24 17:11:24.213,4.367994431516176
2025-03-24 17:11:24.213,15.683065304575706
2025-03-24 17:11:24.221,12.046153739051032
2025-03-24 17:11:24.221,-3.1526237110171786
2025-03-24 17:11:24.221,-14.031377837862788
2025-03-24 17:11:24.221,-10.097799106705487
2025-03-24 17:11:24.231,2.2869552083158204
2025-03-24 17:11:24.231,8.781264886858416
2025-03-24 17:11:24.231,4.465803420523065
2025-03-24 17:11:24.231,-2.2979073980440368
2025-03-24 17:11:24.231,-2.772529960093017
2025-03-24 17:11:24.241,1.1172644984862137
2025-03-24 17:11:24.241,1.7297193990934248
2025-03-24 17:11:24.241,-2.202206738495569
2025-03-24 17:11:24.241,-4.0065259843569185
2025-03-24 17:11:24.241,0.4997307615088874
2025-03-24 17:11:24.250,6.111915601944311
2025-03-24 17:11:24.251,4.7993199068431815
2025-03-24 17:11:24.251,-3.2216059253084657
2025-03-24 17:11:24.251,-8.875870251314069
2025-03-24 17:11:24.251,-5.189585253211488
2025-03-24 17:11:24.260,4.056338193026052
2025-03-24 17:11:24.261,8.948767441784101
2025-03-24 17:11:24.261,5.315306418221111
2025-03-24 17:11:24.261,-1.4290071270147227
2025-03-24 17:11:24.261,-4.6307858413007175
2025-03-24 17:11:24.270,-4.398389652023589
2025-03-24 17:11:24.271,-4.2375066608924135
2025-03-24 17:11:24.271,-3.205522415367015
2025-03-24 17:11:24.271,2.5141488712493794
2025-03-24 17:11:24.271,10.399048120490606
2025-03-24 17:11:24.278,10.799631781656373
2025-03-24 17:11:24.279,-0.6344363257444425
2025-03-24 17:11:24.279,-14.030713530227088
2025-03-24 17:11:24.279,-14.674303151326079
2025-03-24 17:11:24.288,-0.5602429099490871
2025-03-24 17:11:24.289,14.269693586688355
2025-03-24 17:11:24.289,14.990479961411229
2025-03-24 17:11:24.289,1.473606157996274
2025-03-24 17:11:24.289,-12.706880521267042
2025-03-24 17:11:24.297,-14.472088638591817
2025-03-24 17:11:24.297,-3.1080424076664044
2025-03-24 17:11:24.297,10.389156560716145
2025-03-24 17:11:24.297,14.076580392866397
2025-03-24 17:11:24.306,5.589410184172469
2025-03-24 17:11:24.307,-6.65627407095724
2025-03-24 17:11:24.307,-11.96678605981351
2025-03-24 17:11:24.307,-7.100345828145566
2025-03-24 17:11:24.307,1.9345243732657222
2025-03-24 17:11:24.316,6.9139375945026575
2025-03-24 17:11:24.316,5.387510850771037
2025-03-24 17:11:24.317,1.415063262010681
2025-03-24 17:11:24.317,-0.6419256363225161
2025-03-24 17:11:24.317,-1.0137629724179684
2025-03-24 17:11:24.326,-2.2178305140656067
2025-03-24 17:11:24.327,-3.8051570821544223
2025-03-24 17:11:24.327,-2.524738355728912
2025-03-24 17:11:24.327,2.0286253662560756
2025-03-24 17:11:24.327,5.123402597469997
2025-03-24 17:11:24.336,2.5610548335314
2025-03-24 17:11:24.337,-3.0100331031122423
2025-03-24 17:11:24.337,-4.538250242318665
2025-03-24 17:11:24.337,0.40353613559040863
2025-03-24 17:11:24.337,5.72107365818623
2025-03-24 17:11:24.345,3.9248194359888746
2025-03-24 17:11:24.345,-4.035822345140179
2025-03-24 17:11:24.345,-8.898710247074797
2025-03-24 17:11:24.345,-3.97376227825914
2025-03-24 17:11:24.346,6.240318487396727
2025-03-24 17:11:24.355,10.657352921234667
2025-03-24 17:11:24.355,4.2527233697948885
2025-03-24 17:11:24.355,-6.27669123252313
2025-03-24 17:11:24.355,-10.162139210560282
2025-03-24 17:11:24.364,-4.1368694954980185
2025-03-24 17:11:24.365,4.9340053536955715
2025-03-24 17:11:24.365,8.085194847330987
2025-03-24 17:11:24.365,3.3422309985865377
2025-03-24 17:11:24.365,-3.389800589469218
2025-03-24 17:11:24.374,-5.376233418565715
2025-03-24 17:11:24.375,-1.8880769960945596
2025-03-24 17:11:24.375,2.1409900269236526
2025-03-24 17:11:24.375,2.369913341777917
2025-03-24 17:11:24.375,-0.2786219803920036
2025-03-24 17:11:24.384,-1.5468729889040485
2025-03-24 17:11:24.385,0.5291640577897555
2025-03-24 17:11:24.385,3.1687121918005072
2025-03-24 17:11:24.385,2.3294560407750597
2025-03-24 17:11:24.385,-2.118676361542241
2025-03-24 17:11:24.394,-5.74782862674349
2025-03-24 17:11:24.395,-4.412828064779878
2025-03-24 17:11:24.395,1.0670067041681146
2025-03-24 17:11:24.395,5.870857567500042
2025-03-24 17:11:24.395,6.236376637666454
2025-03-24 17:11:24.404,2.4576573207089734
2025-03-24 17:11:24.405,-2.5858838115223923
2025-03-24 17:11:24.405,-6.027436746203629
2025-03-24 17:11:24.405,-5.9710001898837755
2025-03-24 17:11:24.405,-2.0580639097847433
2025-03-24 17:11:24.414,3.456074768171948
2025-03-24 17:11:24.414,6.459081675446573
2025-03-24 17:11:24.415,4.591056469779515
2025-03-24 17:11:24.415,-0.15898456362229688
2025-03-24 17:11:24.415,-3.577903704930831
2025-03-24 17:11:24.424,-3.599539357753183
2025-03-24 17:11:24.425,-1.5311566370824112
2025-03-24 17:11:24.425,0.4541967021521718
2025-03-24 17:11:24.425,1.353037467921189
2025-03-24 17:11:24.425,0.9706378895082718
2025-03-24 17:11:24.434,-0.4024749334342722
2025-03-24 17:11:24.435,-1.252087736152371
2025-03-24 17:11:24.435,0.22689921043767014
2025-03-24 17:11:24.435,3.1149207644208228
2025-03-24 17:11:24.435,3.5314269403405163
2025-03-24 17:11:24.443,-0.49360177987357085
2025-03-24 17:11:24.443,-5.250078011288137
2025-03-24 17:11:24.443,-5.1661910188585995
2025-03-24 17:11:24.443,0.01800733581711239
2025-03-24 17:11:24.444,4.698562485603999
2025-03-24 17:11:24.453,4.395389358862726
2025-03-24 17:11:24.453,0.5737990480968671
2025-03-24 17:11:24.453,-2.525380941232766
2025-03-24 17:11:24.453,-3.111419317454841
2025-03-24 17:11:24.463,-1.9063565316646711
2025-03-24 17:11:24.463,0.5885235850339127
2025-03-24 17:11:24.463,3.704760765763353
2025-03-24 17:11:24.463,4.677834593666348
2025-03-24 17:11:24.463,0.8570300015311633
2025-03-24 17:11:24.464,-5.500303804932961
2025-03-24 17:11:24.473,-7.707795594997205
2025-03-24 17:11:24.473,-2.101679252344453
2025-03-24 17:11:24.473,6.359644519140499
2025-03-24 17:11:24.474,8.605360003763268
2025-03-24 17:11:24.474,1.9662040517599593
2025-03-24 17:11:24.483,-6.09345027146305
2025-03-24 17:11:24.483,-6.5013334577791895
2025-03-24 17:11:24.483,0.6099326656166775
2025-03-24 17:11:24.484,6.2489654236453465
2025-03-24 17:11:24.484,3.5821839708050156
2025-03-24 17:11:24.493,-4.064698077200657
2025-03-24 17:11:24.493,-7.520060585841967
2025-03-24 17:11:24.493,-2.5755329778615863
2025-03-24 17:11:24.493,5.45083836161221
2025-03-24 17:11:24.502,8.131319512181179
2025-03-24 17:11:24.503,3.378132564590384
2025-03-24 17:11:24.503,-3.132609650316634
2025-03-24 17:11:24.503,-5.501257288339292
2025-03-24 17:11:24.503,-3.850164399791547
2025-03-24 17:11:24.513,-1.713410031720495
2025-03-24 17:11:24.513,-0.051447877327681954
2025-03-24 17:11:24.513,2.6391636991333773
2025-03-24 17:11:24.513,5.500830992542359
2025-03-24 17:11:24.513,4.915563453623655
2025-03-24 17:11:24.522,-0.12369407059147547
2025-03-24 17:11:24.523,-5.426083375386256
2025-03-24 17:11:24.523,-6.165843008256581
2025-03-24 17:11:24.523,-2.2081664612765297
2025-03-24 17:11:24.523,2.5162771251204834
2025-03-24 17:11:24.532,4.459208817789561
2025-03-24 17:11:24.533,2.974681712232333
2025-03-24 17:11:24.533,-0.22349198619681493
2025-03-24 17:11:24.533,-2.537761068838062
2025-03-24 17:11:24.533,-2.1989735140560245
2025-03-24 17:11:24.542,0.13609917090910456
2025-03-24 17:11:24.543,1.844619179878699
2025-03-24 17:11:24.543,1.1987100520008713
2025-03-24 17:11:24.543,-0.7020596865632335
2025-03-24 17:11:24.543,-1.500721853745532
2025-03-24 17:11:24.551,-0.5367658031762184
2025-03-24 17:11:24.551,0.5768686160997236
2025-03-24 17:11:24.551,0.22854104408209258
2025-03-24 17:11:24.551,-0.9706144632920424
2025-03-24 17:11:24.552,-0.7712668760685086
2025-03-24 17:11:24.561,1.6873574406107468
2025-03-24 17:11:24.561,3.9557077182710962
2025-03-24 17:11:24.561,2.5112470219223777
2025-03-24 17:11:24.561,-2.674880542749695
2025-03-24 17:11:24.562,-6.857258311048597
2025-03-24 17:11:24.571,-5.085100075660877
2025-03-24 17:11:24.571,1.949931856176839
2025-03-24 17:11:24.571,7.7598783930116
2025-03-24 17:11:24.571,6.558016224959136
2025-03-24 17:11:24.572,-0.49859067750549896
2025-03-24 17:11:24.581,-6.442541351986327
2025-03-24 17:11:24.581,-5.860176585282644
2025-03-24 17:11:24.581,-0.25113287074876706
2025-03-24 17:11:24.581,4.273609188166874
2025-03-24 17:11:24.591,3.7416703640946456
2025-03-24 17:11:24.591,-0.1571774978032492
2025-03-24 17:11:24.591,-2.851267273405719
2025-03-24 17:11:24.591,-1.8416076077550838
2025-03-24 17:11:24.591,1.4204276188180764
2025-03-24 17:11:24.600,3.338120060377947
2025-03-24 17:11:24.601,1.2872301493851044
2025-03-24 17:11:24.601,-3.621729775780005
2025-03-24 17:11:24.601,-6.227915570600028
2025-03-24 17:11:24.601,-1.9878918697784769
2025-03-24 17:11:24.610,6.490137893836792
2025-03-24 17:11:24.610,10.122616907468977
2025-03-24 17:11:24.611,3.423613984559253
2025-03-24 17:11:24.611,-7.789325204167715
2025-03-24 17:11:24.611,-12.10363361705368
2025-03-24 17:11:24.619,-5.342435028456969
2025-03-24 17:11:24.619,5.335309503167289
2025-03-24 17:11:24.619,10.176383348916117
2025-03-24 17:11:24.619,6.720795865828578
2025-03-24 17:11:24.620,-0.01486842154681417
2025-03-24 17:11:24.629,-4.573932068212069
2025-03-24 17:11:24.629,-5.727868768882508
2025-03-24 17:11:24.629,-4.874907142203311
2025-03-24 17:11:24.629,-2.5522547706393466
2025-03-24 17:11:24.639,1.7511563027740094
2025-03-24 17:11:24.639,6.792607625646629
2025-03-24 17:11:24.639,8.449317810358338
2025-03-24 17:11:24.639,3.30640437280343
2025-03-24 17:11:24.639,-6.1492499965406955
2025-03-24 17:11:24.648,-11.610620326586343
2025-03-24 17:11:24.649,-6.594329771036513
2025-03-24 17:11:24.649,5.496049021238186
2025-03-24 17:11:24.649,12.866472970830461
2025-03-24 17:11:24.649,7.067892725054721
2025-03-24 17:11:24.657,-6.8203554889809315
2025-03-24 17:11:24.657,-14.070455384401804
2025-03-24 17:11:24.657,-6.05955528019805
2025-03-24 17:11:24.657,9.277093592254008
2025-03-24 17:11:24.658,15.401697738981982
2025-03-24 17:11:24.667,5.489306779835218
2025-03-24 17:11:24.667,-9.94271780908013
2025-03-24 17:11:24.667,-14.910717060891827
2025-03-24 17:11:24.667,-5.387170392424015
2025-03-24 17:11:24.677,7.448607595335426
2025-03-24 17:11:24.677,10.718542501478
2025-03-24 17:11:24.677,3.690274440149805
2025-03-24 17:11:24.677,-3.579457513273391
2025-03-24 17:11:24.677,-3.559582087859303
2025-03-24 17:11:24.686,0.5478491069268685
2025-03-24 17:11:24.687,1.0476021785378093
2025-03-24 17:11:24.687,-3.092728605820049
2025-03-24 17:11:24.687,-5.212210686188256
2025-03-24 17:11:24.687,-0.7131424783491265
2025-03-24 17:11:24.696,6.111302075902986
2025-03-24 17:11:24.697,7.291675658196917
2025-03-24 17:11:24.697,1.2320813711227396
2025-03-24 17:11:24.697,-5.439798930414355
2025-03-24 17:11:24.697,-5.981087696229939
2025-03-24 17:11:24.706,-1.0045616646609186
2025-03-24 17:11:24.707,3.32638860193074
2025-03-24 17:11:24.707,3.0191501237265763
2025-03-24 17:11:24.707,0.0835613557231803
2025-03-24 17:11:24.707,-1.354828502095715
2025-03-24 17:11:24.717,-0.5661998086482215
2025-03-24 17:11:24.717,-0.001185760159332791
2025-03-24 17:11:24.717,-0.640060635165621
2025-03-24 17:11:24.717,-0.49280718161775583
2025-03-24 17:11:24.717,1.486347227975424
2025-03-24 17:11:24.726,2.700852023658138
2025-03-24 17:11:24.727,0.4422014401823819
2025-03-24 17:11:24.727,-3.349578493653387
2025-03-24 17:11:24.727,-3.7861377853508316
2025-03-24 17:11:24.727,0.38918756107743985
2025-03-24 17:11:24.735,4.434780807122248
2025-03-24 17:11:24.735,3.2168535083245553
2025-03-24 17:11:24.735,-2.157140813370866
2025-03-24 17:11:24.736,-5.222482183839713
2025-03-24 17:11:24.736,-1.797067128679776
2025-03-24 17:11:24.745,4.691559584917675
2025-03-24 17:11:24.745,6.672267469673637
2025-03-24 17:11:24.745,1.0358508535515565
2025-03-24 17:11:24.745,-6.798715912145223
2025-03-24 17:11:24.745,-8.298467218148927
2025-03-24 17:11:24.755,-1.2378692438852141
2025-03-24 17:11:24.755,7.281162746951895
2025-03-24 17:11:24.755,8.235167809332436
2025-03-24 17:11:24.755,0.812668501551676
2025-03-24 17:11:24.756,-6.464497565233087
2025-03-24 17:11:24.765,-5.595396927175903
2025-03-24 17:11:24.765,1.4992012399574093
2025-03-24 17:11:24.765,5.65096705305867
2025-03-24 17:11:24.766,2.003711794905152
2025-03-24 17:11:24.766,-4.233985621988848
2025-03-24 17:11:24.775,-5.052445456577816
2025-03-24 17:11:24.775,0.07218429955804728
2025-03-24 17:11:24.775,4.447107497445721
2025-03-24 17:11:24.775,3.5567761268316875
2025-03-24 17:11:24.776,0.03849805088133723
2025-03-24 17:11:24.784,-1.5140272049107062
2025-03-24 17:11:24.785,-0.8256384817103317
2025-03-24 17:11:24.785,-0.5810260344705689
2025-03-24 17:11:24.785,-1.4608009826759183
2025-03-24 17:11:24.795,-1.6838643452342321
2025-03-24 17:11:24.795,-0.39548881142468295
2025-03-24 17:11:24.795,1.1956884161371057
2025-03-24 17:11:24.795,1.905863142895545
2025-03-24 17:11:24.795,1.9086754671525568
2025-03-24 17:11:24.804,1.7419550777660493
2025-03-24 17:11:24.805,1.1267084217362353
2025-03-24 17:11:24.805,-0.726210963202551
2025-03-24 17:11:24.805,-3.7357527861590034
2025-03-24 17:11:24.805,-5.88755255389188
2025-03-24 17:11:24.815,-4.14800125494235
2025-03-24 17:11:24.815,2.2311723696497423
2025-03-24 17:11:24.815,9.042463843958997
2025-03-24 17:11:24.815,9.564999874797385
2025-03-24 17:11:24.815,1.5815098266190821
2025-03-24 17:11:24.825,-8.614111604338698
2025-03-24 17:11:24.825,-11.488665161745935
2025-03-24 17:11:24.825,-4.292271886851959
2025-03-24 17:11:24.825,5.721066618254111
2025-03-24 17:11:24.825,9.079741520406051
2025-03-24 17:11:24.834,3.9421261515429116
2025-03-24 17:11:24.835,-2.987856400928931
2025-03-24 17:11:24.835,-4.59472198144653
2025-03-24 17:11:24.835,-0.9053294633713422
2025-03-24 17:11:24.835,1.9885337798045855
2025-03-24 17:11:24.844,-0.014307792270740277
2025-03-24 17:11:24.845,-3.5697458116918845
2025-03-24 17:11:24.845,-2.252918409324399
2025-03-24 17:11:24.845,4.09382927126638
2025-03-24 17:11:24.845,7.712734475269231
2025-03-24 17:11:24.853,2.646469031730723
2025-03-24 17:11:24.853,-6.545969379338551
2025-03-24 17:11:24.853,-9.508964221039044
2025-03-24 17:11:24.853,-2.810350889102016
2025-03-24 17:11:24.854,5.942867364881
2025-03-24 17:11:24.863,7.745437154272698
2025-03-24 17:11:24.863,2.6268681370467197
2025-03-24 17:11:24.863,-2.2385248313133963
2025-03-24 17:11:24.863,-2.759544721406778
2025-03-24 17:11:24.873,-1.8906108608582457
2025-03-24 17:11:24.873,-2.765620144265372
2025-03-24 17:11:24.873,-2.6888764063905124
2025-03-24 17:11:24.873,1.7834757019640113
2025-03-24 17:11:24.873,6.616629027996466
2025-03-24 17:11:24.883,3.9930184024054642
2025-03-24 17:11:24.883,-4.9590467130802764
2025-03-24 17:11:24.883,-8.35814980947732
2025-03-24 17:11:24.883,0.7743245423238712
2025-03-24 17:11:24.883,12.249714138404673
2025-03-24 17:11:24.891,9.666716079653023
2025-03-24 17:11:24.891,-7.481952899564071
2025-03-24 17:11:24.891,-20.31566797615009
2025-03-24 17:11:24.892,-12.333861942558576
2025-03-24 17:11:24.892,10.028974665262593
2025-03-24 17:11:24.901,23.680261669320444
2025-03-24 17:11:24.901,14.696001271592948
2025-03-24 17:11:24.901,-6.7628586912979545
2025-03-24 17:11:24.901,-19.048092343862514
2025-03-24 17:11:24.911,-12.979330572387887
2025-03-24 17:11:24.911,1.0047325140237073
2025-03-24 17:11:24.911,8.313857678760815
2025-03-24 17:11:24.911,6.527396283093015
2025-03-24 17:11:24.911,3.1547162269715727
2025-03-24 17:11:24.921,2.2728408319905222
2025-03-24 17:11:24.921,0.5503481709150388
2025-03-24 17:11:24.921,-4.013690082491699
2025-03-24 17:11:24.921,-6.770931838736577
2025-03-24 17:11:24.921,-3.4218668056145516
2025-03-24 17:11:24.931,2.43136042469131
2025-03-24 17:11:24.931,3.9233007537304094
2025-03-24 17:11:24.931,0.87359174795295
2025-03-24 17:11:24.931,-0.4758759811754058
2025-03-24 17:11:24.931,2.4648211387651555
2025-03-24 17:11:24.940,4.335087488131867
2025-03-24 17:11:24.941,-0.058999602326005984
2025-03-24 17:11:24.941,-7.229043648054264
2025-03-24 17:11:24.941,-8.509472899577249
2025-03-24 17:11:24.941,-0.9832046859408614
2025-03-24 17:11:24.950,8.309607759820832
2025-03-24 17:11:24.951,9.85015582157179
2025-03-24 17:11:24.951,1.9700218315589377
2025-03-24 17:11:24.951,-7.232687955077144
2025-03-24 17:11:24.951,-8.41479243346915
2025-03-24 17:11:24.959,-1.0938958991281913
2025-03-24 17:11:24.959,5.8947316929112095
2025-03-24 17:11:24.959,4.809853889762043
2025-03-24 17:11:24.959,-1.8131296462199498
2025-03-24 17:11:24.960,-4.869172458954075
2025-03-24 17:11:24.969,-0.5995467933907243
2025-03-24 17:11:24.969,4.996602275375893
2025-03-24 17:11:24.969,4.561880536249161
2025-03-24 17:11:24.969,-1.3981901008813935
2025-03-24 17:11:24.979,-6.175409170524531
2025-03-24 17:11:24.979,-5.369424060534991
2025-03-24 17:11:24.979,-0.6079936841350325
2025-03-24 17:11:24.979,4.09741275405285
2025-03-24 17:11:24.979,6.303608864291597
2025-03-24 17:11:24.989,5.167913292061688
2025-03-24 17:11:24.989,0.6731248486513506
2025-03-24 17:11:24.989,-5.283877528385126
2025-03-24 17:11:24.989,-8.588024218044406
2025-03-24 17:11:24.989,-5.948375399966778
2025-03-24 17:11:24.999,1.4588937995402564
2025-03-24 17:11:24.999,8.249743129181851
2025-03-24 17:11:24.999,9.195480532396312
2025-03-24 17:11:24.999,3.5841402213651437
2025-03-24 17:11:24.999,-4.304926783127421
2025-03-24 17:11:25.009,-8.864809981332495
2025-03-24 17:11:25.009,-7.480285209557075
2025-03-24 17:11:25.009,-1.6428672165970093
2025-03-24 17:11:25.009,5.101787945200467
2025-03-24 17:11:25.009,9.118831568070185
2025-03-24 17:11:25.018,7.532945929841142
2025-03-24 17:11:25.019,0.09103184823679078
2025-03-24 17:11:25.019,-8.579833577597213
2025-03-24 17:11:25.019,-11.032805907948465
2025-03-24 17:11:25.019,-4.10812409373915
2025-03-24 17:11:25.028,6.499448094193053
2025-03-24 17:11:25.029,11.058681578726127
2025-03-24 17:11:25.029,5.708219253855858
2025-03-24 17:11:25.029,-3.763011913417146
2025-03-24 17:11:25.029,-8.444794590401102
2025-03-24 17:11:25.039,-5.3317109484188725
2025-03-24 17:11:25.039,0.9827649846563776
2025-03-24 17:11:25.039,4.45305686555189
2025-03-24 17:11:25.039,3.6243903368164014
2025-03-24 17:11:25.039,1.3250849269116487
2025-03-24 17:11:25.047,-0.02052643579313661
2025-03-24 17:11:25.047,-0.9179303573835781
2025-03-24 17:11:25.047,-2.454022463870595
2025-03-24 17:11:25.047,-3.3275659642327104
2025-03-24 17:11:25.057,-1.3807650216904985
2025-03-24 17:11:25.057,2.275580248877064
2025-03-24 17:11:25.057,3.5069753279172264
2025-03-24 17:11:25.057,0.8419798037963832
2025-03-24 17:11:25.058,-1.6833917733966628
2025-03-24 17:11:25.067,-0.0644909873582929
2025-03-24 17:11:25.067,3.150307896022307
2025-03-24 17:11:25.067,1.8278016258019825
2025-03-24 17:11:25.067,-4.419977739784548
2025-03-24 17:11:25.067,-8.092687350836009
2025-03-24 17:11:25.077,-3.072831561904877
2025-03-24 17:11:25.077,6.633939615731818
2025-03-24 17:11:25.077,10.639101787012152
2025-03-24 17:11:25.077,4.287586970754173
2025-03-24 17:11:25.077,-5.6975463680294895
2025-03-24 17:11:25.087,-9.005241975557404
2025-03-24 17:11:25.087,-3.540093486333011
2025-03-24 17:11:25.087,3.054948109824206
2025-03-24 17:11:25.087,3.6340426123736917
2025-03-24 17:11:25.087,0.16010956915150892
2025-03-24 17:11:25.097,-0.3653988316538733
2025-03-24 17:11:25.097,3.3427452360039247
2025-03-24 17:11:25.097,4.578704817502767
2025-03-24 17:11:25.097,-1.533450760612802
2025-03-24 17:11:25.097,-9.527952102534737
2025-03-24 17:11:25.106,-8.958037985685362
2025-03-24 17:11:25.107,2.1647232081775747
2025-03-24 17:11:25.107,13.180784648752063
2025-03-24 17:11:25.107,12.053740089547919
2025-03-24 17:11:25.107,-1.0325641507324153
2025-03-24 17:11:25.115,-13.498286880382162
2025-03-24 17:11:25.115,-13.32476961990315
2025-03-24 17:11:25.115,-0.994259774485666
2025-03-24 17:11:25.115,11.274168603744405
2025-03-24 17:11:25.125,11.734912824324763
2025-03-24 17:11:25.125,0.9240947882067209
2025-03-24 17:11:25.125,-8.863613445513026
2025-03-24 17:11:25.125,-6.852564749831071
2025-03-24 17:11:25.125,3.733063154513918
2025-03-24 17:11:25.133,8.706643433103444
2025-03-24 17:11:25.133,0.04077175806114841
2025-03-24 17:11:25.133,-12.246453817591606
2025-03-24 17:11:25.134,-10.384871331977955
2025-03-24 17:11:25.134,7.4918185321631885
2025-03-24 17:11:25.143,20.566983249591765
2025-03-24 17:11:25.143,9.626189953846533
2025-03-24 17:11:25.143,-15.520177220288815
2025-03-24 17:11:25.143,-24.342561400726808
2025-03-24 17:11:25.151,-3.6810414517837984
2025-03-24 17:11:25.151,23.278238577223917
2025-03-24 17:11:25.151,23.85155752792896
2025-03-24 17:11:25.151,-4.3185277596098
2025-03-24 17:11:25.160,-29.747626768596977
2025-03-24 17:11:25.161,-23.381489322165233
2025-03-24 17:11:25.161,8.758710895108221
2025-03-24 17:11:25.161,33.045245252524815
2025-03-24 17:11:25.161,25.103967024804586
2025-03-24 17:11:25.169,-5.8928397931583065
2025-03-24 17:11:25.169,-29.771153086729615
2025-03-24 17:11:25.169,-26.815444238330944
2025-03-24 17:11:25.169,-3.517235590214776
2025-03-24 17:11:25.177,18.757353755898148
2025-03-24 17:11:25.177,24.365432340584896
2025-03-24 17:11:25.177,13.048560043897048
2025-03-24 17:11:25.178,-4.32154154418801
2025-03-24 17:11:25.178,-15.520415299769926
2025-03-24 17:11:25.187,-14.977824346963317
2025-03-24 17:11:25.187,-6.18392337061427
2025-03-24 17:11:25.187,2.9039597350665733
2025-03-24 17:11:25.188,7.470221296805633
2025-03-24 17:11:25.197,8.39828276676988
2025-03-24 17:11:25.197,7.5385819435353145
2025-03-24 17:11:25.197,3.620944011520462
2025-03-24 17:11:25.197,-4.342261178914653
2025-03-24 17:11:25.197,-11.650638217371895
2025-03-24 17:11:25.206,-10.695222404752048
2025-03-24 17:11:25.207,-0.43894495747933854
2025-03-24 17:11:25.207,10.189638469884466
2025-03-24 17:11:25.207,11.139444988522381
2025-03-24 17:11:25.207,2.276472175354944
2025-03-24 17:11:25.215,-6.802053158463918
2025-03-24 17:11:25.215,-7.656650375379767
2025-03-24 17:11:25.215,-1.430820035471525
2025-03-24 17:11:25.215,4.119768179459532
2025-03-24 17:11:25.216,3.8621763029775735
2025-03-24 17:11:25.225,-0.2120949166544835
2025-03-24 17:11:25.225,-2.7408145792215177
2025-03-24 17:11:25.225,-1.2082514515266332
2025-03-24 17:11:25.225,1.9541701542591903
2025-03-24 17:11:25.234,2.5185813133091948
2025-03-24 17:11:25.235,-0.6788312946792285
2025-03-24 17:11:25.235,-4.041170124578463
2025-03-24 17:11:25.235,-3.026929632068865
2025-03-24 17:11:25.235,2.1206114878884397
2025-03-24 17:11:25.244,5.7925596896282086
2025-03-24 17:11:25.245,3.335134064764689
2025-03-24 17:11:25.245,-2.966157286311072
2025-03-24 17:11:25.245,-6.003917146388109
2025-03-24 17:11:25.245,-2.161423900501375
2025-03-24 17:11:25.254,4.014091087044527
2025-03-24 17:11:25.255,4.831779993087272
2025-03-24 17:11:25.255,-1.1712040229926672
2025-03-24 17:11:25.255,-6.706179499350815
2025-03-24 17:11:25.255,-3.9868591508150746
2025-03-24 17:11:25.263,5.333027968995534
2025-03-24 17:11:25.263,10.831956517558792
2025-03-24 17:11:25.263,4.959679295955016
2025-03-24 17:11:25.264,-7.577983878603619
2025-03-24 17:11:25.264,-14.091670772892165
2025-03-24 17:11:25.273,-7.421277981583163
2025-03-24 17:11:25.273,6.424367346143165
2025-03-24 17:11:25.273,14.506416620667908
2025-03-24 17:11:25.274,9.673498309434049
2025-03-24 17:11:25.282,-3.237340671889217
2025-03-24 17:11:25.283,-12.52976225829811
2025-03-24 17:11:25.283,-10.270893291939501
2025-03-24 17:11:25.283,0.8698913623578026
2025-03-24 17:11:25.283,10.140092292316146
2025-03-24 17:11:25.293,8.839725146118225
2025-03-24 17:11:25.293,-0.9104316717247974
2025-03-24 17:11:25.293,-8.258359129450499
2025-03-24 17:11:25.293,-5.614538457835023
2025-03-24 17:11:25.293,2.6763966385476436
2025-03-24 17:11:25.303,5.95416114993993
2025-03-24 17:11:25.303,0.7963576488726032
2025-03-24 17:11:25.303,-4.801977026817502
2025-03-24 17:11:25.303,-2.392471840138059
2025-03-24 17:11:25.303,5.132456812769142
2025-03-24 17:11:25.311,6.845201235014117
2025-03-24 17:11:25.311,-1.532714176444423
2025-03-24 17:11:25.311,-10.65444207945966
2025-03-24 17:11:25.312,-8.370448997182285
2025-03-24 17:11:25.321,4.334123674843237
2025-03-24 17:11:25.321,13.095977211005856
2025-03-24 17:11:25.321,7.5918164601851625
2025-03-24 17:11:25.321,-5.260129622214551
2025-03-24 17:11:25.321,-10.281677164538033
2025-03-24 17:11:25.331,-3.5124385020013764
2025-03-24 17:11:25.331,4.239074676508391
2025-03-24 17:11:25.331,3.521450788982924
2025-03-24 17:11:25.331,-1.7569456085857653
2025-03-24 17:11:25.331,-2.3200406093074153
2025-03-24 17:11:25.341,2.458446482382734
2025-03-24 17:11:25.341,5.0202656363449565
2025-03-24 17:11:25.341,1.4982447069736486
2025-03-24 17:11:25.341,-3.625448976481208
2025-03-24 17:11:25.341,-5.001367230007629
2025-03-24 17:11:25.350,-2.8673230137313253
2025-03-24 17:11:25.351,-0.051008223605189765
2025-03-24 17:11:25.351,2.8332027541400553
2025-03-24 17:11:25.351,5.657983408497823
2025-03-24 17:11:25.351,5.394330049143848
2025-03-24 17:11:25.359,-0.6230626443405252
2025-03-24 17:11:25.359,-8.4957708179254
2025-03-24 17:11:25.359,-9.553388371757851
2025-03-24 17:11:25.360,-0.564912916620699
2025-03-24 17:11:25.368,10.481275308600887
2025-03-24 17:11:25.369,11.93503125313027
2025-03-24 17:11:25.369,1.487240471585718
2025-03-24 17:11:25.369,-10.71513806382807
2025-03-24 17:11:25.369,-12.692588473739416
2025-03-24 17:11:25.378,-3.0141437207648667
2025-03-24 17:11:25.379,8.415642872387506
2025-03-24 17:11:25.379,11.079383563368726
2025-03-24 17:11:25.379,4.045963028457111
2025-03-24 17:11:25.379,-4.446251511886599
2025-03-24 17:11:25.387,-6.386934819155402
2025-03-24 17:11:25.387,-2.0700896001880658
2025-03-24 17:11:25.387,1.469433307191268
2025-03-24 17:11:25.387,-0.33072653266395047
2025-03-24 17:11:25.397,-3.638712171808773
2025-03-24 17:11:25.397,-1.4976882482724243
2025-03-24 17:11:25.397,5.891085308229757
2025-03-24 17:11:25.397,9.915859585081757
2025-03-24 17:11:25.398,4.159828266530499
2025-03-24 17:11:25.407,-6.848421001979151
2025-03-24 17:11:25.407,-12.418507158290682
2025-03-24 17:11:25.407,-7.543303903536259
2025-03-24 17:11:25.407,2.824288454234583
2025-03-24 17:11:25.407,10.088238835141771
2025-03-24 17:11:25.416,9.620897968269515
2025-03-24 17:11:25.417,2.7637266424516
2025-03-24 17:11:25.417,-5.35020432209765
2025-03-24 17:11:25.417,-9.121700651621126
2025-03-24 17:11:25.417,-6.117195296571043
2025-03-24 17:11:25.427,0.8574454319495958
2025-03-24 17:11:25.427,6.034842194742316
2025-03-24 17:11:25.427,5.987431419038236
2025-03-24 17:11:25.427,2.302497399117566
2025-03-24 17:11:25.427,-1.281937722287986
2025-03-24 17:11:25.436,-3.1919981516305005
2025-03-24 17:11:25.437,-4.139819238910554
2025-03-24 17:11:25.437,-3.888717580854323
2025-03-24 17:11:25.437,-0.710013736995643
2025-03-24 17:11:25.437,4.826992271737623
2025-03-24 17:11:25.445,7.912592791496144
2025-03-24 17:11:25.445,4.118118919288829
2025-03-24 17:11:25.445,-4.398394545212565
2025-03-24 17:11:25.445,-9.650805918446153
2025-03-24 17:11:25.446,-5.884140947924715
2025-03-24 17:11:25.455,3.751648430830083
2025-03-24 17:11:25.455,9.567571460734104
2025-03-24 17:11:25.455,5.194243079360544
2025-03-24 17:11:25.455,-4.865658792029926
2025-03-24 17:11:25.456,-9.120949347813454
2025-03-24 17:11:25.465,-2.064938715981972
2025-03-24 17:11:25.465,8.294007413133093
2025-03-24 17:11:25.465,9.110536127258646
2025-03-24 17:11:25.465,-1.4440988513151147
2025-03-24 17:11:25.475,-11.280533052317464
2025-03-24 17:11:25.475,-9.024388501532053
2025-03-24 17:11:25.475,2.391295961521325
2025-03-24 17:11:25.475,10.254508089529077
2025-03-24 17:11:25.475,7.610568211628405
2025-03-24 17:11:25.484,-0.35506574817343384
2025-03-24 17:11:25.484,-4.935367770380452
2025-03-24 17:11:25.485,-4.069168531856173
2025-03-24 17:11:25.485,-1.854713332817043
2025-03-24 17:11:25.485,-1.215935335029546
2025-03-24 17:11:25.495,-0.7894841372700508
2025-03-24 17:11:25.495,1.4049777597567623
2025-03-24 17:11:25.495,4.334780200242587
2025-03-24 17:11:25.495,5.105279933828389
2025-03-24 17:11:25.495,2.1581134704831992
2025-03-24 17:11:25.503,-3.3912492601620614
2025-03-24 17:11:25.503,-8.108263557318967
2025-03-24 17:11:25.503,-7.542054858441473
2025-03-24 17:11:25.504,0.18370539404698258
2025-03-24 17:11:25.504,10.198512087671702
2025-03-24 17:11:25.513,12.80786881278532
2025-03-24 17:11:25.513,3.3034251439984463
2025-03-24 17:11:25.513,-10.705288575079498
2025-03-24 17:11:25.513,-15.573407457190953
2025-03-24 17:11:25.523,-6.340333487352673
2025-03-24 17:11:25.523,7.698613284425372
2025-03-24 17:11:25.523,13.638774370395266
2025-03-24 17:11:25.523,8.395026562849582
2025-03-24 17:11:25.523,-0.8529720569302448
2025-03-24 17:11:25.531,-6.786411241870654
2025-03-24 17:11:25.531,-8.114397932536454
2025-03-24 17:11:25.531,-6.445421120041918
2025-03-24 17:11:25.532,-2.1403781306954466
2025-03-24 17:11:25.532,4.312641906455908
2025-03-24 17:11:25.541,9.464449655644744
2025-03-24 17:11:25.541,8.706055266277051
2025-03-24 17:11:25.541,1.4057977608560077
2025-03-24 17:11:25.542,-6.969912877851571
2025-03-24 17:11:25.542,-9.309909096823601
2025-03-24 17:11:25.552,-4.2285447509142
2025-03-24 17:11:25.553,2.096381603701036
2025-03-24 17:11:25.553,3.2616040581944428
2025-03-24 17:11:25.553,0.7268600732392663
2025-03-24 17:11:25.553,1.1612902806538443
2025-03-24 17:11:25.561,5.748536483602812
2025-03-24 17:11:25.561,6.993195255118271
2025-03-24 17:11:25.561,-0.8668252371393178
2025-03-24 17:11:25.561,-11.806109208499265
2025-03-24 17:11:25.571,-13.397482964644798
2025-03-24 17:11:25.571,-1.9867397170076702
2025-03-24 17:11:25.571,11.8079295239674
2025-03-24 17:11:25.571,14.617223152996157
2025-03-24 17:11:25.571,4.769624856694341
2025-03-24 17:11:25.580,-7.182904803411755
2025-03-24 17:11:25.581,-10.815313678075565
2025-03-24 17:11:25.581,-5.619242900854668
2025-03-24 17:11:25.581,1.3974580643130043
2025-03-24 17:11:25.581,4.552224960439603
2025-03-24 17:11:25.590,3.9416011766962606
2025-03-24 17:11:25.591,2.65203901572124
2025-03-24 17:11:25.591,2.01765244678094
2025-03-24 17:11:25.591,0.3853173742353433
2025-03-24 17:11:25.591,-3.751122644594408
2025-03-24 17:11:25.599,-7.9136430963147975
2025-03-24 17:11:25.599,-6.538476103800967
2025-03-24 17:11:25.599,2.3115154878249706
2025-03-24 17:11:25.600,11.904047180300655
2025-03-24 17:11:25.600,12.009563355266215
2025-03-24 17:11:25.609,0.6412475866885187
2025-03-24 17:11:25.609,-11.999178167413788
2025-03-24 17:11:25.609,-13.833861790235236
2025-03-24 17:11:25.609,-3.8361860480382126
2025-03-24 17:11:25.619,7.699176985283791
2025-03-24 17:11:25.619,10.867381880626382
2025-03-24 17:11:25.619,5.396915035158161
2025-03-24 17:11:25.619,-1.7341091933188295
2025-03-24 17:11:25.619,-4.84156503136042
2025-03-24 17:11:25.628,-3.9066315190943373
2025-03-24 17:11:25.629,-2.0211679979187775
2025-03-24 17:11:25.629,-0.9475132669557004
2025-03-24 17:11:25.629,0.14202892307410578
2025-03-24 17:11:25.629,2.333755925721348
2025-03-24 17:11:25.637,4.353734302795206
2025-03-24 17:11:25.637,3.284278575964985
2025-03-24 17:11:25.637,-1.4237284046314693
2025-03-24 17:11:25.638,-5.636743724054701
2025-03-24 17:11:25.638,-4.364709125438007
2025-03-24 17:11:25.647,1.7621258957845127
2025-03-24 17:11:25.647,6.10019537358646
2025-03-24 17:11:25.647,3.554941344715033
2025-03-24 17:11:25.648,-3.082645958523053
2025-03-24 17:11:25.648,-6.353669505281759
2025-03-24 17:11:25.657,-2.831059242707034
2025-03-24 17:11:25.657,3.454488404314072
2025-03-24 17:11:25.657,6.110921300550072
2025-03-24 17:11:25.658,3.0553382905680753
2025-03-24 17:11:25.658,-2.3030474330243713
2025-03-24 17:11:25.667,-5.094386147624782
2025-03-24 17:11:25.667,-3.328249972291136
2025-03-24 17:11:25.667,0.9859815486836483
2025-03-24 17:11:25.667,3.952959148634208
2025-03-24 17:11:25.668,3.0592066881175293
2025-03-24 17:11:25.677,-0.7575674282483966
2025-03-24 17:11:25.677,-3.814104809989798
2025-03-24 17:11:25.677,-3.0005795419017507
2025-03-24 17:11:25.678,0.9909852273777451
2025-03-24 17:11:25.687,4.168348281553452
2025-03-24 17:11:25.687,3.572296795704015
2025-03-24 17:11:25.687,0.38299138190914483
2025-03-24 17:11:25.687,-2.302832400746311
2025-03-24 17:11:25.687,-3.58056083633338
2025-03-24 17:11:25.697,-4.313504643202182
2025-03-24 17:11:25.697,-3.414444309442411
2025-03-24 17:11:25.697,1.5177967507048058
2025-03-24 17:11:25.697,8.55013462867723
2025-03-24 17:11:25.698,10.361826632291951
2025-03-24 17:11:25.707,2.511836053966339
2025-03-24 17:11:25.707,-9.17610114762677
2025-03-24 17:11:25.707,-13.610779814351533
2025-03-24 17:11:25.707,-6.677928443887364
2025-03-24 17:11:25.707,4.7395548113469195
2025-03-24 17:11:25.716,11.055663117894444
2025-03-24 17:11:25.717,9.014359488607926
2025-03-24 17:11:25.717,1.9229259538413919
2025-03-24 17:11:25.717,-5.288706547806249
2025-03-24 17:11:25.717,-8.842893854947949
2025-03-24 17:11:25.727,-6.632345758045476
2025-03-24 17:11:25.727,0.29331610624295273
2025-03-24 17:11:25.727,6.881413954372308
2025-03-24 17:11:25.727,7.598142691899935
2025-03-24 17:11:25.727,2.0910298380061496
2025-03-24 17:11:25.737,-4.048631680011119
2025-03-24 17:11:25.737,-5.375445287914677
2025-03-24 17:11:25.737,-2.3828919556742485
2025-03-24 17:11:25.737,0.3492683919839923
2025-03-24 17:11:25.737,0.875151038604728
2025-03-24 17:11:25.746,1.7979878798800957
2025-03-24 17:11:25.747,4.558377318529728
2025-03-24 17:11:25.747,5.107187868899286
2025-03-24 17:11:25.747,-0.934703402287038
2025-03-24 17:11:25.747,-9.792423684071988
2025-03-24 17:11:25.755,-11.114904132659506
2025-03-24 17:11:25.755,-0.4388908961508489
2025-03-24 17:11:25.755,13.003320004785659
2025-03-24 17:11:25.755,14.950863902237439
2025-03-24 17:11:25.764,2.322389049921322
2025-03-24 17:11:25.765,-12.495740912065655
2025-03-24 17:11:25.765,-14.863771418316928
2025-03-24 17:11:25.765,-3.45180495375618
2025-03-24 17:11:25.765,9.254382337699804
2025-03-24 17:11:25.773,11.093532186957301
2025-03-24 17:11:25.773,2.5130682032325145
2025-03-24 17:11:25.773,-5.915620665904363
2025-03-24 17:11:25.774,-6.127070379814297
2025-03-24 17:11:25.783,-0.24759046600167445
2025-03-24 17:11:25.783,4.008452821588395
2025-03-24 17:11:25.783,2.7418827589765256
2025-03-24 17:11:25.783,-1.1567230683122198
2025-03-24 17:11:25.783,-2.9929862724233165
2025-03-24 17:11:25.793,-1.6376340930795426
2025-03-24 17:11:25.793,0.5887028298004618
2025-03-24 17:11:25.793,1.6482895397589132
2025-03-24 17:11:25.794,1.7176924437083447
2025-03-24 17:11:25.794,1.4814455791245718
2025-03-24 17:11:25.794,0.25891233588595103
2025-03-24 17:11:25.803,-2.485247977340045
2025-03-24 17:11:25.803,-4.412261509445575
2025-03-24 17:11:25.803,-1.8881966231537133
2025-03-24 17:11:25.803,4.363600122359402
2025-03-24 17:11:25.813,7.671525735741813
2025-03-24 17:11:25.813,2.6666452215812955
2025-03-24 17:11:25.813,-6.660674090746632
2025-03-24 17:11:25.813,-9.94492703262913
2025-03-24 17:11:25.813,-2.701541256703716
2025-03-24 17:11:25.823,7.4978315632239605
2025-03-24 17:11:25.823,9.626636044937525
2025-03-24 17:11:25.823,2.0520785365733616
2025-03-24 17:11:25.823,-6.323496913437488
2025-03-24 17:11:25.823,-7.011846063961874
2025-03-24 17:11:25.833,-0.7732755689844464
2025-03-24 17:11:25.833,4.96221973720026
2025-03-24 17:11:25.833,4.700453362296175
2025-03-24 17:11:25.833,-0.5123151382055221
2025-03-24 17:11:25.833,-5.2591481847892405
2025-03-24 17:11:25.843,-4.862455358737629
2025-03-24 17:11:25.843,0.692716325700621
2025-03-24 17:11:25.843,6.47915689887416
2025-03-24 17:11:25.843,6.796280561199711
2025-03-24 17:11:25.843,0.8479079738962845
2025-03-24 17:11:25.853,-6.0283261931921155
2025-03-24 17:11:25.853,-7.706738373254533
2025-03-24 17:11:25.853,-3.3545522026170236
2025-03-24 17:11:25.853,2.696743469870365
2025-03-24 17:11:25.853,6.045134021800333
2025-03-24 17:11:25.862,5.382807300360222
2025-03-24 17:11:25.863,1.5842544827152205
2025-03-24 17:11:25.863,-3.35866500732612
2025-03-24 17:11:25.863,-6.169925344778863
2025-03-24 17:11:25.863,-4.044426667221007
2025-03-24 17:11:25.873,1.8231857817114436
2025-03-24 17:11:25.873,6.171159621075103
2025-03-24 17:11:25.873,4.706921198111157
2025-03-24 17:11:25.873,-1.375166064664116
2025-03-24 17:11:25.873,-6.512301698610961
2025-03-24 17:11:25.883,-5.903231968206999
2025-03-24 17:11:25.883,0.35541313481607434
2025-03-24 17:11:25.883,7.169122198392296
2025-03-24 17:11:25.883,8.406391984831757
2025-03-24 17:11:25.883,2.3030885848987834
2025-03-24 17:11:25.893,-6.317890307392706
2025-03-24 17:11:25.893,-9.956412845924902
2025-03-24 17:11:25.893,-5.455368047009136
2025-03-24 17:11:25.893,2.9392012389451745
2025-03-24 17:11:25.893,7.895725727785964
2025-03-24 17:11:25.901,6.141862939803824
2025-03-24 17:11:25.901,0.8629851678820228
2025-03-24 17:11:25.901,-2.67309795810533
2025-03-24 17:11:25.901,-2.7468218678595995
2025-03-24 17:11:25.902,-1.760356062828253
2025-03-24 17:11:25.911,-1.9674304279034946
2025-03-24 17:11:25.911,-2.355571371826743
2025-03-24 17:11:25.911,-0.661007632587467
2025-03-24 17:11:25.911,2.666307181055872
2025-03-24 17:11:25.921,4.4736807802304845
2025-03-24 17:11:25.921,3.056875695201256
2025-03-24 17:11:25.921,0.3225360962538565
2025-03-24 17:11:25.921,-1.3257244939684933
2025-03-24 17:11:25.921,-2.3336707507148753
2025-03-24 17:11:25.931,-3.937436860509965
2025-03-24 17:11:25.931,-4.289949200121227
2025-03-24 17:11:25.931,-0.47911384454116795
2025-03-24 17:11:25.931,5.480429845306598
2025-03-24 17:11:25.932,7.061665618960053
2025-03-24 17:11:25.941,1.718182246409608
2025-03-24 17:11:25.941,-4.648205766700503
2025-03-24 17:11:25.941,-4.923670088005884
2025-03-24 17:11:25.941,0.06359153437284687
2025-03-24 17:11:25.942,3.3538006702721637
2025-03-24 17:11:25.951,1.3291823419149824
2025-03-24 17:11:25.951,-2.566600099341635
2025-03-24 17:11:25.951,-3.385406341656812
2025-03-24 17:11:25.951,-0.4993366174073037
2025-03-24 17:11:25.952,2.954025343162393
2025-03-24 17:11:25.961,4.027498489668572
2025-03-24 17:11:25.961,2.18121651291168
2025-03-24 17:11:25.961,-1.0209893783170287
2025-03-24 17:11:25.961,-3.2803012194369865
2025-03-24 17:11:25.961,-3.177554145943133
2025-03-24 17:11:25.971,-1.1440674445512278
2025-03-24 17:11:25.971,1.1494964959875134
2025-03-24 17:11:25.971,2.3152762075175106
2025-03-24 17:11:25.971,1.9901933700698973
2025-03-24 17:11:25.972,0.49858825388917305
2025-03-24 17:11:25.981,-1.4166191906756855
2025-03-24 17:11:25.981,-2.4559873924211404
2025-03-24 17:11:25.981,-1.2845945147436624
2025-03-24 17:11:25.981,1.8909036475320904
2025-03-24 17:11:25.981,4.408048845243453
2025-03-24 17:11:25.991,2.9884381296415765
2025-03-24 17:11:25.991,-2.4727489679379384
2025-03-24 17:11:25.991,-7.349304856591805
2025-03-24 17:11:25.991,-6.13035479553815
2025-03-24 17:11:25.991,1.2811576853389313
2025-03-24 17:11:26.001,8.248389930370601
2025-03-24 17:11:26.001,7.990010291213637
2025-03-24 17:11:26.001,1.1064170954096888
2025-03-24 17:11:26.001,-5.2464382295984855
2025-03-24 17:11:26.001,-5.7229008823455345
2025-03-24 17:11:26.011,-2.1390563660684236
2025-03-24 17:11:26.011,0.3986692091122902
2025-03-24 17:11:26.011,0.34637263905567284
2025-03-24 17:11:26.011,0.3647948614865355
2025-03-24 17:11:26.011,2.2577614664553285
2025-03-24 17:11:26.020,4.109978612578738
2025-03-24 17:11:26.021,3.0395404129808488
2025-03-24 17:11:26.021,-0.9584540107784418
2025-03-24 17:11:26.021,-4.892507333773142
2025-03-24 17:11:26.021,-5.67034927025496
2025-03-24 17:11:26.031,-2.4991144498878652
2025-03-24 17:11:26.031,2.7182988612293166
2025-03-24 17:11:26.031,6.377414056420867
2025-03-24 17:11:26.031,5.309267760136716
2025-03-24 17:11:26.031,-0.2645559638853717
2025-03-24 17:11:26.039,-5.731485398896286
2025-03-24 17:11:26.039,-5.933310332921925
2025-03-24 17:11:26.039,-0.8649142580137411
2025-03-24 17:11:26.040,4.103585804483295
2025-03-24 17:11:26.040,4.548116255631223
2025-03-24 17:11:26.049,1.53287791962034
2025-03-24 17:11:26.049,-1.3136222234503927
2025-03-24 17:11:26.049,-2.6365578320590735
2025-03-24 17:11:26.049,-2.9419707918074005
2025-03-24 17:11:26.059,-1.7085944827636517
2025-03-24 17:11:26.059,1.5325195420498399
2025-03-24 17:11:26.059,4.272799055848232
2025-03-24 17:11:26.059,3.0171813331224873
2025-03-24 17:11:26.059,-1.4024009792380525
2025-03-24 17:11:26.069,-3.819276518205578
2025-03-24 17:11:26.069,-1.4408576869934215
2025-03-24 17:11:26.069,2.063446609914398
2025-03-24 17:11:26.069,1.5229841083291038
2025-03-24 17:11:26.070,-2.3026758230929234
2025-03-24 17:11:26.079,-3.4771088240327797
2025-03-24 17:11:26.079,0.7755944559288415
2025-03-24 17:11:26.079,5.679923335562727
2025-03-24 17:11:26.079,4.8653327181120005
2025-03-24 17:11:26.080,-1.284769530433055
2025-03-24 17:11:26.089,-6.117972272666762
2025-03-24 17:11:26.089,-4.932046185390404
2025-03-24 17:11:26.089,0.14380701156238845
2025-03-24 17:11:26.089,3.801088506561053
2025-03-24 17:11:26.089,3.4798013516274837
2025-03-24 17:11:26.099,0.6111950687860503
2025-03-24 17:11:26.099,-1.8963321843521341
2025-03-24 17:11:26.099,-1.8834212397620922
2025-03-24 17:11:26.099,0.7377837821566746
2025-03-24 17:11:26.100,3.212196372864249
2025-03-24 17:11:26.109,1.8293159571972992
2025-03-24 17:11:26.109,-3.431277133585509
2025-03-24 17:11:26.109,-7.138458335576112
2025-03-24 17:11:26.109,-3.8324160040491675
2025-03-24 17:11:26.110,4.769502818409886
2025-03-24 17:11:26.117,10.372528377259018
2025-03-24 17:11:26.117,6.870737686400252
2025-03-24 17:11:26.117,-2.975317288397057
2025-03-24 17:11:26.118,-10.480589216677174
2025-03-24 17:11:26.118,-9.438060421538454
2025-03-24 17:11:26.127,-1.0023733516346056
2025-03-24 17:11:26.127,8.061944405750852
2025-03-24 17:11:26.127,10.671167993871537
2025-03-24 17:11:26.128,4.614217154738113
2025-03-24 17:11:26.137,-5.190098314614305
2025-03-24 17:11:26.137,-10.113814839806379
2025-03-24 17:11:26.137,-5.79353019626869
2025-03-24 17:11:26.137,2.9966664574871595
2025-03-24 17:11:26.138,7.254234624904643
2025-03-24 17:11:26.147,3.8240909552261657
2025-03-24 17:11:26.147,-1.6093544337325119
2025-03-24 17:11:26.147,-2.4543740793563664
2025-03-24 17:11:26.147,0.5126754972868215
2025-03-24 17:11:26.147,1.3350658557236852
2025-03-24 17:11:26.157,-2.160038448139565
2025-03-24 17:11:26.157,-5.147629368605732
2025-03-24 17:11:26.157,-2.4378887859879423
2025-03-24 17:11:26.157,4.18300657303181
2025-03-24 17:11:26.157,7.586916936243553
2025-03-24 17:11:26.167,3.8141924204193214
2025-03-24 17:11:26.167,-3.2065876007783776
2025-03-24 17:11:26.167,-6.377045903112899
2025-03-24 17:11:26.167,-3.4747751219708767
2025-03-24 17:11:26.167,1.1871790969873905
2025-03-24 17:11:26.177,2.6519281342062637
2025-03-24 17:11:26.177,0.834101816062962
2025-03-24 17:11:26.177,-0.6309407887710359
2025-03-24 17:11:26.177,0.4034727111238921
2025-03-24 17:11:26.178,2.221080457648402
2025-03-24 17:11:26.187,1.9881022059848645
2025-03-24 17:11:26.187,-0.5531245132844338
2025-03-24 17:11:26.187,-2.987670291608291
2025-03-24 17:11:26.187,-3.1965387131683975
2025-03-24 17:11:26.187,-1.372606052519464
2025-03-24 17:11:26.197,0.8671609606147592
2025-03-24 17:11:26.197,2.302795854169429
2025-03-24 17:11:26.197,2.570447999855591
2025-03-24 17:11:26.197,1.7034496708628761
2025-03-24 17:11:26.197,0.15820325620495604
2025-03-24 17:11:26.205,-1.122582952997775
2025-03-24 17:11:26.205,-1.609351793486685
2025-03-24 17:11:26.206,-1.8618269495747024
2025-03-24 17:11:26.206,-2.303658928669652
2025-03-24 17:11:26.206,-1.7284330948106705
2025-03-24 17:11:26.216,1.2812577286054385
2025-03-24 17:11:26.217,5.187875897533901
2025-03-24 17:11:26.217,5.764707714463129
2025-03-24 17:11:26.217,0.988493227728756
2025-03-24 17:11:26.217,-5.494174164700026
2025-03-24 17:11:26.226,-7.59382905325973
2025-03-24 17:11:26.227,-3.2822119641642655
2025-03-24 17:11:26.227,3.3880206749758295
2025-03-24 17:11:26.227,6.675070976424485
2025-03-24 17:11:26.227,4.485843141851674
2025-03-24 17:11:26.235,-0.5833456959975989
2025-03-24 17:11:26.235,-4.296319889085794
2025-03-24 17:11:26.235,-4.354074496814079
2025-03-24 17:11:26.236,-1.611894908068304
2025-03-24 17:11:26.245,1.4594130610498162
2025-03-24 17:11:26.245,3.0697058853820076
2025-03-24 17:11:26.245,2.85794770766937
2025-03-24 17:11:26.245,1.210894307582517
2025-03-24 17:11:26.246,-1.0542582453136093
2025-03-24 17:11:26.255,-2.583249909059423
2025-03-24 17:11:26.255,-2.3886383552260764
2025-03-24 17:11:26.255,-1.0634939927967555
2025-03-24 17:11:26.255,0.008264835386009991
2025-03-24 17:11:26.256,0.7399516573016158
2025-03-24 17:11:26.265,2.206951429689748
2025-03-24 17:11:26.265,3.9704726199524343
2025-03-24 17:11:26.265,3.297540743490046
2025-03-24 17:11:26.265,-1.2970367970594454
2025-03-24 17:11:26.265,-6.597650618284203
2025-03-24 17:11:26.275,-7.04170367537853
2025-03-24 17:11:26.275,-1.184988972334674
2025-03-24 17:11:26.275,5.806313758549951
2025-03-24 17:11:26.275,7.501920389162231
2025-03-24 17:11:26.276,3.1432376444228387
2025-03-24 17:11:26.285,-2.317004798400683
2025-03-24 17:11:26.285,-4.407062005532246
2025-03-24 17:11:26.285,-3.1670030433649243
2025-03-24 17:11:26.285,-1.0043864862836083
2025-03-24 17:11:26.286,0.7617984991390073
2025-03-24 17:11:26.295,1.8756454362114405
2025-03-24 17:11:26.295,1.7704997379785534
2025-03-24 17:11:26.295,0.35690242255528487
2025-03-24 17:11:26.295,-0.8092602627669637
2025-03-24 17:11:26.296,-0.18926250995339272
2025-03-24 17:11:26.305,1.2125227429190388
2025-03-24 17:11:26.305,0.8402741125904803
2025-03-24 17:11:26.305,-1.6534863955288244
2025-03-24 17:11:26.305,-3.3188971435878685
2025-03-24 17:11:26.305,-1.5264986308874189
2025-03-24 17:11:26.315,2.3613238449184255
2025-03-24 17:11:26.315,4.202206771184923
2025-03-24 17:11:26.315,1.7911557242561187
2025-03-24 17:11:26.315,-2.51218342823109
2025-03-24 17:11:26.315,-4.147166918884792
2025-03-24 17:11:26.325,-1.1582281549402802
2025-03-24 17:11:26.325,3.434174361050792
2025-03-24 17:11:26.325,4.382404572766962
2025-03-24 17:11:26.325,-0.0338588086876222
2025-03-24 17:11:26.325,-5.234555905731059
2025-03-24 17:11:26.335,-4.809727119336645
2025-03-24 17:11:26.335,1.5832694398541376
2025-03-24 17:11:26.335,6.658879716586914
2025-03-24 17:11:26.335,3.912163653141899
2025-03-24 17:11:26.335,-3.6915303857850876
2025-03-24 17:11:26.345,-6.745597259462335
2025-03-24 17:11:26.345,-1.319567851335293
2025-03-24 17:11:26.345,5.832438252262578
2025-03-24 17:11:26.345,5.939481754460039
2025-03-24 17:11:26.345,-0.8720755525444388
2025-03-24 17:11:26.355,-6.530973643897975
2025-03-24 17:11:26.355,-5.27558518934656
2025-03-24 17:11:26.355,0.6219173968512799
2025-03-24 17:11:26.355,5.111418522373113
2025-03-24 17:11:26.355,4.986252127097125
2025-03-24 17:11:26.363,1.363609313679198
2025-03-24 17:11:26.363,-2.7686218727188736
2025-03-24 17:11:26.363,-4.661257907744719
2025-03-24 17:11:26.364,-2.937702686452052
2025-03-24 17:11:26.364,1.2647312844564256
2025-03-24 17:11:26.373,4.407064819145464
2025-03-24 17:11:26.373,3.388399251472533
2025-03-24 17:11:26.373,-1.0492964994730567
2025-03-24 17:11:26.373,-4.566756574928492
2025-03-24 17:11:26.383,-3.6589708754296115
2025-03-24 17:11:26.383,0.6542080093325415
2025-03-24 17:11:26.383,4.326722883820182
2025-03-24 17:11:26.383,4.693105488992017
2025-03-24 17:11:26.384,2.0307899098425635
2025-03-24 17:11:26.384,-2.2530868397910204
2025-03-24 17:11:26.393,-6.28702082436279
2025-03-24 17:11:26.393,-6.803952728769429
2025-03-24 17:11:26.393,-1.346370632024361
2025-03-24 17:11:26.394,6.933078068206591
2025-03-24 17:11:26.403,10.056914103425472
2025-03-24 17:11:26.403,3.9598875179147788
2025-03-24 17:11:26.403,-5.469712573567979
2025-03-24 17:11:26.403,-8.525979907501249
2025-03-24 17:11:26.404,-3.1700418647767523
2025-03-24 17:11:26.413,3.0560870849037234
2025-03-24 17:11:26.413,3.1203752349359775
2025-03-24 17:11:26.413,-0.8806165677977253
2025-03-24 17:11:26.413,-1.7060844594042075
2025-03-24 17:11:26.414,2.3919226861733422
2025-03-24 17:11:26.423,5.144636437482473
2025-03-24 17:11:26.423,1.3685539384816001
2025-03-24 17:11:26.423,-5.084465780766536
2025-03-24 17:11:26.423,-6.084806846933077
2025-03-24 17:11:26.423,-0.4016556001075865
2025-03-24 17:11:26.433,4.514563840872763
2025-03-24 17:11:26.433,2.853516051425857
2025-03-24 17:11:26.433,-1.7825899584215747
2025-03-24 17:11:26.433,-2.1140303214282943
2025-03-24 17:11:26.433,2.1248474143867213
2025-03-24 17:11:26.443,3.999809327576874
2025-03-24 17:11:26.443,-0.3039651316097236
2025-03-24 17:11:26.443,-5.689357617558825
2025-03-24 17:11:26.443,-4.991743199456475
2025-03-24 17:11:26.443,1.4729814737583924
2025-03-24 17:11:26.451,6.578965110392893
2025-03-24 17:11:26.451,5.266425111330359
2025-03-24 17:11:26.451,-0.5333920518428195
2025-03-24 17:11:26.452,-5.510528514481984
2025-03-24 17:11:26.452,-6.334785504515503
2025-03-24 17:11:26.463,-2.82022480481537
2025-03-24 17:11:26.463,3.1852779583186153
2025-03-24 17:11:26.463,8.055115327945655
2025-03-24 17:11:26.463,7.484380206594836
2025-03-24 17:11:26.463,0.3451600304912211
2025-03-24 17:11:26.471,-8.377127976449042
2025-03-24 17:11:26.471,-10.795604339428726
2025-03-24 17:11:26.471,-3.931674402996069
2025-03-24 17:11:26.471,6.240391845688166
2025-03-24 17:11:26.481,10.191938068103347
2025-03-24 17:11:26.481,4.838234004198866
2025-03-24 17:11:26.481,-3.2027706882333153
2025-03-24 17:11:26.481,-5.569589914989006
2025-03-24 17:11:26.481,-1.8492117110715212
2025-03-24 17:11:26.491,1.3750223305981077
2025-03-24 17:11:26.491,0.2457673349440242
2025-03-24 17:11:26.491,-1.9452162171141456
2025-03-24 17:11:26.491,-1.152304230033198
2025-03-24 17:11:26.492,1.255775673729038
2025-03-24 17:11:26.501,1.9404903519331982
2025-03-24 17:11:26.501,1.4897751854695258
2025-03-24 17:11:26.501,2.2444660573024207
2025-03-24 17:11:26.501,2.553872021026928
2025-03-24 17:11:26.502,-1.1916124819171872
2025-03-24 17:11:26.511,-7.051566341781733
2025-03-24 17:11:26.511,-7.700101141100105
2025-03-24 17:11:26.511,-0.19359316770229185
2025-03-24 17:11:26.511,8.59649415795196
2025-03-24 17:11:26.512,9.632553397346278
2025-03-24 17:11:26.521,2.366107154507041
2025-03-24 17:11:26.521,-5.6320296810903905
2025-03-24 17:11:26.521,-8.060594090855481
2025-03-24 17:11:26.521,-5.065051843031195
2025-03-24 17:11:26.522,0.1876577756893359
2025-03-24 17:11:26.531,5.344236660605164
2025-03-24 17:11:26.531,7.931555032853455
2025-03-24 17:11:26.531,4.9328886272840675
2025-03-24 17:11:26.531,-3.124496064165078
2025-03-24 17:11:26.531,-9.735370860206581
2025-03-24 17:11:26.541,-8.021468432129632
2025-03-24 17:11:26.541,1.09504963691313
2025-03-24 17:11:26.541,9.042159610291039
2025-03-24 17:11:26.541,8.678654990013813
2025-03-24 17:11:26.541,1.3764864674259218
2025-03-24 17:11:26.551,-5.66299961568543
2025-03-24 17:11:26.551,-7.22312333294323
2025-03-24 17:11:26.551,-3.7671418478648913
2025-03-24 17:11:26.551,1.0842631989929152
2025-03-24 17:11:26.552,4.291948418175257
2025-03-24 17:11:26.560,4.646928076377102
2025-03-24 17:11:26.561,2.453804973296369
2025-03-24 17:11:26.561,-0.7763503393962176
2025-03-24 17:11:26.561,-3.069242533301899
2025-03-24 17:11:26.561,-3.415232269677179
2025-03-24 17:11:26.571,-2.322226822373713
2025-03-24 17:11:26.571,-0.5908744852155225
2025-03-24 17:11:26.571,1.789296032913269
2025-03-24 17:11:26.571,4.514544100543928
2025-03-24 17:11:26.571,5.237666132943674
2025-03-24 17:11:26.579,1.176859289212372
2025-03-24 17:11:26.579,-6.142264431180532
2025-03-24 17:11:26.579,-9.657788119402177
2025-03-24 17:11:26.580,-3.772664639743245
2025-03-24 17:11:26.580,7.276572513153016
2025-03-24 17:11:26.589,12.020751775140335
2025-03-24 17:11:26.589,4.870190886068045
2025-03-24 17:11:26.589,-6.572412846851883
2025-03-24 17:11:26.590,-10.435819931471356
2025-03-24 17:11:26.599,-4.396416633976041
2025-03-24 17:11:26.599,3.2729841182100623
2025-03-24 17:11:26.599,5.059291599740717
2025-03-24 17:11:26.599,2.107019816156138
2025-03-24 17:11:26.600,0.15954776251346606
2025-03-24 17:11:26.609,1.3592783586320427
2025-03-24 17:11:26.609,2.5012971041531475
2025-03-24 17:11:26.609,0.053189075209946396
2025-03-24 17:11:26.609,-5.125171573554559
2025-03-24 17:11:26.610,-8.13909837058794
2025-03-24 17:11:26.619,-4.6405232727015
2025-03-24 17:11:26.619,4.316123492239358
2025-03-24 17:11:26.619,11.616574442224234
2025-03-24 17:11:26.619,9.811716293588427
2025-03-24 17:11:26.620,-0.7920120752299973
2025-03-24 17:11:26.627,-10.707462710303039
2025-03-24 17:11:26.627,-10.432479103286216
2025-03-24 17:11:26.628,-1.1241205335892275
2025-03-24 17:11:26.628,6.559790830252373
2025-03-24 17:11:26.628,5.156134259297714
2025-03-24 17:11:26.637,-1.0945019046266444
2025-03-24 17:11:26.637,-2.828278419657268
2025-03-24 17:11:26.638,1.8242210417415197
2025-03-24 17:11:26.638,5.389937307851394
2025-03-24 17:11:26.638,1.7892422825867358
2025-03-24 17:11:26.647,-5.224295490154352
2025-03-24 17:11:26.647,-7.018345633073503
2025-03-24 17:11:26.647,-1.4956758894576636
2025-03-24 17:11:26.648,4.227930838158762
2025-03-24 17:11:26.657,3.368491430247714
2025-03-24 17:11:26.657,-1.520337532442681
2025-03-24 17:11:26.657,-2.3186748529476033
2025-03-24 17:11:26.658,3.046101660631878
2025-03-24 17:11:26.658,7.105599923920954
2025-03-24 17:11:26.667,2.683291514466389
2025-03-24 17:11:26.667,-6.999849834105209
2025-03-24 17:11:26.667,-11.468073436632862
2025-03-24 17:11:26.667,-5.24392625364486
2025-03-24 17:11:26.668,6.0704298345385865
2025-03-24 17:11:26.675,12.092395307228397
2025-03-24 17:11:26.675,7.840738253477951
2025-03-24 17:11:26.676,-2.5622137680408845
2025-03-24 17:11:26.676,-10.26004577607904
2025-03-24 17:11:26.676,-9.1234817812262
2025-03-24 17:11:26.685,-0.5558337381166742
2025-03-24 17:11:26.685,8.020864716743507
2025-03-24 17:11:26.686,9.769481329363462
2025-03-24 17:11:26.686,3.814904274388462
2025-03-24 17:11:26.686,-5.1524408085870546
2025-03-24 17:11:26.695,-10.79029230286538
2025-03-24 17:11:26.695,-8.727699071117161
2025-03-24 17:11:26.695,0.4968710390218447
2025-03-24 17:11:26.696,10.447447240304111
2025-03-24 17:11:26.703,13.145046793030374
2025-03-24 17:11:26.703,6.254125615439028
2025-03-24 17:11:26.704,-5.235576159368364
2025-03-24 17:11:26.704,-14.027965474030646
2025-03-24 17:11:26.704,-14.486098520415247
2025-03-24 17:11:26.713,-3.8489319203381163
2025-03-24 17:11:26.713,13.331229412660473
2025-03-24 17:11:26.713,22.127812675529714
2025-03-24 17:11:26.713,9.362736670905862
2025-03-24 17:11:26.721,-16.096063763416428
2025-03-24 17:11:26.721,-25.8656986095324
2025-03-24 17:11:26.722,-5.3574673688556995
2025-03-24 17:11:26.722,22.957486510149177
2025-03-24 17:11:26.722,23.857828985725227
2025-03-24 17:11:26.731,-5.208864869135722
2025-03-24 17:11:26.731,-28.67508585162302
2025-03-24 17:11:26.731,-17.477350558504053
2025-03-24 17:11:26.732,14.256056557468622
2025-03-24 17:11:26.739,28.068927160188302
2025-03-24 17:11:26.739,9.435760990974535
2025-03-24 17:11:26.739,-16.890065012852336
2025-03-24 17:11:26.740,-20.516670302114342
2025-03-24 17:11:26.749,-1.7291517538208832
2025-03-24 17:11:26.749,13.750039090128377
2025-03-24 17:11:26.749,9.288847163621131
2025-03-24 17:11:26.749,-4.700614054522767
2025-03-24 17:11:26.750,-8.155603141163873
2025-03-24 17:11:26.759,2.1435479350070996
2025-03-24 17:11:26.759,10.05543871395648
2025-03-24 17:11:26.759,2.382307402390726
2025-03-24 17:11:26.759,-12.66860766879835
2025-03-24 17:11:26.759,-14.509646475118092
2025-03-24 17:11:26.767,3.0412351915578153
2025-03-24 17:11:26.767,21.046132501364184
2025-03-24 17:11:26.767,17.115046146322346
2025-03-24 17:11:26.768,-6.285415088349859
2025-03-24 17:11:26.777,-23.752658580230218
2025-03-24 17:11:26.777,-17.200292086052674
2025-03-24 17:11:26.777,4.403236921783567
2025-03-24 17:11:26.777,18.637722821630426
2025-03-24 17:11:26.777,15.21868540478686
2025-03-24 17:11:26.785,2.0394381605078755
2025-03-24 17:11:26.785,-8.634887563570759
2025-03-24 17:11:26.785,-11.573087268425391
2025-03-24 17:11:26.786,-7.753601088937207
2025-03-24 17:11:26.795,-0.26719115640635
2025-03-24 17:11:26.795,6.458460830851289
2025-03-24 17:11:26.795,7.987301844451748
2025-03-24 17:11:26.796,3.7172028008851026
2025-03-24 17:11:26.796,-1.9778129582588175
2025-03-24 17:11:26.805,-3.92188717403275
2025-03-24 17:11:26.805,-0.9959349960978044
2025-03-24 17:11:26.805,2.8702151523402852
2025-03-24 17:11:26.805,1.8128757415220658
2025-03-24 17:11:26.806,-5.8886161697824635
2025-03-24 17:11:26.815,-12.71724414876458
2025-03-24 17:11:26.815,-6.57796959354276
2025-03-24 17:11:26.815,13.3644004972203
2025-03-24 17:11:26.815,28.004299669276314
2025-03-24 17:11:26.815,15.9845626392516
2025-03-24 17:11:26.823,-16.978067874552675
2025-03-24 17:11:26.823,-37.48370403728018
2025-03-24 17:11:26.823,-21.890718886408237
2025-03-24 17:11:26.824,13.4540580355552
2025-03-24 17:11:26.831,31.198800167321885
2025-03-24 17:11:26.831,17.89256456155137
2025-03-24 17:11:26.831,-4.191086336394358
2025-03-24 17:11:26.832,-10.644618348986661
2025-03-24 17:11:26.841,-4.729776142052979
2025-03-24 17:11:26.841,-4.7333122761731286
2025-03-24 17:11:26.841,-12.668696264090855
2025-03-24 17:11:26.841,-11.316645745475379
2025-03-24 17:11:26.841,7.855519597304785
2025-03-24 17:11:26.849,27.65215831074405
2025-03-24 17:11:26.849,23.95559745440262
2025-03-24 17:11:26.849,-4.117701748442043
2025-03-24 17:11:26.849,-30.829157430181358
2025-03-24 17:11:26.859,-30.50145480338316
2025-03-24 17:11:26.859,-3.5025298993557077
2025-03-24 17:11:26.859,24.94810768712335
2025-03-24 17:11:26.859,29.769342577157726
2025-03-24 17:11:26.859,9.413774140982229
2025-03-24 17:11:26.867,-14.498308225671188
2025-03-24 17:11:26.867,-20.18956574251521
2025-03-24 17:11:26.867,-7.474113257365434
2025-03-24 17:11:26.868,5.008112082747611
2025-03-24 17:11:26.877,3.54332139932035
2025-03-24 17:11:26.877,-4.465178127300381
2025-03-24 17:11:26.877,-2.207662036765484
2025-03-24 17:11:26.878,11.866414021441503
2025-03-24 17:11:26.878,19.781858578341566
2025-03-24 17:11:26.885,7.425618516967995
2025-03-24 17:11:26.885,-15.501247687095029
2025-03-24 17:11:26.885,-26.325942136875238
2025-03-24 17:11:26.886,-15.905393327798734
2025-03-24 17:11:26.895,4.1536199349502265
2025-03-24 17:11:26.895,18.25043208292116
2025-03-24 17:11:26.895,20.7663846989474
2025-03-24 17:11:26.895,13.096241576791833
2025-03-24 17:11:26.895,-2.0326335110990894
2025-03-24 17:11:26.903,-17.786467491769116
2025-03-24 17:11:26.903,-22.68982107644556
2025-03-24 17:11:26.903,-11.100702831545835
2025-03-24 17:11:26.904,8.127237946876074
2025-03-24 17:11:26.913,19.26391387270788
2025-03-24 17:11:26.913,15.359135851495932
2025-03-24 17:11:26.913,2.8225717252100093
2025-03-24 17:11:26.913,-7.964036161560363
2025-03-24 17:11:26.913,-12.034514288536286
2025-03-24 17:11:26.921,-9.971972582195644
2025-03-24 17:11:26.921,-3.642106943369929
2025-03-24 17:11:26.922,4.852912655965385
2025-03-24 17:11:26.922,11.50097517223103
2025-03-24 17:11:26.931,11.389055796614311
2025-03-24 17:11:26.931,3.3590558701760744
2025-03-24 17:11:26.931,-7.35580462447638
2025-03-24 17:11:26.931,-13.096269070344405
2025-03-24 17:11:26.931,-10.507444983198184
2025-03-24 17:11:26.939,-2.262900327860744
2025-03-24 17:11:26.939,6.933841943357133
2025-03-24 17:11:26.940,13.437676991885544
2025-03-24 17:11:26.940,14.027740852524872
2025-03-24 17:11:26.940,6.243882957847504
2025-03-24 17:11:26.949,-7.867922758125364
2025-03-24 17:11:26.949,-20.005108508575688
2025-03-24 17:11:26.949,-20.666765568080475
2025-03-24 17:11:26.949,-7.0903857298388795
2025-03-24 17:11:26.957,13.582031591038279
2025-03-24 17:11:26.957,28.106191494891146
2025-03-24 17:11:26.958,24.911243236529398
2025-03-24 17:11:26.958,2.745789537778816
2025-03-24 17:11:26.967,-24.543734089528897
2025-03-24 17:11:26.967,-35.070657891715776
2025-03-24 17:11:26.967,-17.910335336439445
2025-03-24 17:11:26.967,13.46407689590526
2025-03-24 17:11:26.967,31.830409894384616
2025-03-24 17:11:26.975,22.849973537480604
2025-03-24 17:11:26.975,-1.9255250304445255
2025-03-24 17:11:26.975,-19.518094775897794
2025-03-24 17:11:26.976,-18.445321662945773
2025-03-24 17:11:26.985,-5.041819002840046
2025-03-24 17:11:26.985,7.722999443423168
2025-03-24 17:11:26.985,11.843978781075295
2025-03-24 17:11:26.985,6.808235860647427
2025-03-24 17:11:26.985,-2.5065757460116305
2025-03-24 17:11:26.995,-8.424193636721457
2025-03-24 17:11:26.995,-5.606567756246064
2025-03-24 17:11:26.995,3.047865425981995
2025-03-24 17:11:26.995,8.10827344708856
2025-03-24 17:11:26.995,4.023876151309521
2025-03-24 17:11:27.005,-4.192707843356879
2025-03-24 17:11:27.005,-7.460240642598051
2025-03-24 17:11:27.005,-3.6742185974165715
2025-03-24 17:11:27.005,1.5429577592491348
2025-03-24 17:11:27.005,3.7844037858011723
2025-03-24 17:11:27.013,4.408553099016376
2025-03-24 17:11:27.014,5.079591771104089
2025-03-24 17:11:27.014,2.90097433434186
2025-03-24 17:11:27.014,-4.634532970744996
2025-03-24 17:11:27.014,-12.245820995366326
2025-03-24 17:11:27.023,-10.267867364123974
2025-03-24 17:11:27.023,2.9036169664080145
2025-03-24 17:11:27.023,15.801912854747668
2025-03-24 17:11:27.024,15.072513837522422
2025-03-24 17:11:27.033,0.6102799356118982
2025-03-24 17:11:27.033,-13.721135272904457
2025-03-24 17:11:27.033,-14.92317181385057
2025-03-24 17:11:27.033,-3.898424904126893
2025-03-24 17:11:27.034,7.4991192775412205
2025-03-24 17:11:27.041,10.038276372539723
2025-03-24 17:11:27.041,4.899133353645033
2025-03-24 17:11:27.042,-1.100795982652497
2025-03-24 17:11:27.042,-3.8924462472497448
2025-03-24 17:11:27.051,-3.7753688822676756
2025-03-24 17:11:27.051,-1.789358761236032
2025-03-24 17:11:27.051,1.304500193404039
2025-03-24 17:11:27.051,2.968605045532327
2025-03-24 17:11:27.052,0.32649384028877915
2025-03-24 17:11:27.061,-4.611663472765814
2025-03-24 17:11:27.061,-4.873765419636326
2025-03-24 17:11:27.061,2.7950984072639016
2025-03-24 17:11:27.061,11.223878043609254
2025-03-24 17:11:27.062,9.406137418060933
2025-03-24 17:11:27.071,-3.6305550998894316
2025-03-24 17:11:27.071,-15.480327603533064
2025-03-24 17:11:27.071,-13.498970194407972
2025-03-24 17:11:27.071,0.7695556517338789
2025-03-24 17:11:27.071,13.39371288399808
2025-03-24 17:11:27.079,13.494956643622176
2025-03-24 17:11:27.079,3.550726701172698
2025-03-24 17:11:27.080,-6.007823369116435
2025-03-24 17:11:27.080,-8.649861274893494
2025-03-24 17:11:27.089,-5.79949726796338
2025-03-24 17:11:27.089,-1.7402594089385175
2025-03-24 17:11:27.090,1.5337911876876344
2025-03-24 17:11:27.090,4.1500936593288955
2025-03-24 17:11:27.090,5.759106829319532
2025-03-24 17:11:27.090,4.812743262722562
2025-03-24 17:11:27.099,0.3285965612466293
2025-03-24 17:11:27.099,-5.877781095902295
2025-03-24 17:11:27.100,-9.07864420131119
2025-03-24 17:11:27.100,-5.185194274850009
2025-03-24 17:11:27.109,4.250053462144462
2025-03-24 17:11:27.109,11.4220851349081
2025-03-24 17:11:27.109,8.917616540476638
2025-03-24 17:11:27.109,-2.1861209644877335
2025-03-24 17:11:27.110,-12.096717226818535
2025-03-24 17:11:27.117,-11.436693902198261
2025-03-24 17:11:27.117,-0.5622441418654008
2025-03-24 17:11:27.118,10.719072156050276
2025-03-24 17:11:27.118,12.62829629512658
2025-03-24 17:11:27.118,4.253495537049917
2025-03-24 17:11:27.127,-6.694679793281276
2025-03-24 17:11:27.127,-11.676951852052756
2025-03-24 17:11:27.128,-8.071295759318863
2025-03-24 17:11:27.128,0.5639122421146392
2025-03-24 17:11:27.137,8.32282048669123
2025-03-24 17:11:27.137,10.389032122925705
2025-03-24 17:11:27.137,5.344020555933721
2025-03-24 17:11:27.137,-3.3903702300740086
2025-03-24 17:11:27.138,-9.378871553310917
2025-03-24 17:11:27.147,-8.612713104486375
2025-03-24 17:11:27.147,-2.758136068372196
2025-03-24 17:11:27.147,3.976003997596032
2025-03-24 17:11:27.148,9.074882270782876
2025-03-24 17:11:27.148,10.589411696986923
2025-03-24 17:11:27.155,4.96502291649699
2025-03-24 17:11:27.155,-8.209413024111376
2025-03-24 17:11:27.156,-19.563524120490506
2025-03-24 17:11:27.156,-15.26094761553033
2025-03-24 17:11:27.165,6.322839845254594
2025-03-24 17:11:27.165,27.05710448894214
2025-03-24 17:11:27.165,24.844201542060897
2025-03-24 17:11:27.165,-1.8892409598860922
2025-03-24 17:11:27.166,-29.443625805304524
2025-03-24 17:11:27.173,-31.433874246534852
2025-03-24 17:11:27.173,-5.396191029402237
2025-03-24 17:11:27.174,24.672463573488
2025-03-24 17:11:27.174,32.06589038007556
2025-03-24 17:11:27.181,12.442802001654849
2025-03-24 17:11:27.181,-14.469727641862775
2025-03-24 17:11:27.181,-25.668549141545938
2025-03-24 17:11:27.182,-15.332886833552754
2025-03-24 17:11:27.182,3.8479880827328827
2025-03-24 17:11:27.191,15.443181296198453
2025-03-24 17:11:27.191,13.156053106310594
2025-03-24 17:11:27.191,2.588679611196568
2025-03-24 17:11:27.192,-6.446213882844984
2025-03-24 17:11:27.201,-8.15376935540738
2025-03-24 17:11:27.201,-3.774367856714931
2025-03-24 17:11:27.201,1.2085183498844252
2025-03-24 17:11:27.202,2.721583911493986
2025-03-24 17:11:27.202,1.5249788924659635
2025-03-24 17:11:27.211,0.9665326443686135
2025-03-24 17:11:27.211,1.9348347813060451
2025-03-24 17:11:27.211,1.753315417928753
2025-03-24 17:11:27.212,-1.3551655671600222
2025-03-24 17:11:27.212,-4.667003302676957
2025-03-24 17:11:27.221,-3.9443961705446795
2025-03-24 17:11:27.221,0.6398283199024438
2025-03-24 17:11:27.222,4.199371963931827
2025-03-24 17:11:27.222,3.4561918678980708
2025-03-24 17:11:27.222,0.6952676706162442
2025-03-24 17:11:27.231,-0.5028859918217343
2025-03-24 17:11:27.232,-0.7474661409043104
2025-03-24 17:11:27.232,-2.4651345410670404
2025-03-24 17:11:27.232,-4.03205311191433
2025-03-24 17:11:27.232,-1.4690930906050772
2025-03-24 17:11:27.241,4.056327963815645
2025-03-24 17:11:27.241,5.928451345132531
2025-03-24 17:11:27.241,1.2591751080805735
2025-03-24 17:11:27.241,-4.249132475647911
2025-03-24 17:11:27.242,-3.923062939322564
2025-03-24 17:11:27.251,0.7544452749502805
2025-03-24 17:11:27.251,2.8256124468515553
2025-03-24 17:11:27.251,-0.08533672898545802
2025-03-24 17:11:27.252,-2.9603597786800897
2025-03-24 17:11:27.252,-0.9942750591348679
2025-03-24 17:11:27.261,3.6100200088868073
2025-03-24 17:11:27.261,4.511335909200273
2025-03-24 17:11:27.261,-0.4399185140285987
2025-03-24 17:11:27.261,-5.852066379870488
2025-03-24 17:11:27.261,-4.813053629688377
2025-03-24 17:11:27.271,2.2224311796313825
2025-03-24 17:11:27.271,6.841442099393089
2025-03-24 17:11:27.271,2.843820026002229
2025-03-24 17:11:27.271,-4.98506271646554
2025-03-24 17:11:27.271,-6.263895952814983
2025-03-24 17:11:27.281,1.1260875356524342
2025-03-24 17:11:27.281,7.562342776524743
2025-03-24 17:11:27.281,4.28486320201403
2025-03-24 17:11:27.281,-4.759583203976635
2025-03-24 17:11:27.281,-8.145437085183554
2025-03-24 17:11:27.291,-2.018202793974246
2025-03-24 17:11:27.291,5.641864727543891
2025-03-24 17:11:27.291,6.452118616958704
2025-03-24 17:11:27.291,1.667837785117689
2025-03-24 17:11:27.291,-2.4991879707011924
2025-03-24 17:11:27.299,-4.453702701646886
2025-03-24 17:11:27.300,-5.88512860252991
2025-03-24 17:11:27.300,-4.277800802208618
2025-03-24 17:11:27.300,4.2012097810964795
2025-03-24 17:11:27.309,13.925810423131837
2025-03-24 17:11:27.309,11.779718532749733
2025-03-24 17:11:27.309,-4.906930277422156
2025-03-24 17:11:27.309,-19.84429006231113
2025-03-24 17:11:27.309,-15.494757893712118
2025-03-24 17:11:27.317,4.182934660314731
2025-03-24 17:11:27.318,17.619875073995406
2025-03-24 17:11:27.318,12.211714215943285
2025-03-24 17:11:27.318,-1.7339095358424979
2025-03-24 17:11:27.327,-7.138194873088931
2025-03-24 17:11:27.327,-2.5558512513592713
2025-03-24 17:11:27.327,-0.35620489851131776
2025-03-24 17:11:27.328,-5.816654401441788
2025-03-24 17:11:27.328,-8.703462441940333
2025-03-24 17:11:27.337,0.5499682197777074
2025-03-24 17:11:27.337,14.23734645833587
2025-03-24 17:11:27.337,15.412343518257499
2025-03-24 17:11:27.337,0.4384549989150841
2025-03-24 17:11:27.337,-14.901277223153333
2025-03-24 17:11:27.345,-14.399989534768473
2025-03-24 17:11:27.345,-0.6267935898147357
2025-03-24 17:11:27.346,9.897867540869205
2025-03-24 17:11:27.346,7.602709724898141
2025-03-24 17:11:27.355,-0.6971152755190808
2025-03-24 17:11:27.355,-3.704965331396138
2025-03-24 17:11:27.355,-0.27475319878082594
2025-03-24 17:11:27.355,2.1963214764113497
2025-03-24 17:11:27.356,-0.17662477622674833
2025-03-24 17:11:27.365,-3.4701931983658896
2025-03-24 17:11:27.365,-2.9803815896491406
2025-03-24 17:11:27.365,0.6357738645597621
2025-03-24 17:11:27.365,3.4790911669322293
2025-03-24 17:11:27.366,3.395493663213479
2025-03-24 17:11:27.375,1.2280675322446564
2025-03-24 17:11:27.375,-1.1872337207457748
2025-03-24 17:11:27.375,-2.8590083960345627
2025-03-24 17:11:27.375,-3.724817369383968
2025-03-24 17:11:27.375,-3.2979182674323106
2025-03-24 17:11:27.385,-0.06774135787485018
2025-03-24 17:11:27.385,5.919730086489287
2025-03-24 17:11:27.385,9.858497312700926
2025-03-24 17:11:27.385,5.163253546707675
2025-03-24 17:11:27.385,-7.419953097863121
2025-03-24 17:11:27.393,-16.331321741557595
2025-03-24 17:11:27.393,-10.070953583534129
2025-03-24 17:11:27.394,7.883261472774502
2025-03-24 17:11:27.394,19.78816278298108
2025-03-24 17:11:27.401,12.401599758197767
2025-03-24 17:11:27.401,-7.396828758921357
2025-03-24 17:11:27.402,-19.337270957880442
2025-03-24 17:11:27.402,-11.623605537167965
2025-03-24 17:11:27.402,6.873035278503335
2025-03-24 17:11:27.411,16.89647681813968
2025-03-24 17:11:27.411,9.135446412641945
2025-03-24 17:11:27.411,-7.166543228418868
2025-03-24 17:11:27.412,-14.948324909721448
2025-03-24 17:11:27.421,-6.934983528827802
2025-03-24 17:11:27.421,7.89297797230375
2025-03-24 17:11:27.421,14.299410174661313
2025-03-24 17:11:27.421,6.12585817414497
2025-03-24 17:11:27.421,-8.177006069248888
2025-03-24 17:11:27.431,-14.350264223232008
2025-03-24 17:11:27.431,-6.354269884776349
2025-03-24 17:11:27.431,7.8431144867506495
2025-03-24 17:11:27.431,14.197429493166563
2025-03-24 17:11:27.431,6.591170280946185
2025-03-24 17:11:27.439,-7.026908925673556
2025-03-24 17:11:27.440,-12.91893008446416
2025-03-24 17:11:27.440,-5.905503691488729
2025-03-24 17:11:27.440,5.632923343801744
2025-03-24 17:11:27.449,9.674436940750553
2025-03-24 17:11:27.449,3.827738290523583
2025-03-24 17:11:27.449,-3.5654463079475174
2025-03-24 17:11:27.450,-4.690047802312157
2025-03-24 17:11:27.450,-0.848050210763091
2025-03-24 17:11:27.459,1.5147884271158656
2025-03-24 17:11:27.459,-0.08840634425331881
2025-03-24 17:11:27.459,-2.249207432812749
2025-03-24 17:11:27.460,-1.2494888331944898
2025-03-24 17:11:27.460,2.534714722874193
2025-03-24 17:11:27.469,5.4811377836494835
2025-03-24 17:11:27.469,3.978513697502165
2025-03-24 17:11:27.469,-2.3491535477179917
2025-03-24 17:11:27.470,-8.721861225962613
2025-03-24 17:11:27.470,-8.067964391903455
2025-03-24 17:11:27.479,0.9938983988942236
2025-03-24 17:11:27.479,10.129271278639198
2025-03-24 17:11:27.479,9.475285491268949
2025-03-24 17:11:27.479,-0.08782414636300162
2025-03-24 17:11:27.479,-7.519870677812861
2025-03-24 17:11:27.487,-5.693941489166703
2025-03-24 17:11:27.487,0.23792874723107116
2025-03-24 17:11:27.488,1.6625776873046765
2025-03-24 17:11:27.488,-1.1381905988603411
2025-03-24 17:11:27.488,-1.1059483646660992
2025-03-24 17:11:27.497,3.579239756653937
2025-03-24 17:11:27.497,6.373317736260485
2025-03-24 17:11:27.498,2.179196075750153
2025-03-24 17:11:27.498,-5.062596943969196
2025-03-24 17:11:27.498,-7.509977819644113
2025-03-24 17:11:27.509,-3.1388854084003945
2025-03-24 17:11:27.509,2.8803568313191064
2025-03-24 17:11:27.509,5.211970049724212
2025-03-24 17:11:27.509,3.6381153491632148
2025-03-24 17:11:27.509,1.0931755950280528
2025-03-24 17:11:27.517,-0.9297206273781281
2025-03-24 17:11:27.517,-3.0947167784505254
2025-03-24 17:11:27.518,-5.172039181894354
2025-03-24 17:11:27.518,-4.521748723262668
2025-03-24 17:11:27.527,0.8658433386681298
2025-03-24 17:11:27.527,8.100768966468362
2025-03-24 17:11:27.527,10.117814009039536
2025-03-24 17:11:27.528,2.7970252898952075
2025-03-24 17:11:27.528,-8.727228619996485
2025-03-24 17:11:27.537,-13.464281732591468
2025-03-24 17:11:27.537,-6.0847240650587855
2025-03-24 17:11:27.537,6.446291696659835
2025-03-24 17:11:27.537,12.060789873313684
2025-03-24 17:11:27.538,6.69147573231965
2025-03-24 17:11:27.545,-2.401065785235377
2025-03-24 17:11:27.545,-6.273768583887193
2025-03-24 17:11:27.546,-3.9493987908236767
2025-03-24 17:11:27.546,-0.7784853159472513
2025-03-24 17:11:27.546,-0.05366894622440503
2025-03-24 17:11:27.555,0.04149257933068615
2025-03-24 17:11:27.556,1.6086556620467085
2025-03-24 17:11:27.556,2.993044794824146
2025-03-24 17:11:27.556,1.5322418452958857
2025-03-24 17:11:27.556,-1.6749010734546046
2025-03-24 17:11:27.565,-2.522590919745201
2025-03-24 17:11:27.566,0.5396055341424656
2025-03-24 17:11:27.566,3.7834371760847882
2025-03-24 17:11:27.566,2.3498457395318937
2025-03-24 17:11:27.566,-3.5419287886836934
2025-03-24 17:11:27.575,-7.948554131192556
2025-03-24 17:11:27.576,-5.348335702452179
2025-03-24 17:11:27.576,3.1345813454829625
2025-03-24 17:11:27.576,10.349740568627155
2025-03-24 17:11:27.585,9.867365471066845
