timestamp,bandpass_and_notch
2025-03-25 17:26:34.548,0.14363523166359515
2025-03-25 17:26:34.548,0.6383937921374531
2025-03-25 17:26:34.548,0.39782958916074257
2025-03-25 17:26:34.548,-0.36505971215032984
2025-03-25 17:26:35.550,-0.9940982039937547
2025-03-25 17:26:36.114,-0.05648721147574804
2025-03-25 17:26:36.114,3.402715870707423
2025-03-25 17:26:36.114,4.76642083966934
2025-03-25 17:26:36.115,-4.11821457445546
2025-03-25 17:26:36.124,-19.58934082721497
2025-03-25 17:26:36.124,-20.28562286824746
2025-03-25 17:26:36.124,7.859150232829528
2025-03-25 17:26:36.124,42.988697922810445
2025-03-25 17:26:36.124,42.82449402169299
2025-03-25 17:26:36.132,-3.78118694505883
2025-03-25 17:26:36.132,-54.85835433441647
2025-03-25 17:26:36.132,-57.73647830600977
2025-03-25 17:26:36.132,-7.944054993220671
2025-03-25 17:26:36.140,45.82237701196868
2025-03-25 17:26:36.140,54.794920590513826
2025-03-25 17:26:36.140,18.32466627940986
2025-03-25 17:26:36.140,-23.382069861462814
2025-03-25 17:26:36.140,-35.36666631753708
2025-03-25 17:26:36.150,-18.40960000974579
2025-03-25 17:26:36.150,2.881240411401289
2025-03-25 17:26:36.150,11.074752392118551
2025-03-25 17:26:36.150,8.920742230846448
2025-03-25 17:26:36.160,6.6527644440667455
2025-03-25 17:26:36.160,6.264474158427572
2025-03-25 17:26:36.160,2.346275915285136
2025-03-25 17:26:36.160,-6.257337413062101
2025-03-25 17:26:36.160,-12.24101100471565
2025-03-25 17:26:36.170,-8.569757021924394
2025-03-25 17:26:36.170,2.0560083572450605
2025-03-25 17:26:36.170,9.480596431193925
2025-03-25 17:26:36.170,7.434666068419797
2025-03-25 17:26:36.170,0.13187961393116032
2025-03-25 17:26:36.182,-3.697282980218772
2025-03-25 17:26:36.182,-1.5129487616369315
2025-03-25 17:26:36.183,1.1481857320243969
2025-03-25 17:26:36.183,-0.6946171387291677
2025-03-25 17:26:36.183,-4.461590308158744
2025-03-25 17:26:36.190,-3.8812324313549316
2025-03-25 17:26:36.190,2.084607272777164
2025-03-25 17:26:36.190,7.328593832250716
2025-03-25 17:26:36.190,5.865194566020084
2025-03-25 17:26:36.190,-1.118076833041858
2025-03-25 17:26:36.200,-6.698486438528373
2025-03-25 17:26:36.200,-5.854429429996389
2025-03-25 17:26:36.200,-0.3630894089594001
2025-03-25 17:26:36.200,3.982693698943559
2025-03-25 17:26:36.200,3.8412654399153316
2025-03-25 17:26:36.208,0.9804504848230681
2025-03-25 17:26:36.208,-0.9973052525687052
2025-03-25 17:26:36.208,-0.933927601299867
2025-03-25 17:26:36.208,-0.37759808364331804
2025-03-25 17:26:36.208,-0.6991594086522466
2025-03-25 17:26:36.218,-1.381322492327325
2025-03-25 17:26:36.218,-1.1264415327674244
2025-03-25 17:26:36.218,0.3571858741649027
2025-03-25 17:26:36.218,2.0397508412180687
2025-03-25 17:26:36.218,2.5749973067362366
2025-03-25 17:26:36.228,1.3815972430539831
2025-03-25 17:26:36.228,-0.9312148815436673
2025-03-25 17:26:36.228,-2.8832000478521738
2025-03-25 17:26:36.228,-3.029713335757614
2025-03-25 17:26:36.238,-1.043520002929139
2025-03-25 17:26:36.238,1.8002644020204424
2025-03-25 17:26:36.238,3.4021809228720747
2025-03-25 17:26:36.238,2.5256941784196
2025-03-25 17:26:36.238,-0.08970254279096165
2025-03-25 17:26:36.248,-2.3744272452102426
2025-03-25 17:26:36.248,-2.7384963194673944
2025-03-25 17:26:36.248,-1.2402827398583336
2025-03-25 17:26:36.248,0.8075271912115596
2025-03-25 17:26:36.248,2.01289337053504
2025-03-25 17:26:36.261,1.7358437976267973
2025-03-25 17:26:36.261,0.32399336709751836
2025-03-25 17:26:36.262,-1.1175452708718163
2025-03-25 17:26:36.262,-1.4879740115606452
2025-03-25 17:26:36.262,-0.6470975917328813
2025-03-25 17:26:36.271,0.4200744220568436
2025-03-25 17:26:36.271,0.6725095502346505
2025-03-25 17:26:36.271,0.2337144604440593
2025-03-25 17:26:36.271,0.14125802567241358
2025-03-25 17:26:36.272,0.684151109415016
2025-03-25 17:26:36.278,0.6629820983190307
2025-03-25 17:26:36.278,-0.8049478996776377
2025-03-25 17:26:36.278,-2.263233760052174
2025-03-25 17:26:36.278,-1.3523221153906173
2025-03-25 17:26:36.278,1.5504876383847868
2025-03-25 17:26:36.288,3.0656563934267
2025-03-25 17:26:36.288,1.166993803429532
2025-03-25 17:26:36.288,-1.8968802867787635
2025-03-25 17:26:36.288,-2.516127909864076
2025-03-25 17:26:36.288,-0.3187345174158537
2025-03-25 17:26:36.298,1.7942497912706015
2025-03-25 17:26:36.298,1.498458277083108
2025-03-25 17:26:36.298,-0.5780415822916819
2025-03-25 17:26:36.298,-2.055543274349405
2025-03-25 17:26:36.298,-1.2886759198562328
2025-03-25 17:26:36.308,1.2006528071444216
2025-03-25 17:26:36.308,3.0604655188782752
2025-03-25 17:26:36.308,2.134820758916932
2025-03-25 17:26:36.308,-1.2054990001727293
2025-03-25 17:26:36.308,-3.9609238338048804
2025-03-25 17:26:36.318,-3.3290059519409136
2025-03-25 17:26:36.318,0.35724067497121054
2025-03-25 17:26:36.318,3.8288873622084316
2025-03-25 17:26:36.318,4.000288876452743
2025-03-25 17:26:36.318,0.8009205108582997
2025-03-25 17:26:36.328,-2.851699032936533
2025-03-25 17:26:36.328,-3.7260844264836255
2025-03-25 17:26:36.328,-1.2346684092365787
2025-03-25 17:26:36.328,1.990998311284119
2025-03-25 17:26:36.328,2.7078703380035325
2025-03-25 17:26:36.339,0.4636333890474353
2025-03-25 17:26:36.339,-1.9202793789337302
2025-03-25 17:26:36.340,-1.5683472061625758
2025-03-25 17:26:36.340,1.0707552972612513
2025-03-25 17:26:36.340,2.6326989460014687
2025-03-25 17:26:36.348,0.7811791654216049
2025-03-25 17:26:36.348,-2.6894914086818305
2025-03-25 17:26:36.348,-3.5212400267867063
2025-03-25 17:26:36.348,-0.13855961677076958
2025-03-25 17:26:36.348,3.858116362873239
2025-03-25 17:26:36.356,3.6848487792427034
2025-03-25 17:26:36.356,-0.6319104831794027
2025-03-25 17:26:36.356,-4.1069083747632735
2025-03-25 17:26:36.356,-2.9035024230704423
2025-03-25 17:26:36.356,1.2081075207934602
2025-03-25 17:26:36.366,3.4393875948722394
2025-03-25 17:26:36.366,1.7515375810313516
2025-03-25 17:26:36.366,-1.3198454110956461
2025-03-25 17:26:36.366,-2.2182375302058888
2025-03-25 17:26:36.376,-0.49900602273125894
2025-03-25 17:26:36.376,1.158328228307646
2025-03-25 17:26:36.376,0.6293607361770435
2025-03-25 17:26:36.376,-0.9689647879707775
2025-03-25 17:26:36.376,-0.9790496503648627
2025-03-25 17:26:36.386,0.965361566487031
2025-03-25 17:26:36.386,2.2470073149126044
2025-03-25 17:26:36.386,0.83903612884931
2025-03-25 17:26:36.386,-1.7644363686213091
2025-03-25 17:26:36.386,-2.442166266584338
2025-03-25 17:26:36.396,-0.5759134133609563
2025-03-25 17:26:36.396,1.3276506893757123
2025-03-25 17:26:36.396,1.2148477916925295
2025-03-25 17:26:36.396,0.033846244170783246
2025-03-25 17:26:36.396,-0.16794497775211134
2025-03-25 17:26:36.406,0.6131622630325902
2025-03-25 17:26:36.406,0.6277819616756376
2025-03-25 17:26:36.406,-0.7199073756799189
2025-03-25 17:26:36.406,-1.8482982024794858
2025-03-25 17:26:36.406,-1.141041960268437
2025-03-25 17:26:36.416,0.8922990983880452
2025-03-25 17:26:36.416,2.1415279999741883
2025-03-25 17:26:36.416,1.3057499729213795
2025-03-25 17:26:36.416,-0.633661107998801
2025-03-25 17:26:36.416,-1.642775016126266
2025-03-25 17:26:36.426,-1.1145934867248157
2025-03-25 17:26:36.426,-0.2244095270030562
2025-03-25 17:26:36.426,0.2869205965950674
2025-03-25 17:26:36.426,1.0902154377970823
2025-03-25 17:26:36.426,2.155827585088646
2025-03-25 17:26:36.436,1.5761231689237587
2025-03-25 17:26:36.436,-1.5327245662152715
2025-03-25 17:26:36.436,-4.324766970790701
2025-03-25 17:26:36.436,-3.0490717271855257
2025-03-25 17:26:36.436,1.7210984313787752
2025-03-25 17:26:36.446,5.098681729959157
2025-03-25 17:26:36.446,3.6002954075002043
2025-03-25 17:26:36.446,-0.9524645806341749
2025-03-25 17:26:36.446,-4.005493834206076
2025-03-25 17:26:36.446,-3.332299065130737
2025-03-25 17:26:36.456,-0.4578128861007595
2025-03-25 17:26:36.456,1.9543792603593428
2025-03-25 17:26:36.456,2.6165993520189126
2025-03-25 17:26:36.456,1.7055093438315279
2025-03-25 17:26:36.456,-0.06749149596421114
2025-03-25 17:26:36.466,-1.7702073911915446
2025-03-25 17:26:36.466,-2.349695003112586
2025-03-25 17:26:36.466,-1.2444537246973355
2025-03-25 17:26:36.466,0.9757087330417262
2025-03-25 17:26:36.466,2.695462508731409
2025-03-25 17:26:36.474,2.2401330619212616
2025-03-25 17:26:36.474,-0.5335894893754122
2025-03-25 17:26:36.474,-3.3258911800888047
2025-03-25 17:26:36.474,-3.024831865233835
2025-03-25 17:26:36.475,0.7178262887662222
2025-03-25 17:26:36.484,4.1681155923306905
2025-03-25 17:26:36.484,3.2554872285387684
2025-03-25 17:26:36.484,-1.3608646560592483
2025-03-25 17:26:36.484,-4.544375435664543
2025-03-25 17:26:36.494,-2.681204386181724
2025-03-25 17:26:36.494,1.931491768119891
2025-03-25 17:26:36.494,4.007435495042394
2025-03-25 17:26:36.494,1.6944620487804642
2025-03-25 17:26:36.494,-1.7622026894211607
2025-03-25 17:26:36.504,-2.6758286981051236
2025-03-25 17:26:36.504,-1.1388764379307923
2025-03-25 17:26:36.504,0.3908159721513878
2025-03-25 17:26:36.504,0.9358256145738582
2025-03-25 17:26:36.504,1.3821454488429339
2025-03-25 17:26:36.504,1.773992449156364
2025-03-25 17:26:36.514,0.734274515952807
2025-03-25 17:26:36.514,-1.8217241091032685
2025-03-25 17:26:36.514,-3.4165431899435466
2025-03-25 17:26:36.514,-1.8781272997351857
2025-03-25 17:26:36.524,1.5993121265670076
2025-03-25 17:26:36.524,3.6513074344918865
2025-03-25 17:26:36.524,2.4811747770956063
2025-03-25 17:26:36.524,-0.6350660248982561
2025-03-25 17:26:36.524,-3.0581332909011203
2025-03-25 17:26:36.534,-2.9778219901411087
2025-03-25 17:26:36.534,-0.4225926770909653
2025-03-25 17:26:36.534,2.669313816286678
2025-03-25 17:26:36.534,3.5619484525126754
2025-03-25 17:26:36.534,1.145003665793448
2025-03-25 17:26:36.544,-2.511601448187785
2025-03-25 17:26:36.544,-3.9050012571516306
2025-03-25 17:26:36.544,-1.7065197245785573
2025-03-25 17:26:36.544,1.9400505988357548
2025-03-25 17:26:36.544,3.768795474754851
2025-03-25 17:26:36.554,2.395363140776927
2025-03-25 17:26:36.554,-0.9115422054155828
2025-03-25 17:26:36.554,-3.468572050666917
2025-03-25 17:26:36.554,-3.082949513378059
2025-03-25 17:26:36.554,0.11936095335092697
2025-03-25 17:26:36.564,3.2884241195792727
2025-03-25 17:26:36.564,3.2654483080016066
2025-03-25 17:26:36.564,0.04663438686301291
2025-03-25 17:26:36.564,-2.948077460312891
2025-03-25 17:26:36.564,-2.6922861766465394
2025-03-25 17:26:36.574,0.10061067611323771
2025-03-25 17:26:36.574,2.1796579451559555
2025-03-25 17:26:36.574,1.6626427646540476
2025-03-25 17:26:36.574,-0.23061080286165933
2025-03-25 17:26:36.574,-1.1553312956839326
2025-03-25 17:26:36.584,-0.4489955463397728
2025-03-25 17:26:36.584,0.42448806323007887
2025-03-25 17:26:36.584,0.0004034291614308308
2025-03-25 17:26:36.584,-1.0976744337395719
2025-03-25 17:26:36.584,-0.8292691783280688
2025-03-25 17:26:36.594,1.3026092977644002
2025-03-25 17:26:36.594,2.892183702568559
2025-03-25 17:26:36.594,1.3598712989813135
2025-03-25 17:26:36.594,-2.3305087771573167
2025-03-25 17:26:36.594,-4.171826563030127
2025-03-25 17:26:36.604,-1.7974775654184927
2025-03-25 17:26:36.604,2.465567236826842
2025-03-25 17:26:36.604,4.171470095980693
2025-03-25 17:26:36.604,1.8272888888243148
2025-03-25 17:26:36.604,-1.7024329045776458
2025-03-25 17:26:36.614,-2.8512302003742396
2025-03-25 17:26:36.614,-1.2683941502742382
2025-03-25 17:26:36.614,0.6060966831998706
2025-03-25 17:26:36.614,1.0093199872038952
2025-03-25 17:26:36.614,0.4906572054848979
2025-03-25 17:26:36.624,0.18147888170614704
2025-03-25 17:26:36.624,0.08698388214698595
2025-03-25 17:26:36.624,-0.13685532248568374
2025-03-25 17:26:36.624,-0.10423374938880563
2025-03-25 17:26:36.624,0.35602224357668344
2025-03-25 17:26:36.634,0.28212767354246027
2025-03-25 17:26:36.634,-0.8847727626310686
2025-03-25 17:26:36.634,-1.7278304213430626
2025-03-25 17:26:36.634,-0.5654631547986501
2025-03-25 17:26:36.634,1.7871337103259064
2025-03-25 17:26:36.642,2.7148949044192823
2025-03-25 17:26:36.642,1.1009842203171731
2025-03-25 17:26:36.642,-1.5001266576181977
2025-03-25 17:26:36.642,-2.8662737754627625
2025-03-25 17:26:36.642,-2.0957468786052615
2025-03-25 17:26:36.654,0.19266958167543696
2025-03-25 17:26:36.654,2.44573666870968
2025-03-25 17:26:36.654,2.9754683644011406
2025-03-25 17:26:36.654,1.2193260581988263
2025-03-25 17:26:36.654,-1.492538021551069
2025-03-25 17:26:36.664,-2.9562713051911795
2025-03-25 17:26:36.664,-2.117019594837556
2025-03-25 17:26:36.664,0.08684913971840448
2025-03-25 17:26:36.664,1.8337622377791798
2025-03-25 17:26:36.664,2.0897943788842737
2025-03-25 17:26:36.672,1.1619251398771357
2025-03-25 17:26:36.672,-0.037515901541508634
2025-03-25 17:26:36.673,-0.9054477202613773
2025-03-25 17:26:36.673,-1.353738264219023
2025-03-25 17:26:36.683,-1.4353600931259674
2025-03-25 17:26:36.683,-1.0263357275359675
2025-03-25 17:26:36.683,0.043678053705566995
2025-03-25 17:26:36.684,1.537007996717682
2025-03-25 17:26:36.684,2.5728196943945334
2025-03-25 17:26:36.684,2.1008788662380757
2025-03-25 17:26:36.692,-0.08514147356589757
2025-03-25 17:26:36.692,-2.7033466333935463
2025-03-25 17:26:36.692,-3.6471670909440337
2025-03-25 17:26:36.692,-1.817063537247344
2025-03-25 17:26:36.702,1.5238861525811804
2025-03-25 17:26:36.702,3.5893292393069025
2025-03-25 17:26:36.702,2.647502984610187
2025-03-25 17:26:36.702,-0.26176727041991965
2025-03-25 17:26:36.702,-2.3505207481325696
2025-03-25 17:26:36.712,-1.8503294297802124
2025-03-25 17:26:36.712,0.25419149057468904
2025-03-25 17:26:36.712,1.3269214579239115
2025-03-25 17:26:36.712,0.07108316830014558
2025-03-25 17:26:36.712,-1.7647075373513197
2025-03-25 17:26:36.722,-1.3153660781971361
2025-03-25 17:26:36.722,1.6150589115103329
2025-03-25 17:26:36.722,3.680566205337682
2025-03-25 17:26:36.722,1.8422208620951919
2025-03-25 17:26:36.722,-2.494952520124221
2025-03-25 17:26:36.732,-4.607904155205428
2025-03-25 17:26:36.732,-1.9606354476572472
2025-03-25 17:26:36.732,2.6324760420036943
2025-03-25 17:26:36.732,4.198046818767171
2025-03-25 17:26:36.732,1.2909914023524272
2025-03-25 17:26:36.742,-2.5828634496359077
2025-03-25 17:26:36.742,-3.1801778222090733
2025-03-25 17:26:36.742,-0.20798101010525838
2025-03-25 17:26:36.742,2.704677401575763
2025-03-25 17:26:36.742,2.2924328906907627
2025-03-25 17:26:36.752,-0.7869640597232066
2025-03-25 17:26:36.753,-2.9222883179375336
2025-03-25 17:26:36.753,-1.7038568467302588
2025-03-25 17:26:36.753,1.479700991860253
2025-03-25 17:26:36.753,3.1214706655392526
2025-03-25 17:26:36.765,1.4171761478710145
2025-03-25 17:26:36.765,-1.896262610864609
2025-03-25 17:26:36.765,-3.341028217532778
2025-03-25 17:26:36.765,-1.2733597579428226
2025-03-25 17:26:36.766,2.197485319927762
2025-03-25 17:26:36.772,3.223562812968547
2025-03-25 17:26:36.772,0.6282863867517705
2025-03-25 17:26:36.772,-2.3748531336503116
2025-03-25 17:26:36.772,-2.0323808974853637
2025-03-25 17:26:36.772,0.949097514554183
2025-03-25 17:26:36.780,2.2083653715751637
2025-03-25 17:26:36.780,-0.22049379154478646
2025-03-25 17:26:36.780,-2.9227558973033974
2025-03-25 17:26:36.780,-1.6864835597287375
2025-03-25 17:26:36.780,2.4651140600877754
2025-03-25 17:26:36.790,4.226189711688873
2025-03-25 17:26:36.790,0.9378388568899996
2025-03-25 17:26:36.790,-3.6888879584896492
2025-03-25 17:26:36.790,-4.098034421243058
2025-03-25 17:26:36.790,0.12125557543367721
2025-03-25 17:26:36.800,3.7748717117859862
2025-03-25 17:26:36.800,2.6273705514179766
2025-03-25 17:26:36.800,-1.492598771175887
2025-03-25 17:26:36.800,-3.331592633931513
2025-03-25 17:26:36.810,-0.8133209541719351
2025-03-25 17:26:36.810,2.7560416741503286
2025-03-25 17:26:36.810,3.049129616802294
2025-03-25 17:26:36.810,-0.22233584470848083
2025-03-25 17:26:36.810,-3.361844164378495
2025-03-25 17:26:36.820,-3.0455512496153316
2025-03-25 17:26:36.820,0.2584280339957218
2025-03-25 17:26:36.820,3.121671491555034
2025-03-25 17:26:36.820,2.8219126348114134
2025-03-25 17:26:36.820,-0.025677993111374225
2025-03-25 17:26:36.830,-2.3605545675677253
2025-03-25 17:26:36.830,-2.0209201398162926
2025-03-25 17:26:36.830,0.10571831388966452
2025-03-25 17:26:36.831,1.4994148999826535
2025-03-25 17:26:36.831,1.083294988802581
2025-03-25 17:26:36.840,1.1174780944270268e-05
2025-03-25 17:26:36.840,-0.5341974914594134
2025-03-25 17:26:36.840,-0.771719004308165
2025-03-25 17:26:36.840,-1.1705996319750787
2025-03-25 17:26:36.840,-0.8883109183558228
2025-03-25 17:26:36.850,0.9560841977476118
2025-03-25 17:26:36.850,3.072543283514354
2025-03-25 17:26:36.850,2.8288362690002318
2025-03-25 17:26:36.850,-0.3925004782828183
2025-03-25 17:26:36.850,-3.9617036499802207
2025-03-25 17:26:36.863,-4.6660495090426855
2025-03-25 17:26:36.863,-1.8006436471856064
2025-03-25 17:26:36.863,2.5673808378906675
2025-03-25 17:26:36.863,5.405906575996321
2025-03-25 17:26:36.863,4.605085577807267
2025-03-25 17:26:36.870,0.39509708859069803
2025-03-25 17:26:36.870,-4.311290872351025
2025-03-25 17:26:36.870,-5.845008178176092
2025-03-25 17:26:36.870,-3.0232381578070524
2025-03-25 17:26:36.870,1.67093419421053
2025-03-25 17:26:36.880,4.509801634207001
2025-03-25 17:26:36.880,3.876106223855999
2025-03-25 17:26:36.880,1.0691090569686872
2025-03-25 17:26:36.880,-1.6082980158147504
2025-03-25 17:26:36.880,-2.849937987838128
2025-03-25 17:26:36.890,-2.5668440218157094
2025-03-25 17:26:36.890,-1.062419438638109
2025-03-25 17:26:36.890,1.1334559709782364
2025-03-25 17:26:36.890,2.756972661774359
2025-03-25 17:26:36.890,2.2966140306460874
2025-03-25 17:26:36.898,-0.18269343984984965
2025-03-25 17:26:36.898,-2.325887074515076
2025-03-25 17:26:36.898,-1.8285288359647742
2025-03-25 17:26:36.899,0.5232132427096852
2025-03-25 17:26:36.899,1.5225861252754829
2025-03-25 17:26:36.908,-0.11736250095142434
2025-03-25 17:26:36.908,-1.5900846488320988
2025-03-25 17:26:36.908,0.08218982115784232
2025-03-25 17:26:36.909,2.990898548908056
2025-03-25 17:26:36.909,2.257204330165202
2025-03-25 17:26:36.918,-2.5522276429050703
2025-03-25 17:26:36.918,-5.439661406763574
2025-03-25 17:26:36.918,-1.7564067522901994
2025-03-25 17:26:36.918,4.6873574950783246
2025-03-25 17:26:36.928,5.9350744261456665
2025-03-25 17:26:36.928,0.334853813878145
2025-03-25 17:26:36.928,-5.196027170709584
2025-03-25 17:26:36.928,-4.180713730786503
2025-03-25 17:26:36.928,1.3401074302926763
2025-03-25 17:26:36.938,4.100822069184493
2025-03-25 17:26:36.938,1.2426475774139039
2025-03-25 17:26:36.938,-2.6151146646919194
2025-03-25 17:26:36.938,-2.2396129057491643
2025-03-25 17:26:36.938,1.30129150994926
2025-03-25 17:26:36.948,2.7868006779142442
2025-03-25 17:26:36.948,0.31485783074026397
2025-03-25 17:26:36.948,-2.4363052487263146
2025-03-25 17:26:36.948,-1.7021953295685075
2025-03-25 17:26:36.948,1.2684071166668371
2025-03-25 17:26:36.958,2.3226119904135443
2025-03-25 17:26:36.958,0.18137408176726183
2025-03-25 17:26:36.958,-2.1513896071111174
2025-03-25 17:26:36.958,-1.7066909939163457
2025-03-25 17:26:36.958,0.6901628607489543
2025-03-25 17:26:36.968,1.9612613298241919
2025-03-25 17:26:36.968,0.9175854032758337
2025-03-25 17:26:36.968,-0.6136903290760753
2025-03-25 17:26:36.968,-0.6589655018962464
2025-03-25 17:26:36.968,0.26894948524812334
2025-03-25 17:26:36.978,0.22114095377143073
2025-03-25 17:26:36.978,-1.1312293447119315
2025-03-25 17:26:36.978,-1.7877869809659297
2025-03-25 17:26:36.978,-0.20544091152008723
2025-03-25 17:26:36.978,2.238828491409791
2025-03-25 17:26:36.988,2.75885510044001
2025-03-25 17:26:36.988,0.7292603744171363
2025-03-25 17:26:36.988,-1.6559420579127506
2025-03-25 17:26:36.988,-2.347061961228562
2025-03-25 17:26:36.988,-1.556796618042619
2025-03-25 17:26:36.998,-0.43318334247047485
2025-03-25 17:26:36.998,0.7932481967982913
2025-03-25 17:26:36.998,2.1428313213364287
2025-03-25 17:26:36.998,2.5389461649640044
2025-03-25 17:26:36.999,0.8618928032676711
2025-03-25 17:26:37.008,-1.913471893770074
2025-03-25 17:26:37.008,-3.190129640260332
2025-03-25 17:26:37.009,-1.7294268098390315
2025-03-25 17:26:37.009,0.8805570343229442
2025-03-25 17:26:37.009,2.2146896797728997
2025-03-25 17:26:37.018,1.6396442047093085
2025-03-25 17:26:37.018,0.3341934975405974
2025-03-25 17:26:37.018,-0.5894155715637016
2025-03-25 17:26:37.018,-0.9989369921835165
2025-03-25 17:26:37.018,-1.050552868506843
2025-03-25 17:26:37.028,-0.6360829924735569
2025-03-25 17:26:37.028,0.20018462468383771
2025-03-25 17:26:37.028,0.9218565494438413
2025-03-25 17:26:37.028,0.9900400209937981
2025-03-25 17:26:37.028,0.48628186172602295
2025-03-25 17:26:37.036,-0.03889164540451673
2025-03-25 17:26:37.036,-0.3276646628096002
2025-03-25 17:26:37.036,-0.7027071569588045
2025-03-25 17:26:37.036,-1.2627843717955927
2025-03-25 17:26:37.036,-1.1514005171344133
2025-03-25 17:26:37.048,0.40583783433193893
2025-03-25 17:26:37.048,2.319066836336012
2025-03-25 17:26:37.048,2.3250404563716285
2025-03-25 17:26:37.048,0.08119937604139815
2025-03-25 17:26:37.048,-1.9682625950031474
2025-03-25 17:26:37.056,-1.8776757484256015
2025-03-25 17:26:37.056,-0.7283266513311217
2025-03-25 17:26:37.056,-0.3304758449915048
2025-03-25 17:26:37.056,-0.06386473886803601
2025-03-25 17:26:37.066,1.5844665018392623
2025-03-25 17:26:37.066,3.3309188786734905
2025-03-25 17:26:37.066,2.0219154225039966
2025-03-25 17:26:37.066,-2.299118570656247
2025-03-25 17:26:37.067,-5.0244698968815
2025-03-25 17:26:37.078,-2.5157412374975734
2025-03-25 17:26:37.078,2.6438638228022797
2025-03-25 17:26:37.078,4.445949587774905
2025-03-25 17:26:37.079,1.1077517255190492
2025-03-25 17:26:37.079,-2.740896749941746
2025-03-25 17:26:37.086,-2.331140919596997
2025-03-25 17:26:37.086,1.1482665980344948
2025-03-25 17:26:37.086,2.6885050269797746
2025-03-25 17:26:37.086,0.3282683712765426
2025-03-25 17:26:37.086,-2.6511453472843796
2025-03-25 17:26:37.096,-2.430633204683891
2025-03-25 17:26:37.096,0.5794574269684496
2025-03-25 17:26:37.096,2.7287985161610937
2025-03-25 17:26:37.096,1.7915379183331022
2025-03-25 17:26:37.096,-0.6628428669997861
2025-03-25 17:26:37.106,-1.6149108216861983
2025-03-25 17:26:37.106,-0.46612186733898914
2025-03-25 17:26:37.106,0.43272000754170337
2025-03-25 17:26:37.106,-0.5824396102647877
2025-03-25 17:26:37.106,-1.6164032968145736
2025-03-25 17:26:37.116,0.20756668428461725
2025-03-25 17:26:37.116,3.711898536004544
2025-03-25 17:26:37.116,3.936599095257809
2025-03-25 17:26:37.116,-1.227000140016616
2025-03-25 17:26:37.116,-6.811745326542292
2025-03-25 17:26:37.126,-5.809359228557929
2025-03-25 17:26:37.126,1.9710752174470336
2025-03-25 17:26:37.126,8.586531525839321
2025-03-25 17:26:37.126,6.644648480443575
2025-03-25 17:26:37.126,-2.0698244441655924
2025-03-25 17:26:37.136,-8.386936000280475
2025-03-25 17:26:37.136,-5.964348918886202
2025-03-25 17:26:37.136,1.9584688736580467
2025-03-25 17:26:37.136,6.715001077743898
2025-03-25 17:26:37.136,3.9114691994577333
2025-03-25 17:26:37.146,-2.3746469266978223
2025-03-25 17:26:37.146,-4.863013998233352
2025-03-25 17:26:37.146,-1.2768422347504695
2025-03-25 17:26:37.146,3.547947904459683
2025-03-25 17:26:37.146,3.615859903862934
2025-03-25 17:26:37.157,-1.112442821909692
2025-03-25 17:26:37.157,-4.72317880401712
2025-03-25 17:26:37.158,-2.614131768576912
2025-03-25 17:26:37.158,2.742228162554452
2025-03-25 17:26:37.158,4.828555087831471
2025-03-25 17:26:37.166,1.2168905829823402
2025-03-25 17:26:37.166,-3.5320455786228035
2025-03-25 17:26:37.166,-3.7607561638234186
2025-03-25 17:26:37.166,0.41149679944794215
2025-03-25 17:26:37.166,3.785096002040002
2025-03-25 17:26:37.174,2.637934948076792
2025-03-25 17:26:37.174,-1.4004940137614466
2025-03-25 17:26:37.174,-3.9201113199980555
2025-03-25 17:26:37.174,-2.4859943028530287
2025-03-25 17:26:37.174,1.469586567454628
2025-03-25 17:26:37.184,4.210664042462053
2025-03-25 17:26:37.184,2.904271212577628
2025-03-25 17:26:37.184,-1.5278178028430907
2025-03-25 17:26:37.184,-4.6100878708755815
2025-03-25 17:26:37.194,-2.730537424768624
2025-03-25 17:26:37.194,2.3514610438520904
2025-03-25 17:26:37.194,4.9073007687618215
2025-03-25 17:26:37.194,1.8402340344962016
2025-03-25 17:26:37.194,-3.44605559899279
2025-03-25 17:26:37.204,-4.958550030519812
2025-03-25 17:26:37.204,-1.1206583127185064
2025-03-25 17:26:37.204,3.6393813591556974
2025-03-25 17:26:37.204,4.373612477040041
2025-03-25 17:26:37.204,1.1313568809203205
2025-03-25 17:26:37.214,-2.0962253080191138
2025-03-25 17:26:37.214,-2.738564260458619
2025-03-25 17:26:37.214,-1.796968479562352
2025-03-25 17:26:37.214,-0.8298004651943052
2025-03-25 17:26:37.214,0.5058407261648398
2025-03-25 17:26:37.224,2.5830900804944625
2025-03-25 17:26:37.224,3.5660505561549094
2025-03-25 17:26:37.224,1.3714772730924838
2025-03-25 17:26:37.224,-2.775784283787663
2025-03-25 17:26:37.225,-4.844734454708883
2025-03-25 17:26:37.234,-2.4791148952331103
2025-03-25 17:26:37.234,2.1726516268405573
2025-03-25 17:26:37.234,4.684385473612385
2025-03-25 17:26:37.235,2.9102201981231746
2025-03-25 17:26:37.235,-1.112068980956742
2025-03-25 17:26:37.244,-3.580943469365751
2025-03-25 17:26:37.244,-2.7484450483437715
2025-03-25 17:26:37.244,-0.1072027358399949
2025-03-25 17:26:37.244,1.8057071947100014
2025-03-25 17:26:37.245,1.9939817184470845
2025-03-25 17:26:37.254,1.1921028317081457
2025-03-25 17:26:37.254,0.27897702516475437
2025-03-25 17:26:37.254,-0.6254197473371528
2025-03-25 17:26:37.254,-1.5615371680026202
2025-03-25 17:26:37.254,-2.0000337324838346
2025-03-25 17:26:37.264,-1.2087764139031938
2025-03-25 17:26:37.264,0.7516013544590164
2025-03-25 17:26:37.264,2.6682575968363365
2025-03-25 17:26:37.264,2.9397770889298647
2025-03-25 17:26:37.264,0.915488855276635
2025-03-25 17:26:37.274,-2.1799430895245475
2025-03-25 17:26:37.274,-3.789795795667503
2025-03-25 17:26:37.274,-2.251583277415943
2025-03-25 17:26:37.274,1.189273054163378
2025-03-25 17:26:37.274,3.285999431034303
2025-03-25 17:26:37.282,2.2382042683321335
2025-03-25 17:26:37.282,-0.38689034271467543
2025-03-25 17:26:37.283,-1.7738807873244657
2025-03-25 17:26:37.283,-1.1601320573497091
2025-03-25 17:26:37.283,-0.046531323911814346
2025-03-25 17:26:37.294,0.3158894854159566
2025-03-25 17:26:37.294,0.22710657153926284
2025-03-25 17:26:37.294,0.2727541948004735
2025-03-25 17:26:37.294,0.1930150855307364
2025-03-25 17:26:37.294,-0.277535411424504
2025-03-25 17:26:37.304,-0.4685958621461694
2025-03-25 17:26:37.304,0.2716619386928155
2025-03-25 17:26:37.304,1.1782406317148972
2025-03-25 17:26:37.304,0.7596081015811634
2025-03-25 17:26:37.304,-1.0458559621041101
2025-03-25 17:26:37.314,-2.313060629881205
2025-03-25 17:26:37.314,-1.2474763572741232
2025-03-25 17:26:37.314,1.5065540728387619
2025-03-25 17:26:37.314,3.2168491584075984
2025-03-25 17:26:37.314,1.8739283039173666
2025-03-25 17:26:37.322,-1.4969079556109526
2025-03-25 17:26:37.322,-3.603724427316079
2025-03-25 17:26:37.322,-2.2342189614421124
2025-03-25 17:26:37.322,1.2389327884521784
2025-03-25 17:26:37.323,3.1815871214834375
2025-03-25 17:26:37.332,1.7321743996239358
2025-03-25 17:26:37.332,-1.0871435956916131
2025-03-25 17:26:37.332,-1.9174347263835048
2025-03-25 17:26:37.332,-0.22010967242552465
2025-03-25 17:26:37.342,1.2749978648394433
2025-03-25 17:26:37.342,0.3803979774619532
2025-03-25 17:26:37.342,-1.6095154930641138
2025-03-25 17:26:37.342,-1.7473887716080574
2025-03-25 17:26:37.342,0.5548958606153618
2025-03-25 17:26:37.352,2.7063246858458694
2025-03-25 17:26:37.352,2.206515153187486
2025-03-25 17:26:37.352,-0.40166460982624025
2025-03-25 17:26:37.352,-2.442857297663335
2025-03-25 17:26:37.352,-2.2423712065477215
2025-03-25 17:26:37.362,-0.5192100687212116
2025-03-25 17:26:37.362,1.019050431987052
2025-03-25 17:26:37.363,1.5267890016136247
2025-03-25 17:26:37.363,1.2632702400522349
2025-03-25 17:26:37.363,0.6727190664011111
2025-03-25 17:26:37.372,-0.15429591834582032
2025-03-25 17:26:37.372,-1.1170527342065941
2025-03-25 17:26:37.373,-1.6727607846962917
2025-03-25 17:26:37.373,-1.2062779497250415
2025-03-25 17:26:37.373,0.17957390682371807
2025-03-25 17:26:37.382,1.5690918809370087
2025-03-25 17:26:37.382,1.979654874384403
2025-03-25 17:26:37.382,1.0349047966378484
2025-03-25 17:26:37.382,-0.8161876980170172
2025-03-25 17:26:37.383,-2.296294343837844
2025-03-25 17:26:37.392,-1.9499493137730395
2025-03-25 17:26:37.392,0.2942125421388397
2025-03-25 17:26:37.392,2.3979015192685784
2025-03-25 17:26:37.392,2.119768969680805
2025-03-25 17:26:37.392,-0.2588131085624889
2025-03-25 17:26:37.402,-2.1147873729606244
2025-03-25 17:26:37.402,-1.6153671130111213
2025-03-25 17:26:37.402,0.2793955274509033
2025-03-25 17:26:37.402,1.3427188895414137
2025-03-25 17:26:37.402,0.7796169809120934
2025-03-25 17:26:37.412,-0.2563326054195976
2025-03-25 17:26:37.412,-0.41621485256310636
2025-03-25 17:26:37.412,0.2564789290172994
2025-03-25 17:26:37.412,0.5824855924794631
2025-03-25 17:26:37.412,-0.17195692822154474
2025-03-25 17:26:37.422,-1.2361370812799441
2025-03-25 17:26:37.422,-1.1607631377485208
2025-03-25 17:26:37.422,0.2577504089853828
2025-03-25 17:26:37.422,1.4774842702301325
2025-03-25 17:26:37.422,1.1402775560909075
2025-03-25 17:26:37.430,-0.10778934878706502
2025-03-25 17:26:37.431,-0.633429263471223
2025-03-25 17:26:37.431,-0.1722082840614589
2025-03-25 17:26:37.431,0.0883391909047027
2025-03-25 17:26:37.431,-0.40064332619619547
2025-03-25 17:26:37.440,-0.7948779289366268
2025-03-25 17:26:37.441,-0.41181494503885147
2025-03-25 17:26:37.441,0.25609601531073545
2025-03-25 17:26:37.441,0.5872629699698223
2025-03-25 17:26:37.441,0.8048203990632111
2025-03-25 17:26:37.455,1.1471570898961265
2025-03-25 17:26:37.455,0.8911057232674325
2025-03-25 17:26:37.456,-0.673604997461895
2025-03-25 17:26:37.456,-2.534065241283434
2025-03-25 17:26:37.460,-2.4780798599330383
2025-03-25 17:26:37.460,0.11075176552817215
2025-03-25 17:26:37.460,2.845005815632042
2025-03-25 17:26:37.461,2.776756702429639
2025-03-25 17:26:37.461,0.007930709903382738
2025-03-25 17:26:37.461,-2.2703308000034292
2025-03-25 17:26:37.470,-1.611138650311523
2025-03-25 17:26:37.470,0.8160513375723988
2025-03-25 17:26:37.470,1.857272129213683
2025-03-25 17:26:37.471,0.2222291659055163
2025-03-25 17:26:37.471,-2.1508595399964703
2025-03-25 17:26:37.482,-2.412497346264743
2025-03-25 17:26:37.482,0.11028359482025614
2025-03-25 17:26:37.482,3.161477062225997
2025-03-25 17:26:37.482,3.653437182605954
2025-03-25 17:26:37.482,0.7021791876037491
2025-03-25 17:26:37.490,-3.207534943015721
2025-03-25 17:26:37.490,-4.404258728938691
2025-03-25 17:26:37.491,-1.7311900728594716
2025-03-25 17:26:37.491,2.2005799615399293
2025-03-25 17:26:37.491,3.799042183628037
2025-03-25 17:26:37.500,2.145943250861592
2025-03-25 17:26:37.500,-0.6290981820528747
2025-03-25 17:26:37.500,-2.12966467538123
2025-03-25 17:26:37.501,-1.8791281871159884
2025-03-25 17:26:37.510,-0.8084169381677593
2025-03-25 17:26:37.510,0.2980406420749331
2025-03-25 17:26:37.510,1.197608714255466
2025-03-25 17:26:37.510,1.6106053120015036
2025-03-25 17:26:37.511,1.1133912411628517
2025-03-25 17:26:37.521,-0.22374650845676328
2025-03-25 17:26:37.521,-1.5271255505504304
2025-03-25 17:26:37.521,-1.8155458626153755
2025-03-25 17:26:37.521,-0.9274526596309501
2025-03-25 17:26:37.521,0.4667452266681487
2025-03-25 17:26:37.530,1.583070769598965
2025-03-25 17:26:37.530,1.8889831634123913
2025-03-25 17:26:37.530,1.0657910661706027
2025-03-25 17:26:37.530,-0.6256296159582181
2025-03-25 17:26:37.530,-1.9862377136853409
2025-03-25 17:26:37.540,-1.7794255229673417
2025-03-25 17:26:37.540,-0.26850203842949366
2025-03-25 17:26:37.540,0.8979487126601748
2025-03-25 17:26:37.540,0.7405376785076985
2025-03-25 17:26:37.540,0.18296354291013478
2025-03-25 17:26:37.550,0.5656769619720846
2025-03-25 17:26:37.550,1.4652930015123113
2025-03-25 17:26:37.550,1.0807972770791392
2025-03-25 17:26:37.550,-1.1026895560164998
2025-03-25 17:26:37.550,-3.085560876076964
2025-03-25 17:26:37.560,-2.5345875788221797
2025-03-25 17:26:37.560,0.3218759853085385
2025-03-25 17:26:37.560,2.8383924460820653
2025-03-25 17:26:37.560,2.888435727486187
2025-03-25 17:26:37.561,0.9026937604790465
2025-03-25 17:26:37.570,-1.1185583867192592
2025-03-25 17:26:37.570,-1.8581489042266208
2025-03-25 17:26:37.570,-1.4652074005239057
2025-03-25 17:26:37.570,-0.6250318823592002
2025-03-25 17:26:37.570,0.29872745139330076
2025-03-25 17:26:37.582,1.098284480209798
2025-03-25 17:26:37.582,1.3605179360175297
2025-03-25 17:26:37.583,0.7718633954010798
2025-03-25 17:26:37.583,-0.3437920437019916
2025-03-25 17:26:37.583,-1.1321747793788726
2025-03-25 17:26:37.592,-0.9799241328583789
2025-03-25 17:26:37.592,-0.12753677279541337
2025-03-25 17:26:37.592,0.5848784620075503
2025-03-25 17:26:37.592,0.6053025074085749
2025-03-25 17:26:37.593,0.15595518199396555
2025-03-25 17:26:37.600,-0.21376935443302714
2025-03-25 17:26:37.600,-0.2566040242457367
2025-03-25 17:26:37.600,-0.04864134059203609
2025-03-25 17:26:37.600,0.22767803662602717
2025-03-25 17:26:37.600,0.2719626824398641
2025-03-25 17:26:37.610,-0.13036841976191282
2025-03-25 17:26:37.610,-0.6083625267987627
2025-03-25 17:26:37.610,-0.40617585937595935
2025-03-25 17:26:37.610,0.5323495515763831
2025-03-25 17:26:37.610,1.1516352641188157
2025-03-25 17:26:37.618,0.4879433862981246
2025-03-25 17:26:37.618,-0.9643074244569022
2025-03-25 17:26:37.618,-1.6298728931064916
2025-03-25 17:26:37.618,-0.6540051858469728
2025-03-25 17:26:37.619,1.0119472541947192
2025-03-25 17:26:37.628,1.6084108197873195
2025-03-25 17:26:37.628,0.6396293296612852
2025-03-25 17:26:37.629,-0.48438359157441574
2025-03-25 17:26:37.629,-0.36783089342050335
2025-03-25 17:26:37.629,0.24783819738098073
2025-03-25 17:26:37.638,-0.45888684108837946
2025-03-25 17:26:37.638,-2.1424285123718168
2025-03-25 17:26:37.638,-1.9927890512031878
2025-03-25 17:26:37.639,1.181808849997922
2025-03-25 17:26:37.648,4.309994531708246
2025-03-25 17:26:37.648,3.51544860677499
2025-03-25 17:26:37.648,-0.731055002097929
2025-03-25 17:26:37.648,-4.111034657283909
2025-03-25 17:26:37.648,-3.779342607553659
2025-03-25 17:26:37.659,-1.0406672158562476
2025-03-25 17:26:37.659,1.4095900769437706
2025-03-25 17:26:37.659,2.652135090602483
2025-03-25 17:26:37.659,2.9576639800437072
2025-03-25 17:26:37.660,1.930320299491607
2025-03-25 17:26:37.668,-0.8062143381267693
2025-03-25 17:26:37.668,-3.699182174661565
2025-03-25 17:26:37.668,-3.985920836642194
2025-03-25 17:26:37.668,-0.8722421879202897
2025-03-25 17:26:37.668,3.0323636013170923
2025-03-25 17:26:37.678,4.204212758653214
2025-03-25 17:26:37.678,1.8031978665125643
2025-03-25 17:26:37.678,-1.6668756000543032
2025-03-25 17:26:37.678,-3.0989294777386163
2025-03-25 17:26:37.678,-1.7739934105509316
2025-03-25 17:26:37.688,0.4027603130557734
2025-03-25 17:26:37.688,1.3042781319001202
2025-03-25 17:26:37.688,0.785232208058392
2025-03-25 17:26:37.688,0.28158760504216995
2025-03-25 17:26:37.688,0.595611847175758
2025-03-25 17:26:37.698,0.8531065478166286
2025-03-25 17:26:37.698,-0.08173241222822278
2025-03-25 17:26:37.698,-1.7846261518045434
2025-03-25 17:26:37.698,-2.5024251273875535
2025-03-25 17:26:37.698,-1.0899226716005417
2025-03-25 17:26:37.708,1.657714651570015
2025-03-25 17:26:37.708,3.54044383076973
2025-03-25 17:26:37.708,2.716147584612433
2025-03-25 17:26:37.708,-0.5984543100794832
2025-03-25 17:26:37.708,-3.786974995970358
2025-03-25 17:26:37.718,-3.7887963606787713
2025-03-25 17:26:37.718,-0.25975673144541755
2025-03-25 17:26:37.718,3.4925127898570967
2025-03-25 17:26:37.718,3.698375216798338
2025-03-25 17:26:37.718,0.28682321725456905
2025-03-25 17:26:37.728,-2.998167279780119
2025-03-25 17:26:37.728,-2.825567656014617
2025-03-25 17:26:37.728,0.1742512946249838
2025-03-25 17:26:37.728,2.512057149247875
2025-03-25 17:26:37.729,1.884035261741446
2025-03-25 17:26:37.738,-0.5804052390857897
2025-03-25 17:26:37.738,-1.9964727519408927
2025-03-25 17:26:37.738,-1.0328285607134329
2025-03-25 17:26:37.738,0.8285917333373176
2025-03-25 17:26:37.738,1.263600142944651
2025-03-25 17:26:37.746,-0.050009278461924586
2025-03-25 17:26:37.746,-1.1009964969958956
2025-03-25 17:26:37.746,-0.25740037101021296
2025-03-25 17:26:37.747,1.388937170844685
2025-03-25 17:26:37.747,1.3708387309250825
2025-03-25 17:26:37.756,-0.6878296810547666
2025-03-25 17:26:37.756,-2.3237159394987845
2025-03-25 17:26:37.756,-1.4303664723677938
2025-03-25 17:26:37.756,1.0062735565038294
2025-03-25 17:26:37.766,2.2903197300018325
2025-03-25 17:26:37.766,1.3008354891293874
2025-03-25 17:26:37.766,-0.6406655083111917
2025-03-25 17:26:37.766,-1.6668935859173688
2025-03-25 17:26:37.766,-1.1322317623510392
2025-03-25 17:26:37.776,0.2543631412383972
2025-03-25 17:26:37.776,1.2325420233796098
2025-03-25 17:26:37.776,0.9806508484936884
2025-03-25 17:26:37.776,-0.19712709284551452
2025-03-25 17:26:37.776,-1.1762416808704033
2025-03-25 17:26:37.786,-1.1084041317531659
2025-03-25 17:26:37.786,-0.06725996900396027
2025-03-25 17:26:37.786,1.2013682500842724
2025-03-25 17:26:37.786,1.7477259737783597
2025-03-25 17:26:37.786,0.9122836085567535
2025-03-25 17:26:37.796,-0.9516151848497307
2025-03-25 17:26:37.796,-2.3261629078478765
2025-03-25 17:26:37.796,-1.8201482629561865
2025-03-25 17:26:37.797,0.22935445087903822
2025-03-25 17:26:37.797,1.9574046937902272
2025-03-25 17:26:37.806,1.9470043670983768
2025-03-25 17:26:37.806,0.592721540697203
2025-03-25 17:26:37.806,-0.6674044369415677
2025-03-25 17:26:37.806,-1.0089805214177074
2025-03-25 17:26:37.806,-0.7445460634050062
2025-03-25 17:26:37.816,-0.5099265147585008
2025-03-25 17:26:37.816,-0.4173931944524927
2025-03-25 17:26:37.816,-0.0632173093975687
2025-03-25 17:26:37.816,0.7774079828780628
2025-03-25 17:26:37.816,1.5270696952499052
2025-03-25 17:26:37.824,1.157617933042675
2025-03-25 17:26:37.824,-0.46596299414959313
2025-03-25 17:26:37.824,-1.9096358494671912
2025-03-25 17:26:37.825,-1.588583552063908
2025-03-25 17:26:37.825,0.2184666045819329
2025-03-25 17:26:37.834,1.5931045562556179
2025-03-25 17:26:37.834,1.281358866548428
2025-03-25 17:26:37.834,-0.032024417025836
2025-03-25 17:26:37.834,-0.9178051087495444
2025-03-25 17:26:37.844,-0.8671124245417804
2025-03-25 17:26:37.844,-0.35954510720961536
2025-03-25 17:26:37.844,0.14178788417515423
2025-03-25 17:26:37.844,0.6140559444233468
2025-03-25 17:26:37.844,0.9627925335759573
2025-03-25 17:26:37.845,0.6821357063946859
2025-03-25 17:26:37.854,-0.45811657613583945
2025-03-25 17:26:37.854,-1.5524665041966932
2025-03-25 17:26:37.854,-1.208888361964512
2025-03-25 17:26:37.854,0.5516794893934407
2025-03-25 17:26:37.866,1.8178320921482471
2025-03-25 17:26:37.866,1.0119968833473898
2025-03-25 17:26:37.866,-0.9421296156827275
2025-03-25 17:26:37.866,-1.6932780529705298
2025-03-25 17:26:37.867,-0.4549233429493138
2025-03-25 17:26:37.874,1.1778907027866117
2025-03-25 17:26:37.874,1.459156596653691
2025-03-25 17:26:37.874,0.44287865539372107
2025-03-25 17:26:37.874,-0.6822226425933948
2025-03-25 17:26:37.875,-1.2259739481646026
2025-03-25 17:26:37.884,-1.2178184371667096
2025-03-25 17:26:37.884,-0.6287707887038412
2025-03-25 17:26:37.884,0.6539883793674849
2025-03-25 17:26:37.884,2.0668936939601346
2025-03-25 17:26:37.884,2.2930298325208796
2025-03-25 17:26:37.894,0.497803224649864
2025-03-25 17:26:37.894,-2.3170217793031846
2025-03-25 17:26:37.894,-3.6617434143922805
2025-03-25 17:26:37.894,-1.8685070201693939
2025-03-25 17:26:37.894,1.8645074401833732
2025-03-25 17:26:37.904,4.2246242517838954
2025-03-25 17:26:37.904,2.938362170612428
2025-03-25 17:26:37.904,-0.9125574710552118
2025-03-25 17:26:37.904,-3.891264530687179
2025-03-25 17:26:37.904,-3.4843980063980218
2025-03-25 17:26:37.914,-0.2945063749483666
2025-03-25 17:26:37.914,2.8718582038603717
2025-03-25 17:26:37.914,3.6482141832909454
2025-03-25 17:26:37.914,1.7132093385463192
2025-03-25 17:26:37.914,-1.4831299386598724
2025-03-25 17:26:37.925,-3.732840808164151
2025-03-25 17:26:37.925,-3.221027700525368
2025-03-25 17:26:37.925,0.04027920354046172
2025-03-25 17:26:37.925,3.591076512091205
2025-03-25 17:26:37.925,4.280964066780164
2025-03-25 17:26:37.934,1.3067473341458373
2025-03-25 17:26:37.934,-2.7904987308894325
2025-03-25 17:26:37.934,-4.448565797819755
2025-03-25 17:26:37.934,-2.327872597215571
2025-03-25 17:26:37.934,1.6010354368950521
2025-03-25 17:26:37.942,3.884573643220402
2025-03-25 17:26:37.942,2.625558113615902
2025-03-25 17:26:37.943,-0.8720544872758973
2025-03-25 17:26:37.943,-3.299195913117554
2025-03-25 17:26:37.943,-2.3473789844660313
2025-03-25 17:26:37.952,1.0809188004428492
2025-03-25 17:26:37.952,3.482158222645986
2025-03-25 17:26:37.952,2.076850350781556
2025-03-25 17:26:37.952,-1.969665278779816
2025-03-25 17:26:37.953,-4.243753769115283
2025-03-25 17:26:37.962,-1.9029311495790964
2025-03-25 17:26:37.962,2.683956872202187
2025-03-25 17:26:37.962,4.400440769649352
2025-03-25 17:26:37.962,1.4244586641237755
2025-03-25 17:26:37.963,-2.642402994416743
2025-03-25 17:26:37.972,-3.277213078853632
2025-03-25 17:26:37.972,-0.3961847101707791
2025-03-25 17:26:37.972,2.114845969355085
2025-03-25 17:26:37.972,1.5912320455666733
2025-03-25 17:26:37.982,-0.546588087645953
2025-03-25 17:26:37.982,-1.4975454539296595
2025-03-25 17:26:37.982,-0.7970157720587273
2025-03-25 17:26:37.982,0.09194526610747894
2025-03-25 17:26:37.982,0.6259546382198454
2025-03-25 17:26:37.995,1.4497957652134323
2025-03-25 17:26:37.995,2.096435437197034
2025-03-25 17:26:37.995,0.804955155768033
2025-03-25 17:26:37.996,-2.4402492263646667
2025-03-25 17:26:37.996,-4.499694630850052
2025-03-25 17:26:38.002,-2.433548974986193
2025-03-25 17:26:38.002,2.4145721169993646
2025-03-25 17:26:38.002,5.3079535855423075
2025-03-25 17:26:38.003,3.276171898081565
2025-03-25 17:26:38.003,-1.5823888229683767
2025-03-25 17:26:38.012,-4.386886586969285
2025-03-25 17:26:38.012,-2.643004554703187
2025-03-25 17:26:38.012,1.3125883873092816
2025-03-25 17:26:38.012,3.062000269756643
2025-03-25 17:26:38.012,0.9741116434150634
2025-03-25 17:26:38.022,-2.1570121164464493
2025-03-25 17:26:38.022,-2.487144901368432
2025-03-25 17:26:38.022,0.4167751468651357
2025-03-25 17:26:38.022,3.1931101664763135
2025-03-25 17:26:38.022,2.6653833847816952
2025-03-25 17:26:38.032,-0.6258632388018288
2025-03-25 17:26:38.032,-3.2855540685133353
2025-03-25 17:26:38.032,-2.866077041528263
2025-03-25 17:26:38.032,-0.107652225253806
2025-03-25 17:26:38.032,2.3494827828197273
2025-03-25 17:26:38.042,2.643065719395695
2025-03-25 17:26:38.042,0.9458808864229916
2025-03-25 17:26:38.042,-1.1722145135285147
2025-03-25 17:26:38.042,-2.1038438119729763
2025-03-25 17:26:38.042,-1.3102278115893375
2025-03-25 17:26:38.052,0.3529418911002565
2025-03-25 17:26:38.052,1.4069336296098074
2025-03-25 17:26:38.052,1.1188304263415207
2025-03-25 17:26:38.052,0.11516710692742452
2025-03-25 17:26:38.052,-0.48033161121139223
2025-03-25 17:26:38.061,-0.3816702405034246
2025-03-25 17:26:38.061,-0.30564702912865704
2025-03-25 17:26:38.062,-0.7540518818157055
2025-03-25 17:26:38.062,-1.0396984403112581
2025-03-25 17:26:38.062,-0.04245338671797025
2025-03-25 17:26:38.071,2.0074960084419877
2025-03-25 17:26:38.071,3.0420517335340453
2025-03-25 17:26:38.071,1.1505301124203395
2025-03-25 17:26:38.071,-2.7411803029005575
2025-03-25 17:26:38.071,-4.88913514316948
2025-03-25 17:26:38.080,-2.464460767898776
2025-03-25 17:26:38.081,2.7121575421584043
2025-03-25 17:26:38.081,5.418853673486176
2025-03-25 17:26:38.081,2.7860157400812855
2025-03-25 17:26:38.081,-2.1792740026571398
2025-03-25 17:26:38.090,-4.063738390936224
2025-03-25 17:26:38.090,-1.4630608128926006
2025-03-25 17:26:38.091,1.7305253927203903
2025-03-25 17:26:38.091,1.6258682763863186
2025-03-25 17:26:38.100,-0.8531840213118935
2025-03-25 17:26:38.100,-1.7393574711257223
2025-03-25 17:26:38.100,0.4131485715657853
2025-03-25 17:26:38.100,2.7013511606956784
2025-03-25 17:26:38.100,1.9128871659406028
2025-03-25 17:26:38.110,-1.2244267165681575
2025-03-25 17:26:38.110,-3.0780299537443474
2025-03-25 17:26:38.110,-1.7061859150563172
2025-03-25 17:26:38.110,1.0405342761031897
2025-03-25 17:26:38.110,2.1785807483216013
2025-03-25 17:26:38.120,1.1037034093365663
2025-03-25 17:26:38.120,-0.3934928622258991
2025-03-25 17:26:38.120,-0.8755292007613444
2025-03-25 17:26:38.120,-0.7084592874510631
2025-03-25 17:26:38.120,-0.6431800168953232
2025-03-25 17:26:38.130,-0.23578594717089582
2025-03-25 17:26:38.130,1.1647603369592439
2025-03-25 17:26:38.130,2.3677593736430467
2025-03-25 17:26:38.130,1.0626497942158653
2025-03-25 17:26:38.131,-2.607874177213869
2025-03-25 17:26:38.140,-4.706704131538357
2025-03-25 17:26:38.140,-1.7088970936525438
2025-03-25 17:26:38.140,4.303220390573522
2025-03-25 17:26:38.140,6.864561353929515
2025-03-25 17:26:38.140,2.436476735324325
2025-03-25 17:26:38.150,-4.988595844671115
2025-03-25 17:26:38.150,-7.942243260476352
2025-03-25 17:26:38.150,-3.496806747099372
2025-03-25 17:26:38.150,3.9329906973752284
2025-03-25 17:26:38.150,7.5130663859986955
2025-03-25 17:26:38.158,4.628775527452204
2025-03-25 17:26:38.158,-1.459989069452785
2025-03-25 17:26:38.158,-5.5241268015804
2025-03-25 17:26:38.159,-5.0864089047099785
2025-03-25 17:26:38.159,-1.5363356736636817
2025-03-25 17:26:38.170,2.276097704890463
2025-03-25 17:26:38.170,4.440295507459301
2025-03-25 17:26:38.170,4.162611148086901
2025-03-25 17:26:38.170,1.2600263225674677
2025-03-25 17:26:38.170,-3.052778022574915
2025-03-25 17:26:38.180,-5.61378570781494
2025-03-25 17:26:38.180,-3.6621574129513474
2025-03-25 17:26:38.180,1.6152793180142682
2025-03-25 17:26:38.180,5.356815106689398
2025-03-25 17:26:38.180,4.013550797047438
2025-03-25 17:26:38.188,-0.664906457830184
2025-03-25 17:26:38.188,-3.719490198997724
2025-03-25 17:26:38.189,-2.6007916434184026
2025-03-25 17:26:38.189,0.5191230082217269
2025-03-25 17:26:38.189,1.9738001420576454
2025-03-25 17:26:38.200,0.7568716484502074
2025-03-25 17:26:38.200,-1.1465776234125669
2025-03-25 17:26:38.200,-1.4970111002855666
2025-03-25 17:26:38.200,0.11884975328431124
2025-03-25 17:26:38.200,2.269188094602804
2025-03-25 17:26:38.208,2.740651685064308
2025-03-25 17:26:38.208,0.26253704981246184
2025-03-25 17:26:38.208,-3.5991810518336718
2025-03-25 17:26:38.209,-4.862023272415879
2025-03-25 17:26:38.218,-1.1780294426599185
2025-03-25 17:26:38.218,4.548926060132242
2025-03-25 17:26:38.218,6.420943972245472
2025-03-25 17:26:38.218,2.10068821807952
2025-03-25 17:26:38.218,-4.245177587350067
2025-03-25 17:26:38.228,-6.464844355009918
2025-03-25 17:26:38.228,-2.9326548335118687
2025-03-25 17:26:38.228,2.4274737408549387
2025-03-25 17:26:38.228,4.879767289557837
2025-03-25 17:26:38.228,3.3181736508644537
2025-03-25 17:26:38.229,0.09432586904459922
2025-03-25 17:26:38.238,-2.1694913115733367
2025-03-25 17:26:38.239,-2.691505651655724
2025-03-25 17:26:38.239,-2.030880844043644
2025-03-25 17:26:38.239,-0.7220441183552687
2025-03-25 17:26:38.248,0.9836134987810264
2025-03-25 17:26:38.248,2.455994407115579
2025-03-25 17:26:38.248,2.6307161076314856
2025-03-25 17:26:38.248,1.0376410710020996
2025-03-25 17:26:38.249,-1.3589201248662046
2025-03-25 17:26:38.262,-2.777684257902276
2025-03-25 17:26:38.262,-2.207196488167964
2025-03-25 17:26:38.262,-0.2758662286048276
2025-03-25 17:26:38.263,1.4362029600727588
2025-03-25 17:26:38.263,1.8107721533351564
2025-03-25 17:26:38.268,1.0097230517667692
2025-03-25 17:26:38.268,0.15540434010120352
2025-03-25 17:26:38.268,0.12088314565363667
2025-03-25 17:26:38.268,0.3367432954405586
2025-03-25 17:26:38.269,-0.77703120234024
2025-03-25 17:26:38.278,-3.24245807937707
2025-03-25 17:26:38.278,-3.8998950536016683
2025-03-25 17:26:38.278,0.3280803174397777
2025-03-25 17:26:38.278,6.818884147622004
2025-03-25 17:26:38.279,7.933287089677447
2025-03-25 17:26:38.288,0.18595612619750834
2025-03-25 17:26:38.288,-9.295731211018905
2025-03-25 17:26:38.289,-9.708462279700166
2025-03-25 17:26:38.289,0.09753800939617052
2025-03-25 17:26:38.289,9.363593688208063
2025-03-25 17:26:38.298,8.115335775770877
2025-03-25 17:26:38.298,-1.1494922692239595
2025-03-25 17:26:38.298,-7.340684455754423
2025-03-25 17:26:38.299,-4.459857195052169
2025-03-25 17:26:38.299,2.3363968689401506
2025-03-25 17:26:38.309,4.5620340200702465
2025-03-25 17:26:38.309,0.812762802611443
2025-03-25 17:26:38.309,-2.998204674488513
2025-03-25 17:26:38.309,-2.1199074240893148
2025-03-25 17:26:38.309,1.5312135231568786
2025-03-25 17:26:38.318,2.929890438385612
2025-03-25 17:26:38.318,0.6032772225181379
2025-03-25 17:26:38.318,-2.239569535986149
2025-03-25 17:26:38.318,-2.369377916199919
2025-03-25 17:26:38.319,-0.19839891633891585
2025-03-25 17:26:38.328,1.5998041365012652
2025-03-25 17:26:38.328,1.564310577364488
2025-03-25 17:26:38.328,0.47947328351751917
2025-03-25 17:26:38.328,-0.33719240867036226
2025-03-25 17:26:38.328,-0.5969830325852515
2025-03-25 17:26:38.338,-0.7350735313291662
2025-03-25 17:26:38.338,-0.7489993781665484
2025-03-25 17:26:38.338,-0.09290868528177307
2025-03-25 17:26:38.338,1.0454775652562596
2025-03-25 17:26:38.338,1.1552608126860227
2025-03-25 17:26:38.348,-0.6354754260723074
2025-03-25 17:26:38.348,-2.2596041451125495
2025-03-25 17:26:38.348,-0.5941753187284942
2025-03-25 17:26:38.348,3.435164396736771
2025-03-25 17:26:38.348,4.313544013101047
2025-03-25 17:26:38.356,-0.8811881162323651
2025-03-25 17:26:38.356,-6.826803683691539
2025-03-25 17:26:38.357,-5.584307156036829
2025-03-25 17:26:38.357,2.5129642762038684
2025-03-25 17:26:38.357,8.114882574629412
2025-03-25 17:26:38.367,4.563362386670268
2025-03-25 17:26:38.367,-3.4830994049294364
2025-03-25 17:26:38.367,-6.280345419952635
2025-03-25 17:26:38.367,-1.4748162055167737
2025-03-25 17:26:38.376,3.786041631055052
2025-03-25 17:26:38.376,2.9293383938329502
2025-03-25 17:26:38.376,-1.9134452253230494
2025-03-25 17:26:38.376,-3.7778986552922493
2025-03-25 17:26:38.376,-0.3148268414523831
2025-03-25 17:26:38.386,3.766827921027202
2025-03-25 17:26:38.386,3.3543465677010933
2025-03-25 17:26:38.386,-0.7644013396704853
2025-03-25 17:26:38.386,-3.566613315155436
2025-03-25 17:26:38.386,-2.246811608408282
2025-03-25 17:26:38.396,0.9461684510569448
2025-03-25 17:26:38.396,2.202797922396155
2025-03-25 17:26:38.396,0.7618852659003127
2025-03-25 17:26:38.396,-0.9407344391278417
2025-03-25 17:26:38.396,-0.8583383500474749
2025-03-25 17:26:38.406,0.3608585770433631
2025-03-25 17:26:38.406,0.8378799366841692
2025-03-25 17:26:38.406,0.07429030812591923
2025-03-25 17:26:38.406,-0.7835517794360841
2025-03-25 17:26:38.407,-0.7181453800031052
2025-03-25 17:26:38.416,0.16563204109601715
2025-03-25 17:26:38.416,1.1631210753892427
2025-03-25 17:26:38.416,1.3895030630822267
2025-03-25 17:26:38.416,-0.028339136274650525
2025-03-25 17:26:38.416,-2.631099213026701
2025-03-25 17:26:38.426,-3.6195555977812686
2025-03-25 17:26:38.427,-0.40950455145526876
2025-03-25 17:26:38.427,5.028797046058861
2025-03-25 17:26:38.427,6.684558859510464
2025-03-25 17:26:38.427,1.3037969424538542
2025-03-25 17:26:38.436,-6.576698090330918
2025-03-25 17:26:38.436,-8.707629706198949
2025-03-25 17:26:38.436,-2.375448463780969
2025-03-25 17:26:38.436,6.138572122800123
2025-03-25 17:26:38.436,8.297033596740723
2025-03-25 17:26:38.446,2.5760130076952827
2025-03-25 17:26:38.446,-4.3765798064727
2025-03-25 17:26:38.446,-5.657237962261123
2025-03-25 17:26:38.446,-1.4439547195291456
2025-03-25 17:26:38.446,2.5287371989637957
2025-03-25 17:26:38.454,2.3870976677025553
2025-03-25 17:26:38.454,-0.12330836693090264
2025-03-25 17:26:38.454,-1.2068172429904325
2025-03-25 17:26:38.455,-0.08070367835704159
2025-03-25 17:26:38.455,0.9516177408455886
2025-03-25 17:26:38.464,0.33525978669804113
2025-03-25 17:26:38.465,-0.7923720160593043
2025-03-25 17:26:38.465,-0.7207967257295764
2025-03-25 17:26:38.465,0.277093872521921
2025-03-25 17:26:38.465,0.6099792706969969
2025-03-25 17:26:38.475,-0.08332538952399411
2025-03-25 17:26:38.475,-0.4835269900745698
2025-03-25 17:26:38.475,0.15586651102878024
2025-03-25 17:26:38.475,0.7190295254684743
2025-03-25 17:26:38.475,0.07892650828985068
2025-03-25 17:26:38.485,-0.8889222653774067
2025-03-25 17:26:38.485,-0.6000147433885933
2025-03-25 17:26:38.485,0.5693204512346505
2025-03-25 17:26:38.485,0.7276612949453286
2025-03-25 17:26:38.494,-0.40277453962033233
2025-03-25 17:26:38.495,-0.7658482458759975
2025-03-25 17:26:38.495,0.7520636461489365
2025-03-25 17:26:38.495,2.011135002494729
2025-03-25 17:26:38.495,0.3708374634071214
2025-03-25 17:26:38.506,-2.999933806158714
2025-03-25 17:26:38.506,-3.7804815940569254
2025-03-25 17:26:38.507,-0.016841033180675813
2025-03-25 17:26:38.507,4.722367608571812
2025-03-25 17:26:38.507,5.110057704879976
2025-03-25 17:26:38.514,0.33274233000536013
2025-03-25 17:26:38.514,-4.793500042323157
2025-03-25 17:26:38.514,-5.168055955119916
2025-03-25 17:26:38.515,-0.9075883741255633
2025-03-25 17:26:38.515,3.1955243790088836
2025-03-25 17:26:38.524,3.307617564479372
2025-03-25 17:26:38.524,0.5614487701758037
2025-03-25 17:26:38.524,-1.0723796953782099
2025-03-25 17:26:38.524,-0.025930939094835792
2025-03-25 17:26:38.525,1.1977691283228848
2025-03-25 17:26:38.534,-0.16991691523713223
2025-03-25 17:26:38.534,-3.0473432689784445
2025-03-25 17:26:38.534,-3.5479492344444186
2025-03-25 17:26:38.534,0.0218399168991244
2025-03-25 17:26:38.534,4.516773557456095
2025-03-25 17:26:38.544,5.1540783711703
2025-03-25 17:26:38.544,0.9201873650248265
2025-03-25 17:26:38.544,-4.166450565220059
2025-03-25 17:26:38.544,-5.34607296604147
2025-03-25 17:26:38.544,-1.9177140865107345
2025-03-25 17:26:38.554,2.623894891750058
2025-03-25 17:26:38.554,4.466832022138201
2025-03-25 17:26:38.554,2.71551573684762
2025-03-25 17:26:38.554,-0.664523227484263
2025-03-25 17:26:38.554,-2.994538402277485
2025-03-25 17:26:38.564,-2.930860695182771
2025-03-25 17:26:38.564,-1.128262246822998
2025-03-25 17:26:38.564,0.7990708912888435
2025-03-25 17:26:38.564,1.905319419841489
2025-03-25 17:26:38.564,2.2464145692956197
2025-03-25 17:26:38.574,1.846717507207964
2025-03-25 17:26:38.574,0.32344293321071993
2025-03-25 17:26:38.574,-2.023252627688962
2025-03-25 17:26:38.574,-3.5541194108051193
2025-03-25 17:26:38.575,-2.642206439300119
2025-03-25 17:26:38.590,0.3734179011199436
2025-03-25 17:26:38.590,3.1680160880163264
2025-03-25 17:26:38.590,3.579077009133682
2025-03-25 17:26:38.591,1.5725463724033442
2025-03-25 17:26:38.591,-1.0256494612276261
2025-03-25 17:26:38.594,-2.4756323835461522
2025-03-25 17:26:38.594,-2.431637646533544
2025-03-25 17:26:38.594,-1.4341844633434764
2025-03-25 17:26:38.594,0.12432537982732347
2025-03-25 17:26:38.594,1.8926635409885364
2025-03-25 17:26:38.602,2.858965283924994
2025-03-25 17:26:38.603,1.8670683936368864
2025-03-25 17:26:38.603,-0.7706896030279236
2025-03-25 17:26:38.603,-2.8945915322117672
2025-03-25 17:26:38.603,-2.4789324696776918
2025-03-25 17:26:38.612,0.08450206645175537
2025-03-25 17:26:38.613,2.2113903896431157
2025-03-25 17:26:38.613,1.8645981566850647
2025-03-25 17:26:38.613,-0.22574326080247872
2025-03-25 17:26:38.613,-1.5146141256540013
2025-03-25 17:26:38.623,-0.7062547453335131
2025-03-25 17:26:38.623,0.8276370221837179
2025-03-25 17:26:38.623,0.972608677271746
2025-03-25 17:26:38.623,-0.45955680815255595
2025-03-25 17:26:38.632,-1.5996013234413846
2025-03-25 17:26:38.633,-0.7817233989325207
2025-03-25 17:26:38.633,1.4854959801839154
2025-03-25 17:26:38.633,2.781226417249887
2025-03-25 17:26:38.633,1.1715649122944158
2025-03-25 17:26:38.642,-2.301986163914422
2025-03-25 17:26:38.643,-4.047114593062127
2025-03-25 17:26:38.643,-1.7837481530931063
2025-03-25 17:26:38.643,2.3886893425074622
2025-03-25 17:26:38.643,4.107888640278252
2025-03-25 17:26:38.652,1.8783616392224536
2025-03-25 17:26:38.652,-1.38585698958937
2025-03-25 17:26:38.652,-2.282445525096711
2025-03-25 17:26:38.653,-0.9021479223262074
2025-03-25 17:26:38.653,0.09913309352714009
2025-03-25 17:26:38.665,-0.5355180652015448
2025-03-25 17:26:38.665,-1.1353629060835642
2025-03-25 17:26:38.665,0.23551680746318776
2025-03-25 17:26:38.665,2.7160873195631634
2025-03-25 17:26:38.665,3.339807389388852
2025-03-25 17:26:38.672,0.6702019915974375
2025-03-25 17:26:38.672,-3.1808176049930794
2025-03-25 17:26:38.672,-4.583144251857348
2025-03-25 17:26:38.672,-2.0770742285231654
2025-03-25 17:26:38.672,2.189560244983251
2025-03-25 17:26:38.682,4.497627940848432
2025-03-25 17:26:38.682,2.9696607378801594
2025-03-25 17:26:38.682,-0.8056175235825024
2025-03-25 17:26:38.682,-3.4077790253204614
2025-03-25 17:26:38.682,-2.853528958075244
2025-03-25 17:26:38.692,-0.23054051473141776
2025-03-25 17:26:38.692,1.8199824069237784
2025-03-25 17:26:38.692,1.8845325442488905
2025-03-25 17:26:38.692,0.7552415091819545
2025-03-25 17:26:38.692,-0.1122762048435251
2025-03-25 17:26:38.701,-0.41428422774998147
2025-03-25 17:26:38.701,-0.8312418980090539
2025-03-25 17:26:38.701,-1.4312222937616508
2025-03-25 17:26:38.701,-1.1653711936226434
2025-03-25 17:26:38.701,0.557168996830473
2025-03-25 17:26:38.710,2.387904191995277
2025-03-25 17:26:38.711,2.1850594318694747
2025-03-25 17:26:38.711,-0.20605730340617898
2025-03-25 17:26:38.711,-2.3102173210325914
2025-03-25 17:26:38.722,-1.8765890063623618
2025-03-25 17:26:38.722,0.2661224462651979
2025-03-25 17:26:38.723,1.2838075032843739
2025-03-25 17:26:38.723,0.13205942873953697
2025-03-25 17:26:38.723,-1.0452576314332445
2025-03-25 17:26:38.734,-0.019694386776976484
2025-03-25 17:26:38.734,2.106932468380918
2025-03-25 17:26:38.734,2.144379869522755
2025-03-25 17:26:38.735,-0.7311988297958747
2025-03-25 17:26:38.735,-3.4729890515198854
2025-03-25 17:26:38.740,-2.818914831088639
2025-03-25 17:26:38.740,0.7095472840470011
2025-03-25 17:26:38.740,3.480845937180302
2025-03-25 17:26:38.740,2.8586848225194155
2025-03-25 17:26:38.740,-0.2726066349242228
2025-03-25 17:26:38.750,-2.833607371115704
2025-03-25 17:26:38.750,-2.6181338955536346
2025-03-25 17:26:38.750,-0.07637951525477321
2025-03-25 17:26:38.750,2.3220032645172872
2025-03-25 17:26:38.750,2.370646244987524
2025-03-25 17:26:38.760,0.17140570015309467
2025-03-25 17:26:38.760,-1.994192586923316
2025-03-25 17:26:38.760,-2.039698549769559
2025-03-25 17:26:38.760,-0.19916641960910808
2025-03-25 17:26:38.760,1.4952778869784198
2025-03-25 17:26:38.770,1.5714326492883748
2025-03-25 17:26:38.770,0.3870271296924367
2025-03-25 17:26:38.770,-0.7869302172803307
2025-03-25 17:26:38.770,-1.1560024869143375
2025-03-25 17:26:38.771,-0.6899332595367114
2025-03-25 17:26:38.780,0.23925659248251283
2025-03-25 17:26:38.780,0.9909867477957015
2025-03-25 17:26:38.780,0.8708830078636564
2025-03-25 17:26:38.781,-0.1600277167115325
2025-03-25 17:26:38.781,-1.1046103813980073
2025-03-25 17:26:38.793,-0.8211533340376146
2025-03-25 17:26:38.793,0.5423913458748123
2025-03-25 17:26:38.793,1.4120417483889174
2025-03-25 17:26:38.794,0.531995433361885
2025-03-25 17:26:38.794,-1.2501865673510482
2025-03-25 17:26:38.801,-1.650926684892768
2025-03-25 17:26:38.801,0.14615340212886707
2025-03-25 17:26:38.801,2.006546797631898
2025-03-25 17:26:38.802,1.3715924840119917
2025-03-25 17:26:38.802,-1.1617473612210738
2025-03-25 17:26:38.810,-2.3567342935267575
2025-03-25 17:26:38.810,-0.5879401492715369
2025-03-25 17:26:38.810,2.0077271878799205
2025-03-25 17:26:38.810,2.310849868299264
2025-03-25 17:26:38.810,-0.03105274812515199
2025-03-25 17:26:38.820,-2.4643416977569217
2025-03-25 17:26:38.820,-2.447501196327672
2025-03-25 17:26:38.820,0.10152891736972389
2025-03-25 17:26:38.820,2.8198741835204926
2025-03-25 17:26:38.820,3.0095024585271033
2025-03-25 17:26:38.828,0.19414032155718564
2025-03-25 17:26:38.829,-3.1154572168541996
2025-03-25 17:26:38.829,-3.637090971803374
2025-03-25 17:26:38.829,-0.6837295704024741
2025-03-25 17:26:38.829,2.952510723095492
2025-03-25 17:26:38.838,3.8351847518822018
2025-03-25 17:26:38.839,1.3784981124156603
2025-03-25 17:26:38.839,-1.8880578890543849
2025-03-25 17:26:38.839,-3.2595887818975906
2025-03-25 17:26:38.849,-2.270335417372082
2025-03-25 17:26:38.849,-0.16317626170672864
2025-03-25 17:26:38.849,1.858678574968973
2025-03-25 17:26:38.849,3.0123693531829634
2025-03-25 17:26:38.849,2.4755765428807206
2025-03-25 17:26:38.849,0.029793749498079322
2025-03-25 17:26:38.859,-2.8386224114293523
2025-03-25 17:26:38.859,-3.7164016496212846
2025-03-25 17:26:38.859,-1.712085674270999
2025-03-25 17:26:38.859,1.4114341299891178
2025-03-25 17:26:38.868,3.005314624176526
2025-03-25 17:26:38.869,2.2145614061147625
2025-03-25 17:26:38.869,0.501936847864736
2025-03-25 17:26:38.869,-0.4992016452081542
2025-03-25 17:26:38.869,-0.9847326924576689
2025-03-25 17:26:38.883,-1.9680637374881293
2025-03-25 17:26:38.883,-2.6802054509099387
2025-03-25 17:26:38.883,-0.9506460098816294
2025-03-25 17:26:38.883,2.9207342641318084
2025-03-25 17:26:38.884,4.800815962645205
2025-03-25 17:26:38.888,1.5852250679845108
2025-03-25 17:26:38.888,-3.738828729710818
2025-03-25 17:26:38.888,-4.886500559318085
2025-03-25 17:26:38.888,-0.2717512289745976
2025-03-25 17:26:38.888,4.571725061858665
2025-03-25 17:26:38.898,3.792158606012568
2025-03-25 17:26:38.898,-1.5856825602369495
2025-03-25 17:26:38.898,-5.186933907315405
2025-03-25 17:26:38.898,-3.0401635892830026
2025-03-25 17:26:38.898,2.266165833762834
2025-03-25 17:26:38.908,5.19737283127013
2025-03-25 17:26:38.908,3.2304650313178596
2025-03-25 17:26:38.908,-1.4542335843631238
2025-03-25 17:26:38.908,-4.743540156215135
2025-03-25 17:26:38.908,-3.973946424518075
2025-03-25 17:26:38.918,0.2921698064700746
2025-03-25 17:26:38.918,4.465025044318776
2025-03-25 17:26:38.918,4.571646601552383
2025-03-25 17:26:38.918,0.16925688887620516
2025-03-25 17:26:38.918,-4.528169495558622
2025-03-25 17:26:38.928,-4.662564519390037
2025-03-25 17:26:38.928,-0.047559291336042586
2025-03-25 17:26:38.928,4.462665288992084
2025-03-25 17:26:38.928,4.253172536791603
2025-03-25 17:26:38.928,-0.1381125516163439
2025-03-25 17:26:38.939,-3.90625271354805
2025-03-25 17:26:38.940,-3.317664104876545
2025-03-25 17:26:38.940,0.5081808170129645
2025-03-25 17:26:38.940,3.1732582336911315
2025-03-25 17:26:38.940,1.8926412573063507
2025-03-25 17:26:38.949,-1.5796167517257478
2025-03-25 17:26:38.949,-3.0252745481014243
2025-03-25 17:26:38.949,-0.551263472520925
2025-03-25 17:26:38.950,3.1705829613807914
2025-03-25 17:26:38.950,3.7914084611341092
2025-03-25 17:26:38.956,0.18450536388011457
2025-03-25 17:26:38.957,-4.140063615468247
2025-03-25 17:26:38.957,-4.756841673747108
2025-03-25 17:26:38.957,-1.01451712814159
2025-03-25 17:26:38.966,3.4801181865371893
2025-03-25 17:26:38.966,4.783158685356538
2025-03-25 17:26:38.966,2.3019273341880795
2025-03-25 17:26:38.966,-1.4059942077042786
2025-03-25 17:26:38.967,-3.543037332234346
2025-03-25 17:26:38.976,-3.1464726197081445
2025-03-25 17:26:38.976,-0.9290826680983187
2025-03-25 17:26:38.976,1.7248970463745106
2025-03-25 17:26:38.976,3.285083642431867
2025-03-25 17:26:38.976,2.550131774579092
2025-03-25 17:26:38.986,-0.2804609644851633
2025-03-25 17:26:38.986,-3.0259282935026297
2025-03-25 17:26:38.986,-3.09615905802106
2025-03-25 17:26:38.986,-0.2964660939641391
2025-03-25 17:26:38.987,2.572482103613737
2025-03-25 17:26:38.996,2.67166099125179
2025-03-25 17:26:38.996,0.2597110196265776
2025-03-25 17:26:38.996,-1.8750863948165004
2025-03-25 17:26:38.997,-1.7504543934770485
2025-03-25 17:26:38.997,-0.08119980983911537
2025-03-25 17:26:39.006,1.0725422813758385
2025-03-25 17:26:39.006,0.7378063095609844
2025-03-25 17:26:39.006,-0.20437315578116277
2025-03-25 17:26:39.007,-0.38614152376203414
2025-03-25 17:26:39.007,0.2921788659559887
2025-03-25 17:26:39.016,0.6189447479512559
2025-03-25 17:26:39.016,-0.15060059608153925
2025-03-25 17:26:39.016,-1.0821084035310273
2025-03-25 17:26:39.017,-0.7958822910198103
2025-03-25 17:26:39.017,0.4765788963514389
2025-03-25 17:26:39.026,1.1037862497064161
2025-03-25 17:26:39.026,0.369573901093872
2025-03-25 17:26:39.026,-0.5277101657050881
2025-03-25 17:26:39.026,-0.29499623538564507
2025-03-25 17:26:39.027,0.5631705747670298
2025-03-25 17:26:39.035,0.5542537242050971
2025-03-25 17:26:39.035,-0.5895487586078243
2025-03-25 17:26:39.035,-1.4882858831179655
2025-03-25 17:26:39.035,-0.9219797832976685
2025-03-25 17:26:39.035,0.6747831989466931
2025-03-25 17:26:39.044,1.8106649003073303
2025-03-25 17:26:39.045,1.566170621492058
2025-03-25 17:26:39.045,0.24197276856366567
2025-03-25 17:26:39.045,-1.2679716547129554
2025-03-25 17:26:39.045,-2.124165052949968
2025-03-25 17:26:39.056,-1.6645986082929136
2025-03-25 17:26:39.056,0.22847912625535372
2025-03-25 17:26:39.056,2.402483863968846
2025-03-25 17:26:39.056,2.80169929460542
2025-03-25 17:26:39.056,0.566705488821563
2025-03-25 17:26:39.065,-2.3855786114805526
2025-03-25 17:26:39.065,-2.970434528533002
2025-03-25 17:26:39.065,-0.5187577718281198
2025-03-25 17:26:39.065,2.12890882990391
2025-03-25 17:26:39.065,1.9122979040000372
2025-03-25 17:26:39.075,-0.5984379298903552
2025-03-25 17:26:39.075,-1.841198916239642
2025-03-25 17:26:39.075,0.06448530625123194
2025-03-25 17:26:39.075,2.5586477220152757
2025-03-25 17:26:39.075,1.7688363013118646
2025-03-25 17:26:39.086,-2.1455883247555856
2025-03-25 17:26:39.086,-4.553037008830953
2025-03-25 17:26:39.087,-1.9462104244361491
2025-03-25 17:26:39.087,3.339516125560781
2025-03-25 17:26:39.094,5.498359502821848
2025-03-25 17:26:39.094,2.0579815726845747
2025-03-25 17:26:39.095,-3.1869512290203876
2025-03-25 17:26:39.095,-4.684012486457176
2025-03-25 17:26:39.095,-1.524427448107206
2025-03-25 17:26:39.104,2.0360376707991406
2025-03-25 17:26:39.104,2.2413690801943127
2025-03-25 17:26:39.104,0.18973201285317254
2025-03-25 17:26:39.104,-0.5652338894132136
2025-03-25 17:26:39.105,0.6818718705563893
2025-03-25 17:26:39.114,1.1771241225601083
2025-03-25 17:26:39.114,-0.6808279723127895
2025-03-25 17:26:39.114,-2.588920010253502
2025-03-25 17:26:39.114,-1.603011065563496
2025-03-25 17:26:39.115,1.4337385156743565
2025-03-25 17:26:39.124,2.8542801893445717
2025-03-25 17:26:39.124,1.0961531887191784
2025-03-25 17:26:39.124,-1.4845284441511255
2025-03-25 17:26:39.124,-2.0885581010515555
2025-03-25 17:26:39.124,-0.8024650200169876
2025-03-25 17:26:39.134,0.562272053891149
2025-03-25 17:26:39.134,1.287255134010383
2025-03-25 17:26:39.134,1.6943286900430805
2025-03-25 17:26:39.134,1.2868338186125325
2025-03-25 17:26:39.135,-0.807281354899777
2025-03-25 17:26:39.145,-3.3974132169750266
2025-03-25 17:26:39.145,-3.373727500297673
2025-03-25 17:26:39.145,0.3979673620149785
2025-03-25 17:26:39.146,4.5779170819341335
2025-03-25 17:26:39.146,4.568828018180365
2025-03-25 17:26:39.154,0.041729253794978605
2025-03-25 17:26:39.154,-4.329216157184705
2025-03-25 17:26:39.154,-4.118695195939514
2025-03-25 17:26:39.155,-0.05053021089884324
2025-03-25 17:26:39.155,3.14477043512234
2025-03-25 17:26:39.164,2.260734666941712
2025-03-25 17:26:39.164,-0.9438165519366603
2025-03-25 17:26:39.164,-2.171487202187202
2025-03-25 17:26:39.164,0.07316386940636271
2025-03-25 17:26:39.164,2.6296295555954634
2025-03-25 17:26:39.174,1.7497356495994587
2025-03-25 17:26:39.174,-1.8836409585595144
2025-03-25 17:26:39.174,-3.792021333955732
2025-03-25 17:26:39.174,-1.4156774475776643
2025-03-25 17:26:39.174,2.5575916511070917
2025-03-25 17:26:39.184,3.604305383958489
2025-03-25 17:26:39.184,0.8849176485717043
2025-03-25 17:26:39.184,-2.1801331912593174
2025-03-25 17:26:39.184,-2.4063333219155822
2025-03-25 17:26:39.184,-0.3100007857538633
2025-03-25 17:26:39.194,1.3125506890397751
2025-03-25 17:26:39.194,1.041968210339609
2025-03-25 17:26:39.194,-0.007779082424639774
2025-03-25 17:26:39.194,-0.30993516410294997
2025-03-25 17:26:39.195,0.02030914546823559
2025-03-25 17:26:39.203,-0.1286799772730416
2025-03-25 17:26:39.203,-0.8205633804997279
2025-03-25 17:26:39.203,-0.7617738185104413
2025-03-25 17:26:39.203,0.6735566992421153
2025-03-25 17:26:39.203,1.9732099173314674
2025-03-25 17:26:39.213,1.1031059588474426
2025-03-25 17:26:39.213,-1.4731189770535498
2025-03-25 17:26:39.213,-2.683338311066963
2025-03-25 17:26:39.213,-0.6558662041027568
2025-03-25 17:26:39.226,2.3194478286128204
2025-03-25 17:26:39.226,2.3557908756689447
2025-03-25 17:26:39.226,-0.7147283914031031
2025-03-25 17:26:39.226,-2.786751311087926
2025-03-25 17:26:39.227,-1.0253925409233065
2025-03-25 17:26:39.232,2.2015203307362547
2025-03-25 17:26:39.232,2.643089748878676
2025-03-25 17:26:39.232,-0.17906472930126832
2025-03-25 17:26:39.232,-2.7874601962021095
2025-03-25 17:26:39.232,-2.384120193556222
2025-03-25 17:26:39.242,0.33069064588013436
2025-03-25 17:26:39.242,2.6311236445411814
2025-03-25 17:26:39.242,2.4786217212980945
2025-03-25 17:26:39.242,-0.02383121983134487
2025-03-25 17:26:39.242,-2.637444487683609
2025-03-25 17:26:39.252,-2.6698191982459316
2025-03-25 17:26:39.252,0.22457274248720924
2025-03-25 17:26:39.252,3.082619700871745
2025-03-25 17:26:39.252,2.6028624132157723
2025-03-25 17:26:39.252,-0.8421099921533001
2025-03-25 17:26:39.262,-3.3378420617621942
2025-03-25 17:26:39.262,-2.091063907736501
2025-03-25 17:26:39.263,1.1518091507416097
2025-03-25 17:26:39.263,2.4818123187953405
2025-03-25 17:26:39.263,0.8864916422339291
2025-03-25 17:26:39.272,-0.8167493513236427
2025-03-25 17:26:39.272,-0.27146928464376324
2025-03-25 17:26:39.273,1.0646942194728157
2025-03-25 17:26:39.273,0.24294946614384713
2025-03-25 17:26:39.273,-2.491608974050489
2025-03-25 17:26:39.282,-3.3758573281833923
2025-03-25 17:26:39.283,-0.041531480211616095
2025-03-25 17:26:39.283,4.655741205037644
2025-03-25 17:26:39.283,5.289151262774431
2025-03-25 17:26:39.283,0.32489314597368085
2025-03-25 17:26:39.292,-5.470446323320232
2025-03-25 17:26:39.292,-6.037585704351822
2025-03-25 17:26:39.292,-0.7648857451992022
2025-03-25 17:26:39.293,4.927777223914823
2025-03-25 17:26:39.293,5.57460613647665
2025-03-25 17:26:39.305,1.1266038389910125
2025-03-25 17:26:39.305,-3.724976804833216
2025-03-25 17:26:39.305,-4.629700938488887
2025-03-25 17:26:39.305,-1.4000934786516264
2025-03-25 17:26:39.305,2.539008938295884
2025-03-25 17:26:39.310,3.6829804620671824
2025-03-25 17:26:39.311,1.513844693280385
2025-03-25 17:26:39.311,-1.4476462026628178
2025-03-25 17:26:39.311,-2.4524145482263293
2025-03-25 17:26:39.311,-1.252453981091645
2025-03-25 17:26:39.322,0.24167401969504013
2025-03-25 17:26:39.322,0.6934591395188228
2025-03-25 17:26:39.322,0.670970589893257
2025-03-25 17:26:39.322,0.976527058177512
2025-03-25 17:26:39.322,0.9895799953184411
2025-03-25 17:26:39.331,-0.1641916097537551
2025-03-25 17:26:39.331,-1.6506198023801477
2025-03-25 17:26:39.331,-1.703137433859011
2025-03-25 17:26:39.331,-0.15538299110004739
2025-03-25 17:26:39.331,1.2951373000934858
2025-03-25 17:26:39.341,1.470822303063668
2025-03-25 17:26:39.341,0.857312215001959
2025-03-25 17:26:39.341,0.014959168750244573
2025-03-25 17:26:39.341,-1.3436490045337595
2025-03-25 17:26:39.350,-2.653806129770862
2025-03-25 17:26:39.351,-1.760283214289627
2025-03-25 17:26:39.351,2.0081137562126172
2025-03-25 17:26:39.351,5.180211322834266
2025-03-25 17:26:39.351,3.3759317200467356
2025-03-25 17:26:39.362,-2.6543655733822686
2025-03-25 17:26:39.362,-6.785581253487484
2025-03-25 17:26:39.363,-4.440431996679133
2025-03-25 17:26:39.363,2.000142074033421
2025-03-25 17:26:39.363,6.109073992468916
2025-03-25 17:26:39.370,4.561128976927499
2025-03-25 17:26:39.370,-0.1510262050723699
2025-03-25 17:26:39.370,-3.445240428188632
2025-03-25 17:26:39.371,-3.363268047544606
2025-03-25 17:26:39.371,-1.364016726733896
2025-03-25 17:26:39.380,0.28420712166794154
2025-03-25 17:26:39.380,0.919691380179331
2025-03-25 17:26:39.381,1.3576007584298893
2025-03-25 17:26:39.381,1.9745489314832931
2025-03-25 17:26:39.381,1.7515985525434772
2025-03-25 17:26:39.390,-0.20974759757589326
2025-03-25 17:26:39.390,-2.6947730368267355
2025-03-25 17:26:39.390,-3.139380757528592
2025-03-25 17:26:39.391,-0.7808739509194451
2025-03-25 17:26:39.391,2.0258996819587702
2025-03-25 17:26:39.400,2.525637212887346
2025-03-25 17:26:39.400,0.8450406144760407
2025-03-25 17:26:39.400,-0.6160863554031768
2025-03-25 17:26:39.400,-0.6305074788739301
2025-03-25 17:26:39.400,-0.3708345469579688
2025-03-25 17:26:39.410,-0.8858827430581501
2025-03-25 17:26:39.410,-1.0898638560183347
2025-03-25 17:26:39.410,0.329450394643959
2025-03-25 17:26:39.410,2.106446851299238
2025-03-25 17:26:39.410,1.623551541856277
2025-03-25 17:26:39.420,-1.0963291807684439
2025-03-25 17:26:39.420,-2.755230127622134
2025-03-25 17:26:39.420,-1.0596830477708439
2025-03-25 17:26:39.420,1.9908939442456994
2025-03-25 17:26:39.421,2.6223785360905376
2025-03-25 17:26:39.430,0.21008859794607865
2025-03-25 17:26:39.430,-2.1129958788417134
2025-03-25 17:26:39.430,-1.7399563793400128
2025-03-25 17:26:39.431,0.26817442202812203
2025-03-25 17:26:39.431,1.1739511106298766
2025-03-25 17:26:39.443,0.3876099173994385
2025-03-25 17:26:39.443,-0.268161722747735
2025-03-25 17:26:39.443,0.3284800800672761
2025-03-25 17:26:39.443,0.9760004480826928
2025-03-25 17:26:39.443,0.16698313994165673
2025-03-25 17:26:39.450,-1.5051879514418756
2025-03-25 17:26:39.450,-1.9795572538920263
2025-03-25 17:26:39.450,-0.36047455204599693
2025-03-25 17:26:39.450,1.8973558872054181
2025-03-25 17:26:39.450,2.5150477798555566
2025-03-25 17:26:39.458,0.7691992062904072
2025-03-25 17:26:39.459,-1.7342505500393077
2025-03-25 17:26:39.459,-2.6084687909531814
2025-03-25 17:26:39.459,-1.0515108173472583
2025-03-25 17:26:39.459,1.3572227672385782
2025-03-25 17:26:39.469,2.30393595550545
2025-03-25 17:26:39.469,1.0684694950934817
2025-03-25 17:26:39.469,-0.9318343104730559
2025-03-25 17:26:39.469,-1.7471416970846845
2025-03-25 17:26:39.479,-0.7997892639720998
2025-03-25 17:26:39.479,0.7344174198186234
2025-03-25 17:26:39.479,1.2406305863031504
2025-03-25 17:26:39.479,0.30517023894458634
2025-03-25 17:26:39.479,-0.9609671439286819
2025-03-25 17:26:39.491,-1.1803756973234052
2025-03-25 17:26:39.491,-0.09333523817908208
2025-03-25 17:26:39.491,1.3177735476703927
2025-03-25 17:26:39.491,1.7658771736382406
2025-03-25 17:26:39.492,0.6792500554291792
2025-03-25 17:26:39.498,-1.2676555081760268
2025-03-25 17:26:39.499,-2.4769395813703827
2025-03-25 17:26:39.499,-1.7266533870183816
2025-03-25 17:26:39.499,0.5367460374045235
2025-03-25 17:26:39.499,2.4139431917579928
2025-03-25 17:26:39.508,2.296265160658301
2025-03-25 17:26:39.508,0.40460405735208066
2025-03-25 17:26:39.509,-1.4301202072687045
2025-03-25 17:26:39.509,-1.6116878252121882
2025-03-25 17:26:39.509,-0.475797918271006
2025-03-25 17:26:39.518,0.18690357652523668
2025-03-25 17:26:39.518,-0.4136091084503676
2025-03-25 17:26:39.518,-0.7856262504953719
2025-03-25 17:26:39.518,0.6940474784267742
2025-03-25 17:26:39.519,2.8567482521060192
2025-03-25 17:26:39.529,2.614822095986293
2025-03-25 17:26:39.529,-0.8582231193036918
2025-03-25 17:26:39.529,-4.325199013955147
2025-03-25 17:26:39.529,-3.9720618739448708
2025-03-25 17:26:39.529,0.1158048564420755
2025-03-25 17:26:39.538,4.088593500913028
2025-03-25 17:26:39.538,4.504281886335525
2025-03-25 17:26:39.538,1.3761393942631934
2025-03-25 17:26:39.539,-2.5520214696183148
2025-03-25 17:26:39.539,-4.385790450525102
2025-03-25 17:26:39.548,-2.962196961848492
2025-03-25 17:26:39.548,0.6175658663529164
2025-03-25 17:26:39.549,3.6936671698745123
2025-03-25 17:26:39.549,3.878604037975377
2025-03-25 17:26:39.549,1.0083959974358054
2025-03-25 17:26:39.558,-2.5278740917030564
2025-03-25 17:26:39.558,-3.745726416052995
2025-03-25 17:26:39.558,-1.767896600071785
2025-03-25 17:26:39.559,1.3438224777278251
2025-03-25 17:26:39.559,2.6702636109233406
2025-03-25 17:26:39.568,1.382356902424643
2025-03-25 17:26:39.568,-0.6494662598031071
2025-03-25 17:26:39.568,-1.2043843860411538
2025-03-25 17:26:39.568,-0.19794988346235334
2025-03-25 17:26:39.568,0.5781727683555004
2025-03-25 17:26:39.578,-0.03291656952457758
2025-03-25 17:26:39.578,-1.021031736598838
2025-03-25 17:26:39.578,-0.6683415144111187
2025-03-25 17:26:39.578,0.8730944482950654
2025-03-25 17:26:39.578,1.5197649444999046
2025-03-25 17:26:39.588,0.1562914154075713
2025-03-25 17:26:39.588,-1.4710975145582919
2025-03-25 17:26:39.588,-0.966469435595645
2025-03-25 17:26:39.588,1.1513864381768641
2025-03-25 17:26:39.588,1.823399258182595
2025-03-25 17:26:39.597,-0.26339363722749753
2025-03-25 17:26:39.597,-2.4948310895102535
2025-03-25 17:26:39.597,-1.7331307439465395
2025-03-25 17:26:39.597,1.2725667115731207
2025-03-25 17:26:39.597,2.819919591493452
2025-03-25 17:26:39.606,1.2619386835274784
2025-03-25 17:26:39.607,-1.1136345660653098
2025-03-25 17:26:39.607,-1.7295053240330776
2025-03-25 17:26:39.607,-1.0113691863874845
2025-03-25 17:26:39.620,-0.581409498272098
2025-03-25 17:26:39.620,-0.11134717793273742
2025-03-25 17:26:39.621,1.5344708667545117
2025-03-25 17:26:39.621,3.0305421620419875
2025-03-25 17:26:39.621,1.5642984001506794
2025-03-25 17:26:39.627,-2.5037255351503176
2025-03-25 17:26:39.627,-4.7415522190866195
2025-03-25 17:26:39.627,-2.0218301966734984
2025-03-25 17:26:39.627,2.9899612759973992
2025-03-25 17:26:39.627,4.792317771768912
2025-03-25 17:26:39.636,1.6992734736833592
2025-03-25 17:26:39.636,-2.5040339208965623
2025-03-25 17:26:39.636,-3.492877539732559
2025-03-25 17:26:39.636,-1.0937457509616135
2025-03-25 17:26:39.637,1.5560769415919151
2025-03-25 17:26:39.646,1.9860801067887697
2025-03-25 17:26:39.646,0.40475722573439393
2025-03-25 17:26:39.646,-1.3074023658204488
2025-03-25 17:26:39.647,-1.4075734423078625
2025-03-25 17:26:39.647,0.3936955217604481
2025-03-25 17:26:39.656,2.3889783354737624
2025-03-25 17:26:39.656,2.0771605635588584
2025-03-25 17:26:39.656,-1.0049583612045678
2025-03-25 17:26:39.656,-3.9564477841340318
2025-03-25 17:26:39.656,-3.2857973408975196
2025-03-25 17:26:39.666,0.85678801475716
2025-03-25 17:26:39.666,4.397377121476047
2025-03-25 17:26:39.666,3.837223326478163
2025-03-25 17:26:39.666,0.11723193804030191
2025-03-25 17:26:39.667,-2.8665553925785616
2025-03-25 17:26:39.676,-2.9043470506121167
2025-03-25 17:26:39.676,-1.2647854921742503
2025-03-25 17:26:39.677,0.018141312252465867
2025-03-25 17:26:39.677,0.8256938965654816
2025-03-25 17:26:39.677,1.8774079953576477
2025-03-25 17:26:39.690,2.404684346644285
2025-03-25 17:26:39.690,0.943938485784453
2025-03-25 17:26:39.690,-1.7958589322367124
2025-03-25 17:26:39.690,-2.9472215046177452
2025-03-25 17:26:39.690,-1.1354083815777274
2025-03-25 17:26:39.696,1.4129646778877105
2025-03-25 17:26:39.696,1.6808951496347975
2025-03-25 17:26:39.696,-0.15571202257642422
2025-03-25 17:26:39.696,-1.1462267932727912
2025-03-25 17:26:39.696,0.2061907296372536
2025-03-25 17:26:39.706,1.802768744066544
2025-03-25 17:26:39.706,0.9110492740835905
2025-03-25 17:26:39.706,-1.7853982576386949
2025-03-25 17:26:39.706,-2.7511698781631746
2025-03-25 17:26:39.706,-0.3329730301047653
2025-03-25 17:26:39.715,2.7215308797783897
2025-03-25 17:26:39.715,2.6609562342105004
2025-03-25 17:26:39.715,-0.4006998250407487
2025-03-25 17:26:39.715,-2.751865110103431
2025-03-25 17:26:39.715,-1.9383510666510169
2025-03-25 17:26:39.726,0.5216951861353487
2025-03-25 17:26:39.726,1.7456883983212046
2025-03-25 17:26:39.726,1.1262008804664176
2025-03-25 17:26:39.726,0.1841183381422098
2025-03-25 17:26:39.726,-0.12327783462553145
2025-03-25 17:26:39.735,-0.33485549633292205
2025-03-25 17:26:39.735,-0.9144061053889911
2025-03-25 17:26:39.735,-1.1923826115933374
2025-03-25 17:26:39.735,-0.4300345634550065
2025-03-25 17:26:39.744,0.8720188871054291
2025-03-25 17:26:39.745,1.4607581802900054
2025-03-25 17:26:39.745,0.8459048797946331
2025-03-25 17:26:39.745,-0.24858762934696166
2025-03-25 17:26:39.745,-0.8585965717804014
2025-03-25 17:26:39.754,-0.7102724366278872
2025-03-25 17:26:39.755,-0.16825625762287016
2025-03-25 17:26:39.755,0.2768179806693626
2025-03-25 17:26:39.755,0.3295342858601562
2025-03-25 17:26:39.755,0.036091663055319696
2025-03-25 17:26:39.766,-0.22932827491041752
2025-03-25 17:26:39.766,-0.12121671014394084
2025-03-25 17:26:39.766,0.2590690788874354
2025-03-25 17:26:39.766,0.4563969225676281
2025-03-25 17:26:39.767,0.18810959104229136
2025-03-25 17:26:39.774,-0.35501762497823514
2025-03-25 17:26:39.774,-0.6841162834371296
2025-03-25 17:26:39.774,-0.3761964395854177
2025-03-25 17:26:39.775,0.5204192462995119
2025-03-25 17:26:39.775,1.1942853615088973
2025-03-25 17:26:39.784,0.5685811229986123
2025-03-25 17:26:39.784,-1.2658412206327827
2025-03-25 17:26:39.784,-2.3719013766110044
2025-03-25 17:26:39.784,-0.805910339915578
2025-03-25 17:26:39.785,2.517520662288008
2025-03-25 17:26:39.794,3.92135126290599
2025-03-25 17:26:39.794,1.0819659637500292
2025-03-25 17:26:39.794,-3.488341209481831
2025-03-25 17:26:39.794,-4.719593042086115
2025-03-25 17:26:39.794,-1.0769265217623731
2025-03-25 17:26:39.804,3.298705106502538
2025-03-25 17:26:39.804,3.6636997498041484
2025-03-25 17:26:39.804,0.45358498700028166
2025-03-25 17:26:39.804,-1.8653870421676995
2025-03-25 17:26:39.805,-0.9440207360957877
2025-03-25 17:26:39.814,0.8106530470470211
2025-03-25 17:26:39.814,0.21090149882079803
2025-03-25 17:26:39.814,-2.0421754616904706
2025-03-25 17:26:39.815,-2.331592851665097
2025-03-25 17:26:39.815,0.7186624264456561
2025-03-25 17:26:39.824,3.8859914696539493
2025-03-25 17:26:39.824,3.1735646957765735
2025-03-25 17:26:39.824,-0.9768544742992934
2025-03-25 17:26:39.825,-3.981231904205161
2025-03-25 17:26:39.825,-2.6647280078587463
2025-03-25 17:26:39.834,1.0746389342457534
2025-03-25 17:26:39.834,2.905863525648314
2025-03-25 17:26:39.834,1.254933433992322
2025-03-25 17:26:39.835,-1.3276348024913056
2025-03-25 17:26:39.835,-1.6933288101450228
2025-03-25 17:26:39.844,0.16720317127298684
2025-03-25 17:26:39.844,1.5561678327686999
2025-03-25 17:26:39.844,0.7290245159407274
2025-03-25 17:26:39.844,-1.0348183530531587
2025-03-25 17:26:39.844,-1.4238508651299584
2025-03-25 17:26:39.854,-0.13514065004787973
2025-03-25 17:26:39.854,1.113272750907817
2025-03-25 17:26:39.854,1.0804591622130744
2025-03-25 17:26:39.854,0.2558810533757557
2025-03-25 17:26:39.854,-0.40323822526726144
2025-03-25 17:26:39.863,-0.7884225199590339
2025-03-25 17:26:39.863,-1.1153001053600893
2025-03-25 17:26:39.863,-0.9267308717351829
2025-03-25 17:26:39.863,0.36250972921845215
2025-03-25 17:26:39.863,2.0783769691573077
2025-03-25 17:26:39.873,2.4161127358913923
2025-03-25 17:26:39.873,0.45842267111026774
2025-03-25 17:26:39.873,-2.3334881405589507
2025-03-25 17:26:39.873,-3.2844067201769556
2025-03-25 17:26:39.883,-1.329183181930237
2025-03-25 17:26:39.883,1.6893929791493263
2025-03-25 17:26:39.883,2.907042113148481
2025-03-25 17:26:39.883,1.4684583258046489
2025-03-25 17:26:39.883,-0.7649292761776694
2025-03-25 17:26:39.893,-1.5322557862326103
2025-03-25 17:26:39.893,-0.6309812479797714
2025-03-25 17:26:39.893,0.32695891364104784
2025-03-25 17:26:39.893,0.20087780548245188
2025-03-25 17:26:39.893,-0.44765115195783345
2025-03-25 17:26:39.903,-0.5257103939757706
2025-03-25 17:26:39.903,0.0688116547998412
2025-03-25 17:26:39.903,0.7028828270612338
2025-03-25 17:26:39.903,1.050284966136285
2025-03-25 17:26:39.903,0.9872702390433039
2025-03-25 17:26:39.903,0.09768769857031845
2025-03-25 17:26:39.913,-1.5226434108261682
2025-03-25 17:26:39.913,-2.422768811425608
2025-03-25 17:26:39.913,-1.1925711574474933
2025-03-25 17:26:39.913,1.3603260214802593
2025-03-25 17:26:39.922,2.765527827309017
2025-03-25 17:26:39.922,1.8090883682433008
2025-03-25 17:26:39.922,-0.22649744461644536
2025-03-25 17:26:39.923,-1.4911412788745009
2025-03-25 17:26:39.923,-1.616768102732213
2025-03-25 17:26:39.933,-1.2734000568584902
2025-03-25 17:26:39.933,-0.6396485961509305
2025-03-25 17:26:39.933,0.6177305163375738
2025-03-25 17:26:39.933,2.10318127328008
2025-03-25 17:26:39.933,2.4618612104498427
2025-03-25 17:26:39.942,0.8264882283259914
2025-03-25 17:26:39.943,-1.8399739713582521
2025-03-25 17:26:39.943,-3.2807550170444837
2025-03-25 17:26:39.943,-2.067073453826793
2025-03-25 17:26:39.943,0.8228051076038632
2025-03-25 17:26:39.952,2.8710274427184075
2025-03-25 17:26:39.952,2.58230469580511
2025-03-25 17:26:39.952,0.6903583486398254
2025-03-25 17:26:39.953,-1.2725827041941027
2025-03-25 17:26:39.953,-2.5396372396043483
2025-03-25 17:26:39.964,-2.6652341626800666
2025-03-25 17:26:39.964,-0.9192508502857352
2025-03-25 17:26:39.964,2.345072878244274
2025-03-25 17:26:39.965,4.516141711472498
2025-03-25 17:26:39.965,2.8749935559247297
2025-03-25 17:26:39.972,-1.8200356840541965
2025-03-25 17:26:39.972,-5.308870263536143
2025-03-25 17:26:39.973,-4.134538629211714
2025-03-25 17:26:39.973,0.6538800459768408
2025-03-25 17:26:39.973,4.65864300192099
2025-03-25 17:26:39.982,4.59369327036675
2025-03-25 17:26:39.982,1.0452251501246914
2025-03-25 17:26:39.982,-2.846558324508947
2025-03-25 17:26:39.982,-4.429210545369816
2025-03-25 17:26:39.982,-3.0218125187456
2025-03-25 17:26:39.992,0.4126197517843335
2025-03-25 17:26:39.992,3.8228935686095205
2025-03-25 17:26:39.992,4.754427741029926
2025-03-25 17:26:39.992,2.040909455130349
2025-03-25 17:26:39.992,-2.570675917625817
2025-03-25 17:26:40.002,-5.3050757625188005
2025-03-25 17:26:40.002,-3.750883209561212
2025-03-25 17:26:40.002,0.6590878031623867
2025-03-25 17:26:40.003,4.020485124105929
2025-03-25 17:26:40.003,3.8448140421558166
2025-03-25 17:26:40.011,1.1582852775908743
2025-03-25 17:26:40.011,-1.3073430164253983
2025-03-25 17:26:40.011,-2.179708270721896
2025-03-25 17:26:40.011,-1.990510732123538
2025-03-25 17:26:40.011,-1.3652712408588963
2025-03-25 17:26:40.021,-0.12433388609701376
2025-03-25 17:26:40.021,1.6029762143656576
2025-03-25 17:26:40.021,2.614717242975239
2025-03-25 17:26:40.021,1.789607519036469
2025-03-25 17:26:40.021,-0.4738832469978824
2025-03-25 17:26:40.031,-2.479871926936256
2025-03-25 17:26:40.031,-2.669242336328797
2025-03-25 17:26:40.031,-0.7427682913974906
2025-03-25 17:26:40.031,2.0600872947246454
2025-03-25 17:26:40.043,3.4731456011037474
2025-03-25 17:26:40.043,1.772782212069824
2025-03-25 17:26:40.044,-2.117755741139348
2025-03-25 17:26:40.044,-4.45313546911443
2025-03-25 17:26:40.044,-2.2400264829384477
2025-03-25 17:26:40.054,2.579755577145355
2025-03-25 17:26:40.054,4.460558483037164
2025-03-25 17:26:40.054,1.1324060721859708
2025-03-25 17:26:40.054,-2.860372023339371
2025-03-25 17:26:40.055,-2.0696370642653856
2025-03-25 17:26:40.060,1.9388826975244797
2025-03-25 17:26:40.060,2.5221567789139603
2025-03-25 17:26:40.061,-2.125612068090243
2025-03-25 17:26:40.061,-5.526704668398203
2025-03-25 17:26:40.061,-1.7930462641211433
2025-03-25 17:26:40.070,5.51621824953117
2025-03-25 17:26:40.070,7.4654172661461145
2025-03-25 17:26:40.071,1.3350286599679524
2025-03-25 17:26:40.071,-6.031814727193743
2025-03-25 17:26:40.071,-6.94055537556663
2025-03-25 17:26:40.080,-1.4856079849374666
2025-03-25 17:26:40.080,4.070577472654191
2025-03-25 17:26:40.080,5.034214665280617
2025-03-25 17:26:40.080,2.03061764022217
2025-03-25 17:26:40.081,-1.6378504133697696
2025-03-25 17:26:40.091,-3.560301758083502
2025-03-25 17:26:40.091,-2.9115949701995114
2025-03-25 17:26:40.091,0.02149929789676641
2025-03-25 17:26:40.091,3.436628048854055
2025-03-25 17:26:40.091,4.295270023539299
2025-03-25 17:26:40.103,1.014995308440527
2025-03-25 17:26:40.103,-3.9231893856472326
2025-03-25 17:26:40.104,-5.6116906012512855
2025-03-25 17:26:40.104,-1.947881738164019
2025-03-25 17:26:40.104,3.5821626483935716
2025-03-25 17:26:40.110,5.529354206576563
2025-03-25 17:26:40.110,2.5066895081822853
2025-03-25 17:26:40.110,-1.7797045283919983
2025-03-25 17:26:40.111,-3.4316076095217305
2025-03-25 17:26:40.111,-2.39646834870838
2025-03-25 17:26:40.120,-0.8458913695416234
2025-03-25 17:26:40.120,0.4129257442437142
2025-03-25 17:26:40.120,1.8778785096634496
2025-03-25 17:26:40.120,2.901110920462634
2025-03-25 17:26:40.121,1.8695497675564168
2025-03-25 17:26:40.129,-1.072847148139991
2025-03-25 17:26:40.129,-3.4093179830293163
2025-03-25 17:26:40.129,-2.94790914932105
2025-03-25 17:26:40.129,-0.11952447048421147
2025-03-25 17:26:40.129,2.664343725460345
2025-03-25 17:26:40.139,3.236124502827042
2025-03-25 17:26:40.139,1.3068877038272833
2025-03-25 17:26:40.139,-1.4140969710696634
2025-03-25 17:26:40.139,-2.731398802981372
2025-03-25 17:26:40.149,-1.9734837825274236
2025-03-25 17:26:40.149,-0.28158806211141496
2025-03-25 17:26:40.149,1.1469196615284907
2025-03-25 17:26:40.149,2.1648553690504477
2025-03-25 17:26:40.149,2.5616287611069297
2025-03-25 17:26:40.149,1.21862605910806
2025-03-25 17:26:40.159,-2.0874135156299887
2025-03-25 17:26:40.159,-4.759029530399064
2025-03-25 17:26:40.159,-3.394637919876816
2025-03-25 17:26:40.159,1.707927457108766
2025-03-25 17:26:40.169,5.7264911062248
2025-03-25 17:26:40.169,4.348969757133597
2025-03-25 17:26:40.169,-1.1079973319115595
2025-03-25 17:26:40.169,-5.0060578738490795
2025-03-25 17:26:40.169,-3.6972404688448557
2025-03-25 17:26:40.178,0.7126086639922866
2025-03-25 17:26:40.179,3.2952810437567654
2025-03-25 17:26:40.179,1.953977194294595
2025-03-25 17:26:40.179,-0.8743338615263511
2025-03-25 17:26:40.179,-1.7677766187356267
2025-03-25 17:26:40.188,-0.2247125035984164
2025-03-25 17:26:40.188,1.4583446220818381
2025-03-25 17:26:40.189,1.2316005582268945
2025-03-25 17:26:40.189,-0.6387504923476128
2025-03-25 17:26:40.189,-2.124056006601949
2025-03-25 17:26:40.198,-1.4966732341602098
2025-03-25 17:26:40.198,0.8502892453953026
2025-03-25 17:26:40.199,2.4895394658616925
2025-03-25 17:26:40.199,1.4847261609209312
2025-03-25 17:26:40.199,-1.1073093552138131
2025-03-25 17:26:40.208,-2.2397892982527003
2025-03-25 17:26:40.208,-0.6484900372845497
2025-03-25 17:26:40.208,1.5554600076492733
2025-03-25 17:26:40.208,1.6893017750862533
2025-03-25 17:26:40.209,-0.21937362982258587
2025-03-25 17:26:40.218,-1.88171652036386
2025-03-25 17:26:40.218,-1.6251212648305964
2025-03-25 17:26:40.219,0.1739289347122706
2025-03-25 17:26:40.219,1.908127293469684
2025-03-25 17:26:40.219,2.102008600303953
2025-03-25 17:26:40.228,0.4984284575729239
2025-03-25 17:26:40.228,-1.5015061749554763
2025-03-25 17:26:40.228,-2.046438333713305
2025-03-25 17:26:40.228,-0.9213206682468518
2025-03-25 17:26:40.229,0.3706846547527327
2025-03-25 17:26:40.238,0.8150781256466355
2025-03-25 17:26:40.238,0.9073831861962529
2025-03-25 17:26:40.238,1.107664460382085
2025-03-25 17:26:40.239,0.7854761350937236
2025-03-25 17:26:40.239,-0.4911318582538006
2025-03-25 17:26:40.248,-1.7726948948619714
2025-03-25 17:26:40.248,-1.7727074813811396
2025-03-25 17:26:40.248,-0.47059033351356977
2025-03-25 17:26:40.248,1.043182222117112
2025-03-25 17:26:40.248,1.8920294904677493
2025-03-25 17:26:40.257,1.8482321875855758
2025-03-25 17:26:40.257,0.7333832392111108
2025-03-25 17:26:40.257,-1.4448985113240855
2025-03-25 17:26:40.257,-3.3641587252221385
2025-03-25 17:26:40.257,-2.721089144766609
2025-03-25 17:26:40.267,0.9400885341201688
2025-03-25 17:26:40.267,4.462154708874526
2025-03-25 17:26:40.267,3.943681448831856
2025-03-25 17:26:40.267,-0.5062705248327931
2025-03-25 17:26:40.267,-4.411031678506245
2025-03-25 17:26:40.278,-3.896501385663761
2025-03-25 17:26:40.278,0.08247637117109868
2025-03-25 17:26:40.278,3.2267613102172157
2025-03-25 17:26:40.278,2.807031304967886
2025-03-25 17:26:40.278,0.09473048374559509
2025-03-25 17:26:40.288,-1.8050741459610904
2025-03-25 17:26:40.288,-1.4077264110376335
2025-03-25 17:26:40.288,0.2056872246043897
2025-03-25 17:26:40.288,1.0673092827800306
2025-03-25 17:26:40.288,0.329561192180233
2025-03-25 17:26:40.298,-1.0175445402015393
2025-03-25 17:26:40.298,-1.1255110010605467
2025-03-25 17:26:40.298,0.5711671383878494
2025-03-25 17:26:40.298,2.190468470746978
2025-03-25 17:26:40.298,1.3299022542902896
2025-03-25 17:26:40.307,-1.606524443550679
2025-03-25 17:26:40.307,-3.270972451352952
2025-03-25 17:26:40.307,-1.3710024318279526
2025-03-25 17:26:40.307,2.245332870437668
2025-03-25 17:26:40.307,3.69459323526751
2025-03-25 17:26:40.317,1.6170852178774002
2025-03-25 17:26:40.317,-1.6577536596184652
2025-03-25 17:26:40.317,-3.17806853078355
2025-03-25 17:26:40.317,-2.2047897771212828
2025-03-25 17:26:40.327,0.05148105668005133
2025-03-25 17:26:40.327,2.0464897820122365
2025-03-25 17:26:40.327,2.6320622024992772
2025-03-25 17:26:40.327,1.3277347883094834
2025-03-25 17:26:40.327,-1.0583973649366492
2025-03-25 17:26:40.337,-2.531265712196034
2025-03-25 17:26:40.337,-1.6284324967774582
2025-03-25 17:26:40.337,0.8306405597906898
2025-03-25 17:26:40.337,2.281371028015933
2025-03-25 17:26:40.337,1.0825186337799106
2025-03-25 17:26:40.348,-1.470992115974975
2025-03-25 17:26:40.348,-2.3141788953769433
2025-03-25 17:26:40.349,-0.19542014006949904
2025-03-25 17:26:40.349,2.423578752671011
2025-03-25 17:26:40.349,2.142615353756742
2025-03-25 17:26:40.357,-0.8496135665864479
2025-03-25 17:26:40.357,-2.6998455880244125
2025-03-25 17:26:40.357,-0.9899011344778262
2025-03-25 17:26:40.357,1.876964349621889
2025-03-25 17:26:40.357,1.9714322837089862
2025-03-25 17:26:40.366,-0.760260662676266
2025-03-25 17:26:40.366,-2.6060996599386557
2025-03-25 17:26:40.366,-1.2162568497948207
2025-03-25 17:26:40.367,1.6618088185989093
2025-03-25 17:26:40.367,2.963617343904079
2025-03-25 17:26:40.376,1.7778443938508643
2025-03-25 17:26:40.376,-0.7965002918216926
2025-03-25 17:26:40.376,-3.287942904442062
2025-03-25 17:26:40.376,-3.956075126449909
2025-03-25 17:26:40.376,-1.168404217341889
2025-03-25 17:26:40.386,3.9790683248523204
2025-03-25 17:26:40.386,6.604363550409986
2025-03-25 17:26:40.386,2.706602236759982
2025-03-25 17:26:40.386,-4.8813312461009035
2025-03-25 17:26:40.387,-8.1455348573389
2025-03-25 17:26:40.396,-3.0026767428482057
2025-03-25 17:26:40.396,5.285196895635603
2025-03-25 17:26:40.397,7.903929251123543
2025-03-25 17:26:40.397,2.571367320279123
2025-03-25 17:26:40.397,-4.46976843445571
2025-03-25 17:26:40.406,-6.242441351995514
2025-03-25 17:26:40.406,-2.3796860827297532
2025-03-25 17:26:40.407,2.173895025315859
2025-03-25 17:26:40.407,3.696133268976133
2025-03-25 17:26:40.407,2.6758256493202977
2025-03-25 17:26:40.417,1.0213024016264152
2025-03-25 17:26:40.417,-0.8118682443893719
2025-03-25 17:26:40.418,-2.7693252720417822
2025-03-25 17:26:40.418,-3.4362131894700654
2025-03-25 17:26:40.425,-1.523075287779344
2025-03-25 17:26:40.425,1.6956279455074283
2025-03-25 17:26:40.425,3.3949796385062188
2025-03-25 17:26:40.425,2.504877579167266
2025-03-25 17:26:40.425,0.5096243065995198
2025-03-25 17:26:40.425,-0.9641339963224025
2025-03-25 17:26:40.435,-1.8236047333572882
2025-03-25 17:26:40.435,-2.4245369580685123
2025-03-25 17:26:40.435,-2.175156458177354
2025-03-25 17:26:40.435,-0.25300231352400965
2025-03-25 17:26:40.444,2.683367233693111
2025-03-25 17:26:40.444,4.3401599938214375
2025-03-25 17:26:40.444,2.770188238206545
2025-03-25 17:26:40.445,-1.360647182685236
2025-03-25 17:26:40.445,-4.744117945417833
2025-03-25 17:26:40.455,-4.357333569331445
2025-03-25 17:26:40.455,-0.5949962048394423
2025-03-25 17:26:40.455,3.2053030590863507
2025-03-25 17:26:40.455,4.35881858430353
2025-03-25 17:26:40.455,2.8161651022619463
2025-03-25 17:26:40.464,-0.2622205437608388
2025-03-25 17:26:40.464,-3.6617856697601763
2025-03-25 17:26:40.464,-5.196371841368622
2025-03-25 17:26:40.465,-2.4731058544073243
2025-03-25 17:26:40.465,3.345502960822551
2025-03-25 17:26:40.474,6.721286711858727
2025-03-25 17:26:40.474,3.5530051913215397
2025-03-25 17:26:40.475,-3.1922313192233274
2025-03-25 17:26:40.475,-6.3800209449938325
2025-03-25 17:26:40.475,-3.00006732438691
2025-03-25 17:26:40.484,2.757465313929344
2025-03-25 17:26:40.484,4.848183161224703
2025-03-25 17:26:40.485,1.7885332404006893
2025-03-25 17:26:40.485,-2.7287279333615153
2025-03-25 17:26:40.485,-4.048257771693824
2025-03-25 17:26:40.494,-0.8108983570994625
2025-03-25 17:26:40.494,3.8519388096535594
2025-03-25 17:26:40.495,4.9778464622017395
2025-03-25 17:26:40.495,0.6692675105737136
2025-03-25 17:26:40.495,-5.273865545649961
2025-03-25 17:26:40.504,-6.667375828841328
2025-03-25 17:26:40.504,-1.5718852777047578
2025-03-25 17:26:40.504,5.217533111677729
2025-03-25 17:26:40.505,7.202584161523083
2025-03-25 17:26:40.505,3.040288554211945
2025-03-25 17:26:40.513,-2.789511611529411
2025-03-25 17:26:40.513,-5.514161310051619
2025-03-25 17:26:40.513,-4.323569907336698
2025-03-25 17:26:40.513,-1.1357367028563106
2025-03-25 17:26:40.523,2.3002594234784097
2025-03-25 17:26:40.523,4.675773907542372
2025-03-25 17:26:40.523,4.430254980652098
2025-03-25 17:26:40.523,1.0422860868572896
2025-03-25 17:26:40.523,-3.395138800573739
2025-03-25 17:26:40.533,-5.475685793197354
2025-03-25 17:26:40.533,-3.6190810578407064
2025-03-25 17:26:40.533,0.6227567081961373
2025-03-25 17:26:40.533,4.182540875896271
2025-03-25 17:26:40.533,4.856541987007578
2025-03-25 17:26:40.533,2.424665646248836
2025-03-25 17:26:40.543,-1.5315892333639936
2025-03-25 17:26:40.543,-4.4460383514285615
2025-03-25 17:26:40.543,-4.202707014919499
2025-03-25 17:26:40.543,-0.9272551892058651
2025-03-25 17:26:40.553,2.6342889358774557
2025-03-25 17:26:40.553,3.548784712282941
2025-03-25 17:26:40.553,1.7692944080258488
2025-03-25 17:26:40.553,-0.1568336764051152
2025-03-25 17:26:40.553,-0.611835315494867
2025-03-25 17:26:40.565,-0.7087887774989501
2025-03-25 17:26:40.565,-1.8188739927325779
2025-03-25 17:26:40.565,-2.8087273042401053
2025-03-25 17:26:40.566,-1.421262945983494
2025-03-25 17:26:40.566,2.1564764274596597
2025-03-25 17:26:40.572,4.7554180189582835
2025-03-25 17:26:40.572,3.549046954322762
2025-03-25 17:26:40.573,-0.8564728142463516
2025-03-25 17:26:40.573,-4.805816791154645
2025-03-25 17:26:40.573,-4.794500138458472
2025-03-25 17:26:40.582,-0.6733976170780555
2025-03-25 17:26:40.582,3.8934744341587737
2025-03-25 17:26:40.582,4.665752618553378
2025-03-25 17:26:40.582,1.1141008424210561
2025-03-25 17:26:40.583,-2.945757127977799
2025-03-25 17:26:40.592,-3.526315372724699
2025-03-25 17:26:40.592,-0.6917032566022521
2025-03-25 17:26:40.592,2.108969231776221
2025-03-25 17:26:40.592,2.292134136506191
2025-03-25 17:26:40.592,0.5274286272888498
2025-03-25 17:26:40.601,-0.9950987366484956
2025-03-25 17:26:40.601,-1.3201191461191863
2025-03-25 17:26:40.601,-1.0198599399858135
2025-03-25 17:26:40.601,-0.5543278387053073
2025-03-25 17:26:40.611,0.3755416976417389
2025-03-25 17:26:40.611,1.637935946756131
2025-03-25 17:26:40.611,1.9365707442646085
2025-03-25 17:26:40.611,0.3199242391320658
2025-03-25 17:26:40.611,-1.9409279258959193
2025-03-25 17:26:40.621,-2.303945113073842
2025-03-25 17:26:40.621,-0.15646860554066092
2025-03-25 17:26:40.621,2.0713181871217468
2025-03-25 17:26:40.621,1.7762219765941638
2025-03-25 17:26:40.621,-0.6613058921506216
2025-03-25 17:26:40.631,-2.4628044039264867
2025-03-25 17:26:40.631,-1.6173394158219663
2025-03-25 17:26:40.631,1.2128251601276647
2025-03-25 17:26:40.631,3.380855969367485
2025-03-25 17:26:40.631,2.487281685253606
2025-03-25 17:26:40.645,-1.1814729617659565
2025-03-25 17:26:40.645,-4.1859073214179805
2025-03-25 17:26:40.645,-3.189021559048652
2025-03-25 17:26:40.646,0.9165020913972323
2025-03-25 17:26:40.646,3.6440427597040426
2025-03-25 17:26:40.650,2.3061884175533844
2025-03-25 17:26:40.650,-0.8398872566007003
2025-03-25 17:26:40.651,-1.8617055889225218
2025-03-25 17:26:40.651,-0.1369573275535547
2025-03-25 17:26:40.651,1.4413373873942192
2025-03-25 17:26:40.660,0.5584751441343057
2025-03-25 17:26:40.660,-1.7546309559334152
2025-03-25 17:26:40.661,-2.64654932709201
2025-03-25 17:26:40.661,-0.8420787719737348
2025-03-25 17:26:40.661,2.022791750617149
2025-03-25 17:26:40.670,3.2597225638637126
2025-03-25 17:26:40.670,1.9080858401374383
2025-03-25 17:26:40.670,-0.5698950527114156
2025-03-25 17:26:40.670,-2.162052467702364
2025-03-25 17:26:40.670,-2.232168661042681
2025-03-25 17:26:40.680,-1.3347109347219996
2025-03-25 17:26:40.680,0.011965477157439914
2025-03-25 17:26:40.680,1.4180395724224188
2025-03-25 17:26:40.680,2.0366625758722074
2025-03-25 17:26:40.680,1.1867125472139524
2025-03-25 17:26:40.689,-0.4137230450119697
2025-03-25 17:26:40.689,-1.1310384136176843
2025-03-25 17:26:40.689,-0.4387122440985269
2025-03-25 17:26:40.689,0.35140439491128517
2025-03-25 17:26:40.699,-0.13859325918977777
2025-03-25 17:26:40.699,-1.3537934011656614
2025-03-25 17:26:40.699,-1.3256418211700698
2025-03-25 17:26:40.699,0.6780198531667332
2025-03-25 17:26:40.699,2.7065334406779322
2025-03-25 17:26:40.709,2.1796945894493223
2025-03-25 17:26:40.709,-0.7267796291654393
2025-03-25 17:26:40.709,-2.8788140582191435
2025-03-25 17:26:40.709,-1.9077255556211528
2025-03-25 17:26:40.709,0.8519508183067965
2025-03-25 17:26:40.722,2.145924012691844
2025-03-25 17:26:40.722,0.8641187657306277
2025-03-25 17:26:40.722,-0.9735495828299461
2025-03-25 17:26:40.722,-1.1768144047833353
2025-03-25 17:26:40.723,-0.014554878530149903
2025-03-25 17:26:40.729,0.6929406305079912
2025-03-25 17:26:40.729,0.25138091916158917
2025-03-25 17:26:40.729,-0.2394267252246278
2025-03-25 17:26:40.729,0.1260830103247129
2025-03-25 17:26:40.729,0.562121202357869
2025-03-25 17:26:40.738,-0.06139800312145936
2025-03-25 17:26:40.739,-1.0984319847250368
2025-03-25 17:26:40.739,-0.8009234217707594
2025-03-25 17:26:40.739,0.8592794395311866
2025-03-25 17:26:40.739,1.6284803401338248
2025-03-25 17:26:40.749,0.07389213900422013
2025-03-25 17:26:40.749,-1.9927074890735221
2025-03-25 17:26:40.749,-1.642612010023608
2025-03-25 17:26:40.749,1.1283152744197784
2025-03-25 17:26:40.749,3.0558198178109044
2025-03-25 17:26:40.759,1.6076177276210748
2025-03-25 17:26:40.759,-1.8103387735164584
2025-03-25 17:26:40.759,-3.454251914043344
2025-03-25 17:26:40.759,-1.608290666082919
2025-03-25 17:26:40.759,1.553523385761203
2025-03-25 17:26:40.768,2.6833794198386562
2025-03-25 17:26:40.769,1.0950153145900883
2025-03-25 17:26:40.769,-0.8774065029692241
2025-03-25 17:26:40.769,-1.0400039075092162
2025-03-25 17:26:40.769,0.1777942022302566
2025-03-25 17:26:40.783,0.7258672800421442
2025-03-25 17:26:40.783,-0.3136050119261041
2025-03-25 17:26:40.783,-1.6520482682466648
2025-03-25 17:26:40.783,-1.4046388910247736
2025-03-25 17:26:40.784,0.6052035671265742
2025-03-25 17:26:40.787,2.4347988262205047
2025-03-25 17:26:40.787,2.080547905561382
2025-03-25 17:26:40.787,-0.2058086068426421
2025-03-25 17:26:40.787,-2.1159716702940057
2025-03-25 17:26:40.787,-1.8787556268713732
2025-03-25 17:26:40.797,-0.10385120437087206
2025-03-25 17:26:40.797,1.240111897492334
2025-03-25 17:26:40.797,1.1022497725543339
2025-03-25 17:26:40.797,0.07186207717017198
2025-03-25 17:26:40.797,-0.7300096997356936
2025-03-25 17:26:40.807,-0.7392321026208712
2025-03-25 17:26:40.807,-0.04369586191206357
2025-03-25 17:26:40.807,0.8689751739531826
2025-03-25 17:26:40.807,1.2246675804532916
2025-03-25 17:26:40.807,0.3863973029477691
2025-03-25 17:26:40.817,-1.2887899784404657
2025-03-25 17:26:40.817,-2.2161185432345727
2025-03-25 17:26:40.817,-0.9582327365342627
2025-03-25 17:26:40.817,1.7781344385045974
2025-03-25 17:26:40.827,3.144752660412202
2025-03-25 17:26:40.827,1.140668655612771
2025-03-25 17:26:40.827,-2.487910391022309
2025-03-25 17:26:40.827,-3.608264727254016
2025-03-25 17:26:40.827,-0.5874864504211113
2025-03-25 17:26:40.837,3.292710224394609
2025-03-25 17:26:40.837,3.513941043368196
2025-03-25 17:26:40.837,-0.19439886023964084
2025-03-25 17:26:40.837,-3.5257069978230486
2025-03-25 17:26:40.837,-2.8351489741589635
2025-03-25 17:26:40.847,0.6413033664305602
2025-03-25 17:26:40.847,2.635142493604925
2025-03-25 17:26:40.847,1.203119727961089
2025-03-25 17:26:40.847,-1.100616518059014
2025-03-25 17:26:40.847,-0.857372717511997
2025-03-25 17:26:40.858,1.4933019660613909
2025-03-25 17:26:40.859,2.13299498480179
2025-03-25 17:26:40.859,-0.8173296053139778
2025-03-25 17:26:40.859,-4.1844568408722695
2025-03-25 17:26:40.859,-3.400058842049406
2025-03-25 17:26:40.866,1.4739391622542724
2025-03-25 17:26:40.866,5.2793850687590975
2025-03-25 17:26:40.867,3.8086882115488097
2025-03-25 17:26:40.867,-1.1478564907617286
2025-03-25 17:26:40.867,-4.10671528134957
2025-03-25 17:26:40.876,-2.5416924825065808
2025-03-25 17:26:40.876,0.5880324792103795
2025-03-25 17:26:40.876,1.3356200286474957
2025-03-25 17:26:40.877,-0.07414029892106344
2025-03-25 17:26:40.877,-0.3262964471401791
2025-03-25 17:26:40.886,1.6204164623594968
2025-03-25 17:26:40.887,2.7444969068499026
2025-03-25 17:26:40.887,0.36179448250948637
2025-03-25 17:26:40.887,-3.529498055963919
2025-03-25 17:26:40.887,-4.260688528534752
2025-03-25 17:26:40.896,-0.455426930482979
2025-03-25 17:26:40.896,3.929024633723039
2025-03-25 17:26:40.896,4.239764824566606
2025-03-25 17:26:40.896,0.513484141654752
2025-03-25 17:26:40.897,-3.017404111020167
2025-03-25 17:26:40.907,-3.1160032343514046
2025-03-25 17:26:40.907,-0.685364182684175
2025-03-25 17:26:40.907,1.3276185935266958
2025-03-25 17:26:40.907,1.5978586347801045
2025-03-25 17:26:40.907,1.0097175020379139
2025-03-25 17:26:40.915,0.4934380007625495
2025-03-25 17:26:40.915,-0.18206259289461765
2025-03-25 17:26:40.915,-1.2353366499529372
2025-03-25 17:26:40.915,-1.751930574193798
2025-03-25 17:26:40.925,-0.7633919712620536
2025-03-25 17:26:40.925,1.050311736703479
2025-03-25 17:26:40.925,1.8651508240805967
2025-03-25 17:26:40.925,0.9596953349077958
2025-03-25 17:26:40.925,-0.4624204794261931
2025-03-25 17:26:40.938,-0.9303545438022818
2025-03-25 17:26:40.938,-0.4170926057679963
2025-03-25 17:26:40.938,0.012662616474121785
2025-03-25 17:26:40.938,-0.22760372361033196
2025-03-25 17:26:40.939,-0.5411491835707457
2025-03-25 17:26:40.944,-0.06485513812696128
2025-03-25 17:26:40.944,0.9326326578857455
2025-03-25 17:26:40.944,1.1137160722411008
2025-03-25 17:26:40.945,-0.02248594901021523
2025-03-25 17:26:40.945,-0.9768920817063629
2025-03-25 17:26:40.957,-0.22436262223258951
2025-03-25 17:26:40.957,1.066564534772447
2025-03-25 17:26:40.957,0.2896192545065666
2025-03-25 17:26:40.957,-2.2583439538065333
2025-03-25 17:26:40.957,-2.7350354984255882
2025-03-25 17:26:40.964,0.8980037097393568
2025-03-25 17:26:40.964,4.892321700612043
2025-03-25 17:26:40.965,3.855531010757806
2025-03-25 17:26:40.965,-1.8564993536428889
2025-03-25 17:26:40.965,-5.909430955454002
2025-03-25 17:26:40.975,-3.748271374863926
2025-03-25 17:26:40.975,1.9125265511169767
2025-03-25 17:26:40.975,4.8269189748822425
2025-03-25 17:26:40.975,2.7016796651198343
2025-03-25 17:26:40.975,-1.1039642579501467
2025-03-25 17:26:40.984,-2.5607596439545244
2025-03-25 17:26:40.985,-1.3397052858038643
2025-03-25 17:26:40.985,0.18442670980712822
2025-03-25 17:26:40.985,0.44778939490594893
2025-03-25 17:26:40.985,-0.022352030929752367
2025-03-25 17:26:40.994,-0.04522934523221575
2025-03-25 17:26:40.995,0.6437064578458347
2025-03-25 17:26:40.995,1.2400647619740195
2025-03-25 17:26:40.995,0.8210399291848861
2025-03-25 17:26:40.995,-0.5664726507497265
2025-03-25 17:26:41.006,-1.7625574980123886
2025-03-25 17:26:41.006,-1.6594790959657733
2025-03-25 17:26:41.006,-0.3873551838217862
2025-03-25 17:26:41.007,0.9909256874811337
2025-03-25 17:26:41.007,1.6905217259302041
2025-03-25 17:26:41.013,1.5694703651233963
2025-03-25 17:26:41.013,0.6201611893024974
2025-03-25 17:26:41.013,-0.9672309463661126
2025-03-25 17:26:41.013,-2.1848662733118456
2025-03-25 17:26:41.023,-1.6941709479090743
2025-03-25 17:26:41.023,0.4359305685300603
2025-03-25 17:26:41.023,2.1328830312805724
2025-03-25 17:26:41.023,1.408197786923752
2025-03-25 17:26:41.023,-1.0336247931945193
2025-03-25 17:26:41.033,-2.2047630913089185
2025-03-25 17:26:41.033,-0.3456494182106338
2025-03-25 17:26:41.033,2.598615341188662
2025-03-25 17:26:41.033,2.9477514757757413
2025-03-25 17:26:41.033,-0.2713975973541671
2025-03-25 17:26:41.043,-3.810940936560233
2025-03-25 17:26:41.043,-3.7607639427190658
2025-03-25 17:26:41.043,-0.06419089595759664
2025-03-25 17:26:41.043,3.460232490435257
2025-03-25 17:26:41.043,3.5181846621615027
2025-03-25 17:26:41.053,0.7310090720725018
2025-03-25 17:26:41.053,-1.7327547210713972
2025-03-25 17:26:41.053,-1.940080397062047
2025-03-25 17:26:41.053,-0.7131903453135813
2025-03-25 17:26:41.053,0.1389030467940071
2025-03-25 17:26:41.063,0.011561500058063098
2025-03-25 17:26:41.063,-0.3063350734099048
2025-03-25 17:26:41.063,0.017482684070071603
2025-03-25 17:26:41.063,0.8578870292628761
2025-03-25 17:26:41.063,1.411392590886303
2025-03-25 17:26:41.073,1.0893279976287218
2025-03-25 17:26:41.073,-0.04251817606457636
2025-03-25 17:26:41.073,-1.4239659034591745
2025-03-25 17:26:41.073,-2.2247788344880326
2025-03-25 17:26:41.073,-1.6292315986600199
2025-03-25 17:26:41.082,0.398241980707258
2025-03-25 17:26:41.083,2.4601655675165377
2025-03-25 17:26:41.083,2.6065789910632624
2025-03-25 17:26:41.083,0.49518742168143515
2025-03-25 17:26:41.083,-1.8289240723334022
2025-03-25 17:26:41.092,-2.103918560280991
2025-03-25 17:26:41.092,-0.4937064628997605
2025-03-25 17:26:41.092,0.8423548803645751
2025-03-25 17:26:41.093,0.6521243337046823
2025-03-25 17:26:41.093,-0.07768522065934234
2025-03-25 17:26:41.102,0.04086679261589905
2025-03-25 17:26:41.102,0.7316736904038894
2025-03-25 17:26:41.103,0.6429130872657167
2025-03-25 17:26:41.103,-0.5529439112147022
2025-03-25 17:26:41.103,-1.5672254176517701
2025-03-25 17:26:41.112,-1.0689056165251143
2025-03-25 17:26:41.113,0.664764621745595
2025-03-25 17:26:41.113,1.9281753466070768
2025-03-25 17:26:41.113,1.3603546980946633
2025-03-25 17:26:41.113,-0.5332911630193388
2025-03-25 17:26:41.123,-1.8013424831063405
2025-03-25 17:26:41.123,-1.1833560083640715
2025-03-25 17:26:41.123,0.4154117587355976
2025-03-25 17:26:41.123,1.053828789119612
2025-03-25 17:26:41.123,0.18797329596080448
2025-03-25 17:26:41.134,-0.7170174055086884
2025-03-25 17:26:41.134,-0.15315502297075853
2025-03-25 17:26:41.135,1.4007677978097568
2025-03-25 17:26:41.135,1.8523284950926235
2025-03-25 17:26:41.135,-0.051742383035353376
2025-03-25 17:26:41.141,-2.849133912481117
2025-03-25 17:26:41.141,-3.469453567048035
2025-03-25 17:26:41.141,-0.6396610282881523
2025-03-25 17:26:41.141,3.2458690834174715
2025-03-25 17:26:41.141,4.413707280097088
2025-03-25 17:26:41.151,1.7385778233059146
2025-03-25 17:26:41.151,-2.2014794508498996
2025-03-25 17:26:41.151,-3.9867493700682126
2025-03-25 17:26:41.151,-2.538162606467118
2025-03-25 17:26:41.161,0.4962195294845931
2025-03-25 17:26:41.161,2.617712160424763
2025-03-25 17:26:41.161,2.4389556325990402
2025-03-25 17:26:41.161,0.5138607142803718
2025-03-25 17:26:41.161,-1.2607932936645088
2025-03-25 17:26:41.171,-1.3974014022952963
2025-03-25 17:26:41.171,-0.25881070206782497
2025-03-25 17:26:41.171,0.5194152095281411
2025-03-25 17:26:41.171,0.09943364645775266
2025-03-25 17:26:41.171,-0.6114476326952716
2025-03-25 17:26:41.181,-0.3574468963193639
2025-03-25 17:26:41.181,0.6883569272558008
2025-03-25 17:26:41.181,1.1745027120183327
2025-03-25 17:26:41.181,0.39715557736441964
2025-03-25 17:26:41.181,-0.8102038997230776
2025-03-25 17:26:41.191,-1.1693268474914358
2025-03-25 17:26:41.191,-0.4250461943170883
2025-03-25 17:26:41.191,0.5818493579926423
2025-03-25 17:26:41.191,0.9490770229557972
2025-03-25 17:26:41.191,0.47576234841888393
2025-03-25 17:26:41.201,-0.35641131599452075
2025-03-25 17:26:41.201,-0.8133580840287326
2025-03-25 17:26:41.201,-0.47603171900211066
2025-03-25 17:26:41.201,0.31373327811355883
2025-03-25 17:26:41.201,0.6938273324364059
2025-03-25 17:26:41.211,0.24138534474846632
2025-03-25 17:26:41.211,-0.4553316156373636
2025-03-25 17:26:41.211,-0.5115956041312733
2025-03-25 17:26:41.211,0.11089668914691855
2025-03-25 17:26:41.211,0.6141966007946358
2025-03-25 17:26:41.220,0.4667237587124838
2025-03-25 17:26:41.221,-0.03617299005284094
2025-03-25 17:26:41.221,-0.43446867178264365
2025-03-25 17:26:41.221,-0.7269987071406636
2025-03-25 17:26:41.221,-0.9031009349300516
2025-03-25 17:26:41.230,-0.3921958431649355
2025-03-25 17:26:41.231,1.1189456816230314
2025-03-25 17:26:41.231,2.4295182362223193
2025-03-25 17:26:41.231,1.5958745460449189
2025-03-25 17:26:41.231,-1.3838616154219692
2025-03-25 17:26:41.240,-3.6268537292091856
2025-03-25 17:26:41.240,-2.3626069270070307
2025-03-25 17:26:41.241,1.444706118239256
2025-03-25 17:26:41.241,3.7940015882588174
2025-03-25 17:26:41.241,2.214409406936742
2025-03-25 17:26:41.250,-1.4146755127280985
2025-03-25 17:26:41.250,-3.1531507166200887
2025-03-25 17:26:41.250,-1.4211568336070437
2025-03-25 17:26:41.251,1.5387219091827729
2025-03-25 17:26:41.251,2.3986052327448544
2025-03-25 17:26:41.261,0.4119485367586323
2025-03-25 17:26:41.261,-1.9070787299354615
2025-03-25 17:26:41.261,-1.762610883700414
2025-03-25 17:26:41.261,0.6110292689749645
2025-03-25 17:26:41.261,2.2298664067569933
2025-03-25 17:26:41.269,1.044417031469603
2025-03-25 17:26:41.269,-1.4833335077206868
2025-03-25 17:26:41.269,-2.207773870747351
2025-03-25 17:26:41.269,-0.2354996055290715
2025-03-25 17:26:41.269,2.027985735188939
2025-03-25 17:26:41.279,1.9308304736812718
2025-03-25 17:26:41.279,-0.28102257200893077
2025-03-25 17:26:41.279,-2.0578057843547364
2025-03-25 17:26:41.279,-1.6976534790884876
2025-03-25 17:26:41.289,0.0577620476828552
2025-03-25 17:26:41.289,1.4238833074899837
2025-03-25 17:26:41.289,1.5349404258124066
2025-03-25 17:26:41.289,0.717026501347026
2025-03-25 17:26:41.289,-0.3391911833972484
2025-03-25 17:26:41.299,-1.0666930543187405
2025-03-25 17:26:41.299,-1.1312414536333448
2025-03-25 17:26:41.299,-0.610405700124053
2025-03-25 17:26:41.299,0.07862176161000314
2025-03-25 17:26:41.299,0.6434613566791285
2025-03-25 17:26:41.309,1.039314093496112
2025-03-25 17:26:41.309,1.0344961387747815
2025-03-25 17:26:41.309,0.21511144303544977
2025-03-25 17:26:41.309,-1.1557182894849714
2025-03-25 17:26:41.309,-1.7747292194304793
2025-03-25 17:26:41.320,-0.6023129975553327
2025-03-25 17:26:41.320,1.474222098365692
2025-03-25 17:26:41.320,2.1366816993387108
2025-03-25 17:26:41.320,0.3371794679843547
2025-03-25 17:26:41.320,-2.0729804239582625
2025-03-25 17:26:41.329,-2.2952137195985602
2025-03-25 17:26:41.329,0.014355904650757922
2025-03-25 17:26:41.329,2.274168440441181
2025-03-25 17:26:41.329,2.1129672849345007
2025-03-25 17:26:41.329,0.0676797634356377
2025-03-25 17:26:41.339,-1.4425374939187674
2025-03-25 17:26:41.339,-1.2028171317282546
2025-03-25 17:26:41.339,-0.29968830969151145
2025-03-25 17:26:41.339,-0.15169704981947918
2025-03-25 17:26:41.339,-0.46533384114695353
2025-03-25 17:26:41.349,0.06656207637840902
2025-03-25 17:26:41.349,1.4883569143940834
2025-03-25 17:26:41.349,2.117306217835517
2025-03-25 17:26:41.349,0.6851063257630241
2025-03-25 17:26:41.349,-1.7772635270176722
2025-03-25 17:26:41.359,-2.8442478613510445
2025-03-25 17:26:41.359,-1.3561788637631709
2025-03-25 17:26:41.359,1.2563201227848422
2025-03-25 17:26:41.359,2.461301207531127
2025-03-25 17:26:41.359,1.2893647178080365
2025-03-25 17:26:41.369,-0.7406554904211782
2025-03-25 17:26:41.369,-1.449658082569216
2025-03-25 17:26:41.369,-0.4617533987520722
2025-03-25 17:26:41.369,0.6028673444864414
2025-03-25 17:26:41.369,0.37391265523353107
2025-03-25 17:26:41.378,-0.5091492719090674
2025-03-25 17:26:41.379,-0.47127260491803286
2025-03-25 17:26:41.379,0.574457690211116
2025-03-25 17:26:41.379,0.9835679562412095
2025-03-25 17:26:41.379,-0.14235180530572006
2025-03-25 17:26:41.388,-1.3743546908302025
2025-03-25 17:26:41.389,-0.8510039682376119
2025-03-25 17:26:41.389,0.9718044951418949
2025-03-25 17:26:41.389,1.8034986103463717
2025-03-25 17:26:41.389,0.5724639383946826
2025-03-25 17:26:41.398,-1.2655086970416205
2025-03-25 17:26:41.398,-1.6935279299161188
2025-03-25 17:26:41.399,-0.4558606330420637
2025-03-25 17:26:41.399,0.986874533756508
2025-03-25 17:26:41.399,1.2326528257306473
2025-03-25 17:26:41.409,0.24078183425654132
2025-03-25 17:26:41.409,-0.8718170332752411
2025-03-25 17:26:41.409,-0.9675430001379499
2025-03-25 17:26:41.409,0.13000489050664873
2025-03-25 17:26:41.409,1.4401027248159455
2025-03-25 17:26:41.417,1.5029044774769125
2025-03-25 17:26:41.417,-0.268232468154887
2025-03-25 17:26:41.417,-2.4940588821890457
2025-03-25 17:26:41.417,-2.654312097704273
2025-03-25 17:26:41.417,0.08803451077548559
2025-03-25 17:26:41.427,3.226737627447907
2025-03-25 17:26:41.427,3.325356420592683
2025-03-25 17:26:41.427,0.1686955005027464
2025-03-25 17:26:41.427,-2.8041933320385226
2025-03-25 17:26:41.427,-2.668179285159035
2025-03-25 17:26:41.442,-0.3497125212269361
2025-03-25 17:26:41.442,1.1270723643976674
2025-03-25 17:26:41.442,0.7422451532795942
2025-03-25 17:26:41.442,0.2877775788022538
2025-03-25 17:26:41.443,1.1297779697637729
2025-03-25 17:26:41.447,1.7989823866544457
2025-03-25 17:26:41.447,0.07430011434166967
2025-03-25 17:26:41.447,-3.1531275008206365
2025-03-25 17:26:41.447,-3.972523104829006
2025-03-25 17:26:41.447,-0.33209010569625486
2025-03-25 17:26:41.457,4.42878125272278
2025-03-25 17:26:41.458,4.8187506688228146
2025-03-25 17:26:41.458,-0.03702035762214795
2025-03-25 17:26:41.458,-4.765983486148522
2025-03-25 17:26:41.467,-3.9821352999955515
2025-03-25 17:26:41.467,1.1293744473236549
2025-03-25 17:26:41.467,4.285141077234617
2025-03-25 17:26:41.467,1.895701900859427
2025-03-25 17:26:41.467,-2.653912771812255
2025-03-25 17:26:41.477,-3.491913462177144
2025-03-25 17:26:41.477,0.4024791140541958
2025-03-25 17:26:41.477,4.161156372246882
2025-03-25 17:26:41.477,3.117043666275581
2025-03-25 17:26:41.477,-1.7267112584271955
2025-03-25 17:26:41.487,-5.077390826673236
2025-03-25 17:26:41.487,-3.384465134393991
2025-03-25 17:26:41.487,1.5039985584009083
2025-03-25 17:26:41.487,4.715357933033008
2025-03-25 17:26:41.487,3.5887800727483574
2025-03-25 17:26:41.497,-0.10257001592028059
2025-03-25 17:26:41.497,-2.8150145044907844
2025-03-25 17:26:41.497,-2.962038065421557
2025-03-25 17:26:41.497,-1.4731931245970618
2025-03-25 17:26:41.497,0.2702373458646404
2025-03-25 17:26:41.507,1.6500935361816949
2025-03-25 17:26:41.507,2.214709898567707
2025-03-25 17:26:41.507,1.411142439138939
2025-03-25 17:26:41.507,-0.44577262260996
2025-03-25 17:26:41.507,-1.857378587455417
2025-03-25 17:26:41.518,-1.6136521180255228
2025-03-25 17:26:41.518,-0.18284190394630376
2025-03-25 17:26:41.518,0.959159023976103
2025-03-25 17:26:41.518,1.0478378478563581
2025-03-25 17:26:41.518,0.4861703003964638
2025-03-25 17:26:41.526,-0.12853180123621769
2025-03-25 17:26:41.527,-0.6345347912195282
2025-03-25 17:26:41.527,-0.8853453526091415
2025-03-25 17:26:41.527,-0.4853423478688819
2025-03-25 17:26:41.527,0.5404458605466929
2025-03-25 17:26:41.536,1.277353200590366
2025-03-25 17:26:41.536,0.8234288403076172
2025-03-25 17:26:41.537,-0.4357413550672067
2025-03-25 17:26:41.537,-1.1092711982520773
2025-03-25 17:26:41.537,-0.5275260791823018
2025-03-25 17:26:41.546,0.3437875297043395
2025-03-25 17:26:41.546,0.17092581402204832
2025-03-25 17:26:41.546,-0.7939036516707461
2025-03-25 17:26:41.547,-0.7720664516030588
2025-03-25 17:26:41.547,1.0669687793402116
2025-03-25 17:26:41.555,2.8117103270840498
2025-03-25 17:26:41.555,1.7244439445219095
2025-03-25 17:26:41.555,-1.8954229237983498
2025-03-25 17:26:41.555,-4.195100994941378
2025-03-25 17:26:41.555,-2.2214066306778775
2025-03-25 17:26:41.565,2.0177753082438716
2025-03-25 17:26:41.565,3.6597447448430684
2025-03-25 17:26:41.565,1.1313568235192064
2025-03-25 17:26:41.565,-1.779377460411269
2025-03-25 17:26:41.565,-1.1385503595993363
2025-03-25 17:26:41.575,1.5615923549809805
2025-03-25 17:26:41.576,1.54483342589207
2025-03-25 17:26:41.576,-2.0364165978458395
2025-03-25 17:26:41.576,-4.264300213672373
2025-03-25 17:26:41.587,-1.2215749343932005
2025-03-25 17:26:41.587,4.019337864656488
2025-03-25 17:26:41.587,5.01142968807417
2025-03-25 17:26:41.587,0.48012364324465817
2025-03-25 17:26:41.587,-3.967393171916801
2025-03-25 17:26:41.595,-3.2485107940907136
2025-03-25 17:26:41.595,0.842363163826286
2025-03-25 17:26:41.595,2.6087058681780246
2025-03-25 17:26:41.595,0.1792268098339116
2025-03-25 17:26:41.595,-2.438875976870815
2025-03-25 17:26:41.605,-1.181897607307302
2025-03-25 17:26:41.605,2.5134579370914087
2025-03-25 17:26:41.605,3.6288422816901056
2025-03-25 17:26:41.605,0.19301485957982298
2025-03-25 17:26:41.605,-3.98569007447661
2025-03-25 17:26:41.615,-3.907237074811065
2025-03-25 17:26:41.615,0.49219923340696503
2025-03-25 17:26:41.615,4.25549905070678
2025-03-25 17:26:41.615,3.347162074859635
2025-03-25 17:26:41.615,-0.8022016024928554
2025-03-25 17:26:41.625,-3.496901090222541
2025-03-25 17:26:41.625,-2.415773471230792
2025-03-25 17:26:41.625,0.42015624943284047
2025-03-25 17:26:41.625,1.934677553079041
2025-03-25 17:26:41.625,1.4936400634884013
2025-03-25 17:26:41.625,0.5048915292334141
2025-03-25 17:26:41.635,-0.12473414075138256
2025-03-25 17:26:41.635,-0.7219364045042205
2025-03-25 17:26:41.635,-1.3667545889463137
2025-03-25 17:26:41.635,-1.1628715244800885
2025-03-25 17:26:41.645,0.3225963516551825
