timestamp,bandpass_and_notch
2025-03-26 13:52:45.020,-0.5943007932202885
2025-03-26 13:52:45.020,4.627880500930959
2025-03-26 13:52:45.020,4.452471701463511
2025-03-26 13:52:45.020,-7.139383290861072
2025-03-26 13:52:45.028,-22.292131006953806
2025-03-26 13:52:45.028,-16.408237008715094
2025-03-26 13:52:45.028,20.790140364949128
2025-03-26 13:52:45.028,57.151116838119236
2025-03-26 13:52:45.028,44.300880512511526
2025-03-26 13:52:45.036,-21.41511154531856
2025-03-26 13:52:45.036,-81.32202412749012
2025-03-26 13:52:45.036,-72.33093876147242
2025-03-26 13:52:45.036,2.844390790757233
2025-03-26 13:52:45.044,75.49738218028487
2025-03-26 13:52:45.044,81.31912268704288
2025-03-26 13:52:45.044,22.308725947092718
2025-03-26 13:52:45.044,-43.43242577125593
2025-03-26 13:52:45.054,-63.931245467740666
2025-03-26 13:52:45.054,-36.81556117430216
2025-03-26 13:52:45.054,3.602149732436639
2025-03-26 13:52:45.054,27.268267434794943
2025-03-26 13:52:45.054,29.39269969372095
2025-03-26 13:52:45.065,20.247074723233126
2025-03-26 13:52:45.065,8.087770182270607
2025-03-26 13:52:45.065,-4.970008942807319
2025-03-26 13:52:45.065,-17.426893625214245
2025-03-26 13:52:45.072,-24.418117188378908
2025-03-26 13:52:45.072,-19.652003868340472
2025-03-26 13:52:45.072,-1.7559949103166135
2025-03-26 13:52:45.072,20.179533323781122
2025-03-26 13:52:45.072,29.96401923718502
2025-03-26 13:52:45.080,18.16047154213848
2025-03-26 13:52:45.080,-6.555092014059728
2025-03-26 13:52:45.080,-23.625280549968256
2025-03-26 13:52:45.080,-20.277587676362927
2025-03-26 13:52:45.090,-3.1159218590376168
2025-03-26 13:52:45.090,10.81898381970356
2025-03-26 13:52:45.090,11.782381856141468
2025-03-26 13:52:45.090,4.065670642671013
2025-03-26 13:52:45.090,-2.4041313207553134
2025-03-26 13:52:45.100,-3.038636389001844
2025-03-26 13:52:45.100,-0.6116427248278059
2025-03-26 13:52:45.100,0.5209024992096785
2025-03-26 13:52:45.100,-0.560817799143273
2025-03-26 13:52:45.100,-1.8050884622358667
2025-03-26 13:52:45.110,-1.4791323299306973
2025-03-26 13:52:45.110,0.19562043633067172
2025-03-26 13:52:45.110,1.843179450599007
2025-03-26 13:52:45.110,2.2271051446115075
2025-03-26 13:52:45.110,0.9868830880821966
2025-03-26 13:52:45.120,-1.109885142387543
2025-03-26 13:52:45.120,-2.6070342224398018
2025-03-26 13:52:45.120,-2.3482720130176253
2025-03-26 13:52:45.120,-0.13043347657322107
2025-03-26 13:52:45.120,3.087457740264315
2025-03-26 13:52:45.128,5.040350441685084
2025-03-26 13:52:45.128,3.1467046191902366
2025-03-26 13:52:45.128,-2.63039659969409
2025-03-26 13:52:45.128,-8.017317526282675
2025-03-26 13:52:45.138,-7.483667619550544
2025-03-26 13:52:45.138,-0.11660031702065554
2025-03-26 13:52:45.138,8.37790187415318
2025-03-26 13:52:45.138,10.533806695035414
2025-03-26 13:52:45.138,4.168010878659821
2025-03-26 13:52:45.146,-5.38927197026495
2025-03-26 13:52:45.146,-10.028612769996316
2025-03-26 13:52:45.146,-6.228379600259728
2025-03-26 13:52:45.146,1.803404661388058
2025-03-26 13:52:45.146,6.457023417522899
2025-03-26 13:52:45.158,4.383645567676783
2025-03-26 13:52:45.158,-0.626539858240192
2025-03-26 13:52:45.158,-2.6638977256463083
2025-03-26 13:52:45.158,-0.5167727196030338
2025-03-26 13:52:45.158,1.8104545011226938
2025-03-26 13:52:45.166,0.8454517122269127
2025-03-26 13:52:45.166,-2.0842642304628565
2025-03-26 13:52:45.166,-3.1325655190717185
2025-03-26 13:52:45.166,-0.9520766735232786
2025-03-26 13:52:45.176,2.1765127212106927
2025-03-26 13:52:45.176,3.4617274463991
2025-03-26 13:52:45.176,2.0631832163906196
2025-03-26 13:52:45.176,-1.1021339195821358
2025-03-26 13:52:45.176,-3.8977593638950103
2025-03-26 13:52:45.184,-3.4968525554022425
2025-03-26 13:52:45.184,0.9356690417660745
2025-03-26 13:52:45.184,5.511572047134158
2025-03-26 13:52:45.184,4.509511293692487
2025-03-26 13:52:45.194,-2.287807153167189
2025-03-26 13:52:45.194,-7.581148258415136
2025-03-26 13:52:45.194,-4.603446154252906
2025-03-26 13:52:45.194,4.015457366357273
2025-03-26 13:52:45.194,8.559272451589818
2025-03-26 13:52:45.202,3.7670843757978227
2025-03-26 13:52:45.202,-4.721088643810347
2025-03-26 13:52:45.202,-7.292574504193406
2025-03-26 13:52:45.202,-1.941631657625726
2025-03-26 13:52:45.212,4.0336121174531385
2025-03-26 13:52:45.212,3.787382896232602
2025-03-26 13:52:45.212,-0.8676317324386145
2025-03-26 13:52:45.212,-2.9365178041619417
2025-03-26 13:52:45.212,0.21117407719485892
2025-03-26 13:52:45.220,3.9861956374206957
2025-03-26 13:52:45.220,3.0928030221737894
2025-03-26 13:52:45.220,-2.020393088428316
2025-03-26 13:52:45.220,-6.258204369957376
2025-03-26 13:52:45.220,-5.455881863137876
2025-03-26 13:52:45.230,0.2161349032704327
2025-03-26 13:52:45.230,6.720182938399028
2025-03-26 13:52:45.230,8.823818432028142
2025-03-26 13:52:45.230,3.934982132514814
2025-03-26 13:52:45.240,-4.868662894286374
2025-03-26 13:52:45.240,-10.326372015129344
2025-03-26 13:52:45.240,-7.413238789270467
2025-03-26 13:52:45.240,1.322273321487377
2025-03-26 13:52:45.240,7.989640616158205
2025-03-26 13:52:45.240,7.433815013062244
2025-03-26 13:52:45.250,1.9901305883441522
2025-03-26 13:52:45.250,-2.4693996469427657
2025-03-26 13:52:45.250,-3.4754349446201567
2025-03-26 13:52:45.250,-2.980046312892333
2025-03-26 13:52:45.260,-2.771569046434674
2025-03-26 13:52:45.260,-1.9968634530049096
2025-03-26 13:52:45.260,0.4500214743537999
2025-03-26 13:52:45.260,3.598919482139988
2025-03-26 13:52:45.260,5.421970800808538
2025-03-26 13:52:45.268,4.608871733614955
2025-03-26 13:52:45.268,0.8644298551077263
2025-03-26 13:52:45.268,-4.690489904778389
2025-03-26 13:52:45.268,-8.641302170599356
2025-03-26 13:52:45.278,-6.998128387460619
2025-03-26 13:52:45.278,0.29893826164094156
2025-03-26 13:52:45.278,7.859892347090536
2025-03-26 13:52:45.278,9.77913698820146
2025-03-26 13:52:45.278,5.380122966855445
2025-03-26 13:52:45.286,-1.3889166392551273
2025-03-26 13:52:45.286,-6.857380049766181
2025-03-26 13:52:45.286,-9.449415458321125
2025-03-26 13:52:45.286,-7.6506395109068315
2025-03-26 13:52:45.296,-0.2135900593071637
2025-03-26 13:52:45.296,9.834902063828261
2025-03-26 13:52:45.296,14.366697522586012
2025-03-26 13:52:45.296,7.381636164670775
2025-03-26 13:52:45.296,-6.69747581941822
2025-03-26 13:52:45.304,-15.345296104672643
2025-03-26 13:52:45.304,-10.65847112481973
2025-03-26 13:52:45.305,2.053457227393451
2025-03-26 13:52:45.305,10.546258420300331
2025-03-26 13:52:45.314,8.93374338369125
2025-03-26 13:52:45.314,1.8866841513606287
2025-03-26 13:52:45.314,-3.2682154018874723
2025-03-26 13:52:45.314,-4.428855233710943
2025-03-26 13:52:45.314,-3.680289909636291
2025-03-26 13:52:45.324,-2.23489708098478
2025-03-26 13:52:45.324,0.3244298269360194
2025-03-26 13:52:45.324,3.162832798656669
2025-03-26 13:52:45.324,3.8278312434996793
2025-03-26 13:52:45.324,1.4166454220212696
2025-03-26 13:52:45.332,-1.6625492829688129
2025-03-26 13:52:45.332,-2.276267292998728
2025-03-26 13:52:45.332,-0.3861585443828859
2025-03-26 13:52:45.332,0.888499630768263
2025-03-26 13:52:45.332,-0.4958390993569135
2025-03-26 13:52:45.342,-2.3120693046471317
2025-03-26 13:52:45.342,-0.9335123175031583
2025-03-26 13:52:45.342,2.8696785740059627
2025-03-26 13:52:45.342,3.9971938130297806
2025-03-26 13:52:45.352,0.2848516852226326
2025-03-26 13:52:45.352,-3.506572825043234
2025-03-26 13:52:45.352,-2.2051685246580037
2025-03-26 13:52:45.352,1.7564053065050096
2025-03-26 13:52:45.352,1.7058624701161522
2025-03-26 13:52:45.362,-2.676958883072339
2025-03-26 13:52:45.362,-4.004048130971081
2025-03-26 13:52:45.362,1.6678892117174287
2025-03-26 13:52:45.362,7.621507264571578
2025-03-26 13:52:45.362,4.992291588066564
2025-03-26 13:52:45.370,-4.466922505064054
2025-03-26 13:52:45.370,-9.809989400706156
2025-03-26 13:52:45.370,-4.800751663701169
2025-03-26 13:52:45.370,4.733780195850993
2025-03-26 13:52:45.380,8.885750966555943
2025-03-26 13:52:45.380,4.8705499111984025
2025-03-26 13:52:45.380,-2.1819644471588733
2025-03-26 13:52:45.380,-6.429853116879585
2025-03-26 13:52:45.380,-5.8988043047781185
2025-03-26 13:52:45.390,-1.6159656139550922
2025-03-26 13:52:45.390,3.8742046568263797
2025-03-26 13:52:45.390,6.824298933304492
2025-03-26 13:52:45.390,4.35090207037501
2025-03-26 13:52:45.390,-1.981993019915963
2025-03-26 13:52:45.400,-6.313942288637723
2025-03-26 13:52:45.400,-4.3289506660435695
2025-03-26 13:52:45.400,1.5200390841536469
2025-03-26 13:52:45.400,4.489349591607283
2025-03-26 13:52:45.400,1.51335169433544
2025-03-26 13:52:45.410,-3.0259022225045604
2025-03-26 13:52:45.410,-2.764295436961409
2025-03-26 13:52:45.410,2.4319529598176755
2025-03-26 13:52:45.410,5.888623188748473
2025-03-26 13:52:45.410,2.3201372614276012
2025-03-26 13:52:45.420,-5.231151998960466
2025-03-26 13:52:45.420,-8.444980321839195
2025-03-26 13:52:45.420,-3.184938932179955
2025-03-26 13:52:45.420,5.73374718972694
2025-03-26 13:52:45.420,9.525806015812279
2025-03-26 13:52:45.428,4.34894351601318
2025-03-26 13:52:45.428,-4.907340814291979
2025-03-26 13:52:45.428,-9.30612958080141
2025-03-26 13:52:45.428,-4.554799103424101
2025-03-26 13:52:45.438,4.545406964056577
2025-03-26 13:52:45.438,8.69089943957408
2025-03-26 13:52:45.438,3.5594372614985836
2025-03-26 13:52:45.438,-5.601094017741573
2025-03-26 13:52:45.438,-9.117086332844211
2025-03-26 13:52:45.446,-2.5092711748077243
2025-03-26 13:52:45.446,8.502425319445722
2025-03-26 13:52:45.446,12.283639820101005
2025-03-26 13:52:45.446,2.4532051957384575
2025-03-26 13:52:45.458,-13.301101968446195
2025-03-26 13:52:45.458,-17.958972254040916
2025-03-26 13:52:45.458,-3.1947298127808064
2025-03-26 13:52:45.458,18.057445789058008
2025-03-26 13:52:45.458,22.878948565625034
2025-03-26 13:52:45.464,4.2646497530074
2025-03-26 13:52:45.464,-19.208156376885086
2025-03-26 13:52:45.464,-23.49733600767872
2025-03-26 13:52:45.464,-5.5662241917481365
2025-03-26 13:52:45.474,15.010969952790383
2025-03-26 13:52:45.474,19.06701592609978
2025-03-26 13:52:45.474,6.702830685882498
2025-03-26 13:52:45.474,-7.453354788635668
2025-03-26 13:52:45.474,-11.863337023338856
2025-03-26 13:52:45.484,-6.866984086704479
2025-03-26 13:52:45.484,0.6262741164510619
2025-03-26 13:52:45.484,5.25851849311468
2025-03-26 13:52:45.484,5.519552858122216
2025-03-26 13:52:45.484,2.380434436479628
2025-03-26 13:52:45.493,-1.5718788967407034
2025-03-26 13:52:45.493,-3.2014158395001324
2025-03-26 13:52:45.493,-1.456681233865389
2025-03-26 13:52:45.493,1.1418148917847208
2025-03-26 13:52:45.493,1.2389831919412844
2025-03-26 13:52:45.502,-1.0281238420656753
2025-03-26 13:52:45.502,-2.1679847242114265
2025-03-26 13:52:45.502,-0.33382035333976456
2025-03-26 13:52:45.502,1.9785404871087031
2025-03-26 13:52:45.512,1.810757610803904
2025-03-26 13:52:45.512,0.23979808846479148
2025-03-26 13:52:45.512,0.22424503137773016
2025-03-26 13:52:45.512,1.2268396637745145
2025-03-26 13:52:45.512,-0.25177429593351724
2025-03-26 13:52:45.522,-4.313107389102708
2025-03-26 13:52:45.522,-5.6047173101460945
2025-03-26 13:52:45.522,-0.21727484367044136
2025-03-26 13:52:45.522,7.520047377265623
2025-03-26 13:52:45.522,8.789778900058769
2025-03-26 13:52:45.530,0.9861514127494067
2025-03-26 13:52:45.530,-8.271461929415649
2025-03-26 13:52:45.530,-9.350457761867016
2025-03-26 13:52:45.530,-1.3093808942200877
2025-03-26 13:52:45.540,7.289411413745579
2025-03-26 13:52:45.540,7.844274380439564
2025-03-26 13:52:45.540,0.6416583862389011
2025-03-26 13:52:45.540,-6.110212165425603
2025-03-26 13:52:45.540,-5.514468390313902
2025-03-26 13:52:45.550,0.7891162430397842
2025-03-26 13:52:45.550,5.17745261083006
2025-03-26 13:52:45.550,3.0476497908709916
2025-03-26 13:52:45.550,-2.302365655053224
2025-03-26 13:52:45.550,-4.195658537444745
2025-03-26 13:52:45.558,-0.5403515686459112
2025-03-26 13:52:45.558,4.032717461999356
2025-03-26 13:52:45.559,3.59831214292225
2025-03-26 13:52:45.559,-2.3245870942520668
2025-03-26 13:52:45.568,-7.416920006932885
2025-03-26 13:52:45.568,-4.41153170211418
2025-03-26 13:52:45.568,6.11935029854793
2025-03-26 13:52:45.568,13.333376974173554
2025-03-26 13:52:45.568,6.425903570543549
2025-03-26 13:52:45.578,-10.700450704079367
2025-03-26 13:52:45.578,-19.658594139134443
2025-03-26 13:52:45.578,-7.794490650620111
2025-03-26 13:52:45.578,14.248744432838437
2025-03-26 13:52:45.578,22.32885877613535
2025-03-26 13:52:45.586,7.098278389678018
2025-03-26 13:52:45.586,-14.341880313278779
2025-03-26 13:52:45.586,-18.968387704469098
2025-03-26 13:52:45.586,-4.622584159377126
2025-03-26 13:52:45.596,10.199516380011815
2025-03-26 13:52:45.596,10.642456121466417
2025-03-26 13:52:45.596,1.3131125377079242
2025-03-26 13:52:45.596,-3.9338789078949494
2025-03-26 13:52:45.596,-0.8583749947009879
2025-03-26 13:52:45.604,2.45100700886565
2025-03-26 13:52:45.604,-0.8790875235251838
2025-03-26 13:52:45.604,-6.748707652628999
2025-03-26 13:52:45.604,-6.120228496611046
2025-03-26 13:52:45.604,2.4357437851345525
2025-03-26 13:52:45.614,10.114421930617452
2025-03-26 13:52:45.614,8.199548015066584
2025-03-26 13:52:45.614,-1.6173001524232151
2025-03-26 13:52:45.614,-9.265340956232995
2025-03-26 13:52:45.624,-7.660547938557009
2025-03-26 13:52:45.624,0.24334304731575207
2025-03-26 13:52:45.624,5.998937729277416
2025-03-26 13:52:45.624,5.116719737283008
2025-03-26 13:52:45.624,0.4859916820093842
2025-03-26 13:52:45.634,-2.4842184987159057
2025-03-26 13:52:45.634,-1.959699080275601
2025-03-26 13:52:45.634,-0.3859506235873392
2025-03-26 13:52:45.634,-0.3527066019771484
2025-03-26 13:52:45.634,-1.107589554150664
2025-03-26 13:52:45.644,0.08413488287639485
2025-03-26 13:52:45.644,3.2303134510231657
2025-03-26 13:52:45.644,4.033780591829197
2025-03-26 13:52:45.644,-0.7070959757345987
2025-03-26 13:52:45.644,-6.911114116552684
2025-03-26 13:52:45.652,-6.324651830953889
2025-03-26 13:52:45.652,2.640806529367918
2025-03-26 13:52:45.652,10.657631995306806
2025-03-26 13:52:45.652,7.536074263695873
2025-03-26 13:52:45.662,-4.836134679690419
2025-03-26 13:52:45.662,-13.270713024169371
2025-03-26 13:52:45.662,-7.88976772059455
2025-03-26 13:52:45.662,6.279524833896771
2025-03-26 13:52:45.662,14.30524788340757
2025-03-26 13:52:45.672,7.5561840591113025
2025-03-26 13:52:45.672,-6.871315880033035
2025-03-26 13:52:45.672,-13.852885319020965
2025-03-26 13:52:45.672,-6.490737242120608
2025-03-26 13:52:45.672,6.844676502380447
2025-03-26 13:52:45.680,12.088428276825006
2025-03-26 13:52:45.680,4.722132327742943
2025-03-26 13:52:45.680,-6.254095439642405
2025-03-26 13:52:45.680,-9.275508816670342
2025-03-26 13:52:45.690,-2.6584205999189865
2025-03-26 13:52:45.690,5.273021476258083
2025-03-26 13:52:45.690,6.4575330699218165
2025-03-26 13:52:45.690,0.9201063903615874
2025-03-26 13:52:45.690,-4.895917982868299
2025-03-26 13:52:45.698,-5.084403247415894
2025-03-26 13:52:45.698,0.5116454180068314
2025-03-26 13:52:45.698,6.171682632487035
2025-03-26 13:52:45.698,5.3977896996456325
2025-03-26 13:52:45.698,-2.0774120563670264
2025-03-26 13:52:45.708,-8.590919997247346
2025-03-26 13:52:45.708,-6.214961417475679
2025-03-26 13:52:45.708,3.521425955101317
2025-03-26 13:52:45.708,10.250993865429827
2025-03-26 13:52:45.718,6.44141341029928
2025-03-26 13:52:45.718,-3.849459699169354
2025-03-26 13:52:45.718,-9.869751366577033
2025-03-26 13:52:45.718,-6.148843116161058
2025-03-26 13:52:45.718,2.692366139179994
2025-03-26 13:52:45.726,8.051223362152424
2025-03-26 13:52:45.726,5.814512784487434
2025-03-26 13:52:45.726,-1.0646378847772322
2025-03-26 13:52:45.726,-6.202255218606219
2025-03-26 13:52:45.726,-5.330557027501272
2025-03-26 13:52:45.736,0.29010883483554484
2025-03-26 13:52:45.736,5.046172320609943
2025-03-26 13:52:45.736,4.322455819077928
2025-03-26 13:52:45.736,-0.6808205081134102
2025-03-26 13:52:45.746,-4.240447846884543
2025-03-26 13:52:45.746,-2.739997088445977
2025-03-26 13:52:45.746,1.2539340504542358
2025-03-26 13:52:45.746,2.7650353575167075
2025-03-26 13:52:45.746,0.9194046673193766
2025-03-26 13:52:45.754,-0.7150067214394081
2025-03-26 13:52:45.754,0.028989788190630986
2025-03-26 13:52:45.754,0.7869048846733979
2025-03-26 13:52:45.754,-1.1241515448425876
2025-03-26 13:52:45.754,-3.6658631328393123
2025-03-26 13:52:45.764,-2.265094472472181
2025-03-26 13:52:45.764,3.243061550712226
2025-03-26 13:52:45.764,6.872786481053553
2025-03-26 13:52:45.764,3.395341327655385
2025-03-26 13:52:45.774,-4.525613663791526
2025-03-26 13:52:45.774,-8.473303769642836
2025-03-26 13:52:45.774,-3.7941134243207064
2025-03-26 13:52:45.774,4.743600744776867
2025-03-26 13:52:45.774,8.067221323094943
2025-03-26 13:52:45.782,2.9427542013028383
2025-03-26 13:52:45.782,-4.559198038644814
2025-03-26 13:52:45.782,-6.17957055484993
2025-03-26 13:52:45.782,-0.7702741499356769
2025-03-26 13:52:45.792,4.843811722343527
2025-03-26 13:52:45.792,4.005156246867069
2025-03-26 13:52:45.792,-2.1368921831762
2025-03-26 13:52:45.792,-6.016496267142096
2025-03-26 13:52:45.792,-2.498668987248318
2025-03-26 13:52:45.802,4.793608606390487
2025-03-26 13:52:45.802,7.3406602164347765
2025-03-26 13:52:45.802,1.7930512822682736
2025-03-26 13:52:45.802,-5.835883576416608
2025-03-26 13:52:45.802,-7.2913846843589925
2025-03-26 13:52:45.810,-1.6835587553298126
2025-03-26 13:52:45.810,4.328726767984409
2025-03-26 13:52:45.810,5.138246132597043
2025-03-26 13:52:45.810,1.9476923918036895
2025-03-26 13:52:45.820,-0.7974402879152335
2025-03-26 13:52:45.820,-1.7256901207990292
2025-03-26 13:52:45.820,-2.534192767954423
2025-03-26 13:52:45.820,-3.1895640553075304
2025-03-26 13:52:45.820,-1.1615507078293101
2025-03-26 13:52:45.831,3.5457126049936925
2025-03-26 13:52:45.831,6.0725618444841105
2025-03-26 13:52:45.831,2.354847225683219
2025-03-26 13:52:45.832,-4.565014850368222
2025-03-26 13:52:45.832,-7.173774486876267
2025-03-26 13:52:45.840,-2.369970178544602
2025-03-26 13:52:45.840,4.850073110163333
2025-03-26 13:52:45.840,7.132434595868167
2025-03-26 13:52:45.840,2.420834814025998
2025-03-26 13:52:45.840,-4.573478284617138
2025-03-26 13:52:45.848,-7.145570164787168
2025-03-26 13:52:45.848,-2.6553711672083984
2025-03-26 13:52:45.848,4.774778834587924
2025-03-26 13:52:45.848,7.568697692820214
2025-03-26 13:52:45.858,2.301092143021717
2025-03-26 13:52:45.858,-5.819020956542574
2025-03-26 13:52:45.858,-7.85030298924811
2025-03-26 13:52:45.858,-1.1800582411095661
2025-03-26 13:52:45.858,6.9805623707715245
2025-03-26 13:52:45.868,7.537428444410063
2025-03-26 13:52:45.868,-0.07367239261848729
2025-03-26 13:52:45.868,-7.327853679975543
2025-03-26 13:52:45.868,-6.524267420560845
2025-03-26 13:52:45.868,0.7181246025379908
2025-03-26 13:52:45.876,6.192493145131766
2025-03-26 13:52:45.876,4.925387513393785
2025-03-26 13:52:45.876,-0.1722129649278446
2025-03-26 13:52:45.876,-3.4071440985258263
2025-03-26 13:52:45.886,-3.154332558630774
2025-03-26 13:52:45.886,-1.7264471366392267
2025-03-26 13:52:45.886,-0.4211675304609353
2025-03-26 13:52:45.886,1.7877733360988959
2025-03-26 13:52:45.886,4.4205069611335315
2025-03-26 13:52:45.896,3.985641957893113
2025-03-26 13:52:45.896,-1.1707493719009945
2025-03-26 13:52:45.896,-6.5874866641768035
2025-03-26 13:52:45.896,-5.835672612635351
2025-03-26 13:52:45.896,1.0842414741829447
2025-03-26 13:52:45.906,6.729766016174468
2025-03-26 13:52:45.906,5.058710171584948
2025-03-26 13:52:45.906,-1.1403160583035028
2025-03-26 13:52:45.906,-4.226828727730036
2025-03-26 13:52:45.906,-1.7242545899728439
2025-03-26 13:52:45.916,1.269130973734811
2025-03-26 13:52:45.916,0.11016287015057667
2025-03-26 13:52:45.916,-2.7328323012593123
2025-03-26 13:52:45.916,-1.7099799168926861
2025-03-26 13:52:45.916,3.3187641494146494
2025-03-26 13:52:45.924,6.278326635602672
2025-03-26 13:52:45.924,2.69994801676311
2025-03-26 13:52:45.924,-4.404788593718154
2025-03-26 13:52:45.924,-7.845346408910394
2025-03-26 13:52:45.934,-4.104929369056008
2025-03-26 13:52:45.934,3.33586855560602
2025-03-26 13:52:45.934,7.781819777056419
2025-03-26 13:52:45.934,5.4472867588173886
2025-03-26 13:52:45.934,-1.4912265744330897
2025-03-26 13:52:45.942,-6.864932256867368
2025-03-26 13:52:45.942,-5.963633530162734
2025-03-26 13:52:45.942,0.041360818938343924
2025-03-26 13:52:45.942,5.2939707745931495
2025-03-26 13:52:45.952,5.218194085293784
2025-03-26 13:52:45.952,0.7731732717934051
2025-03-26 13:52:45.952,-3.348152910717896
2025-03-26 13:52:45.952,-3.7380147965004475
2025-03-26 13:52:45.952,-0.9751419962898888
2025-03-26 13:52:45.962,1.8234639008625537
2025-03-26 13:52:45.962,2.2932460248033215
2025-03-26 13:52:45.962,0.7409301044605351
2025-03-26 13:52:45.962,-0.8327162651949553
2025-03-26 13:52:45.962,-1.2177941572125357
2025-03-26 13:52:45.970,-0.908205703627592
2025-03-26 13:52:45.970,-0.5049296046549536
2025-03-26 13:52:45.970,0.5366883361644795
2025-03-26 13:52:45.970,2.366348918880277
2025-03-26 13:52:45.980,2.8735559561750095
2025-03-26 13:52:45.980,-0.2666010591058843
2025-03-26 13:52:45.980,-5.152562722744961
2025-03-26 13:52:45.980,-5.851655800668981
2025-03-26 13:52:45.980,0.5063688141897087
2025-03-26 13:52:45.988,8.18867274428014
2025-03-26 13:52:45.988,8.065809625564125
2025-03-26 13:52:45.988,-0.9703760263741409
2025-03-26 13:52:45.988,-9.389487683725854
2025-03-26 13:52:45.998,-8.17939764799855
2025-03-26 13:52:45.998,0.3808813500556415
2025-03-26 13:52:45.998,6.712142750327071
2025-03-26 13:52:45.998,6.250947446874564
2025-03-26 13:52:45.998,2.6075066477333952
2025-03-26 13:52:46.006,-0.47348144255165736
2025-03-26 13:52:46.006,-3.6899321430117107
2025-03-26 13:52:46.006,-7.006036705894777
2025-03-26 13:52:46.006,-6.084656626720664
2025-03-26 13:52:46.016,1.467074943261619
2025-03-26 13:52:46.016,9.694514231706599
2025-03-26 13:52:46.016,9.575853455669844
2025-03-26 13:52:46.016,0.3305620592123249
2025-03-26 13:52:46.017,-8.76965300651875
2025-03-26 13:52:46.024,-8.985134550611322
2025-03-26 13:52:46.024,-1.5260817900195391
2025-03-26 13:52:46.024,5.264351743653083
2025-03-26 13:52:46.024,5.772508213243285
2025-03-26 13:52:46.034,1.6896751048813112
2025-03-26 13:52:46.034,-1.9331030489449987
2025-03-26 13:52:46.034,-2.3197026861517935
2025-03-26 13:52:46.034,-0.493144589461721
2025-03-26 13:52:46.034,0.8369554156503475
2025-03-26 13:52:46.042,0.11898807327702986
2025-03-26 13:52:46.042,-1.5869432584627883
2025-03-26 13:52:46.042,-1.7627400860706475
2025-03-26 13:52:46.042,0.5676091913645425
2025-03-26 13:52:46.052,3.2314110713833912
2025-03-26 13:52:46.052,3.0542974824651017
2025-03-26 13:52:46.052,-0.3202456136650649
2025-03-26 13:52:46.052,-3.5845917254497683
2025-03-26 13:52:46.052,-3.3243628167704973
2025-03-26 13:52:46.062,0.0790091970633651
2025-03-26 13:52:46.062,2.919641037860395
2025-03-26 13:52:46.062,2.3997387485881014
2025-03-26 13:52:46.062,-0.42393528432978134
2025-03-26 13:52:46.062,-2.145559927257515
2025-03-26 13:52:46.070,-0.9546174852375338
2025-03-26 13:52:46.070,1.4035041020430727
2025-03-26 13:52:46.070,1.7994486130826628
2025-03-26 13:52:46.070,-0.4004112650476388
2025-03-26 13:52:46.080,-2.4558390014246534
2025-03-26 13:52:46.080,-1.6744918342183932
2025-03-26 13:52:46.080,1.1902336323057612
2025-03-26 13:52:46.080,2.8907474385705867
2025-03-26 13:52:46.080,1.499004760087983
2025-03-26 13:52:46.088,-1.5639119450736387
2025-03-26 13:52:46.088,-3.0257071653136336
2025-03-26 13:52:46.088,-1.0046366499280028
2025-03-26 13:52:46.088,2.7001409687420144
2025-03-26 13:52:46.089,3.7569213643874217
2025-03-26 13:52:46.100,0.02273358519086993
2025-03-26 13:52:46.100,-4.960245772380058
2025-03-26 13:52:46.100,-5.140784206498399
2025-03-26 13:52:46.100,0.6882782509656861
2025-03-26 13:52:46.100,6.64687897465511
2025-03-26 13:52:46.108,6.276691686976765
2025-03-26 13:52:46.108,-0.08700152291349678
2025-03-26 13:52:46.108,-6.056053718040388
2025-03-26 13:52:46.108,-6.356935232454682
2025-03-26 13:52:46.118,-1.579822687138647
2025-03-26 13:52:46.118,3.6407133150079045
2025-03-26 13:52:46.118,5.330272260667559
2025-03-26 13:52:46.118,2.9210901100540516
2025-03-26 13:52:46.118,-1.1356758529500561
2025-03-26 13:52:46.126,-3.6092821173395935
2025-03-26 13:52:46.126,-2.932367331758074
2025-03-26 13:52:46.126,-0.252312636266084
2025-03-26 13:52:46.126,1.797016216929065
2025-03-26 13:52:46.136,1.6322413502589088
2025-03-26 13:52:46.136,0.12185402681829866
2025-03-26 13:52:46.136,-0.6342710663869568
2025-03-26 13:52:46.136,0.2208506946008017
2025-03-26 13:52:46.136,1.370143261373312
2025-03-26 13:52:46.144,0.8799998561305836
2025-03-26 13:52:46.144,-1.5017959522052247
2025-03-26 13:52:46.144,-3.619641577992816
2025-03-26 13:52:46.144,-2.6965931177184315
2025-03-26 13:52:46.154,1.546746376897019
2025-03-26 13:52:46.154,5.591931278946865
2025-03-26 13:52:46.154,5.030464286013492
2025-03-26 13:52:46.154,-0.5491876005341402
2025-03-26 13:52:46.154,-6.28344492092892
2025-03-26 13:52:46.162,-6.548669277619647
2025-03-26 13:52:46.162,-0.7466597966580465
2025-03-26 13:52:46.162,5.798656565726924
2025-03-26 13:52:46.162,6.858970442774049
2025-03-26 13:52:46.172,1.3939011379105328
2025-03-26 13:52:46.172,-5.205169081064434
2025-03-26 13:52:46.172,-6.3154193977240745
2025-03-26 13:52:46.172,-0.9309302614938263
2025-03-26 13:52:46.172,5.129052379473606
2025-03-26 13:52:46.180,5.462115666911548
2025-03-26 13:52:46.180,-0.020675613830216433
2025-03-26 13:52:46.180,-5.331625354435085
2025-03-26 13:52:46.180,-5.022247056139139
2025-03-26 13:52:46.181,0.476121770528337
2025-03-26 13:52:46.190,5.674684856876739
2025-03-26 13:52:46.191,5.289130455278986
2025-03-26 13:52:46.191,-0.6387695912793314
2025-03-26 13:52:46.191,-6.138742066471913
2025-03-26 13:52:46.200,-5.080836484385929
2025-03-26 13:52:46.200,1.532139122838354
2025-03-26 13:52:46.200,5.934962262858763
2025-03-26 13:52:46.200,2.9301029098198375
2025-03-26 13:52:46.200,-3.272780376387359
2025-03-26 13:52:46.208,-4.439447910086447
2025-03-26 13:52:46.208,0.7868254954518167
2025-03-26 13:52:46.208,5.178946759533418
2025-03-26 13:52:46.208,2.5857580390973705
2025-03-26 13:52:46.208,-4.130531937552381
2025-03-26 13:52:46.218,-6.857907622398702
2025-03-26 13:52:46.218,-2.055352306980476
2025-03-26 13:52:46.218,5.475576686452854
2025-03-26 13:52:46.218,8.13410778905415
2025-03-26 13:52:46.226,3.2541276817446505
2025-03-26 13:52:46.226,-4.660489491205046
2025-03-26 13:52:46.226,-8.421433144486603
2025-03-26 13:52:46.226,-4.7851684940056955
2025-03-26 13:52:46.227,2.718601816472441
2025-03-26 13:52:46.236,7.249013265711893
2025-03-26 13:52:46.236,5.0920433551593085
2025-03-26 13:52:46.236,-1.0926225453476093
2025-03-26 13:52:46.236,-5.206331984426607
2025-03-26 13:52:46.246,-3.7934285717937626
2025-03-26 13:52:46.246,0.7754727981413863
2025-03-26 13:52:46.246,3.2468505044324947
2025-03-26 13:52:46.246,1.4426710529431759
2025-03-26 13:52:46.246,-1.5162805760449352
2025-03-26 13:52:46.254,-1.5071628528054093
2025-03-26 13:52:46.254,1.1075434979817107
2025-03-26 13:52:46.254,2.144026922326679
2025-03-26 13:52:46.254,-0.3052319621004863
2025-03-26 13:52:46.254,-2.937693512459391
2025-03-26 13:52:46.264,-1.8880575877454355
2025-03-26 13:52:46.264,1.72700141348356
2025-03-26 13:52:46.264,3.4069101072504115
2025-03-26 13:52:46.264,1.3222373672060599
2025-03-26 13:52:46.272,-1.8950278868443413
2025-03-26 13:52:46.272,-3.0237994090562457
2025-03-26 13:52:46.272,-1.5049988501704483
2025-03-26 13:52:46.272,1.101507167066988
2025-03-26 13:52:46.272,2.8114690333778234
2025-03-26 13:52:46.282,2.2716005085471567
2025-03-26 13:52:46.282,-0.18929153999159498
2025-03-26 13:52:46.282,-2.43448301214705
2025-03-26 13:52:46.282,-2.5929174262864967
2025-03-26 13:52:46.290,-1.0169595958185957
2025-03-26 13:52:46.290,0.7445632557882842
2025-03-26 13:52:46.290,2.060916959441158
2025-03-26 13:52:46.291,2.8518299912453453
2025-03-26 13:52:46.291,2.055909611811064
2025-03-26 13:52:46.300,-1.1492689547111623
2025-03-26 13:52:46.300,-4.588988124768421
2025-03-26 13:52:46.300,-4.207090141218761
2025-03-26 13:52:46.300,0.7095580230509845
2025-03-26 13:52:46.310,5.318718247108348
2025-03-26 13:52:46.310,4.334230526625252
2025-03-26 13:52:46.310,-1.377724953153654
2025-03-26 13:52:46.310,-5.356178871584559
2025-03-26 13:52:46.310,-2.9721289497599686
2025-03-26 13:52:46.318,3.131006024436045
2025-03-26 13:52:46.318,5.915089269923954
2025-03-26 13:52:46.318,1.8203365178641264
2025-03-26 13:52:46.318,-5.10029505407486
2025-03-26 13:52:46.328,-7.348066338664637
2025-03-26 13:52:46.328,-2.036176977274858
2025-03-26 13:52:46.328,5.85844511600475
2025-03-26 13:52:46.328,8.576147892276074
2025-03-26 13:52:46.328,3.4699653224213125
2025-03-26 13:52:46.338,-4.582417117459333
2025-03-26 13:52:46.338,-8.302802700552144
2025-03-26 13:52:46.338,-4.94140758760434
2025-03-26 13:52:46.338,1.8213748404260492
2025-03-26 13:52:46.338,6.10192875277759
2025-03-26 13:52:46.346,5.2450370624182705
2025-03-26 13:52:46.346,1.1486665054261296
2025-03-26 13:52:46.346,-2.7045941576812895
2025-03-26 13:52:46.346,-4.225632022406843
2025-03-26 13:52:46.346,-3.0298657376887452
2025-03-26 13:52:46.356,0.06575706030719598
2025-03-26 13:52:46.356,2.7601106746151185
2025-03-26 13:52:46.356,2.463127079467597
2025-03-26 13:52:46.356,-0.32614188315721626
2025-03-26 13:52:46.366,-1.57041807548421
2025-03-26 13:52:46.366,0.9415110949502846
2025-03-26 13:52:46.366,3.4541385843031476
2025-03-26 13:52:46.366,0.8916204451247787
2025-03-26 13:52:46.366,-5.134697343279082
2025-03-26 13:52:46.374,-7.039098038223251
2025-03-26 13:52:46.374,-1.0129529250942009
2025-03-26 13:52:46.374,7.2218857882847125
2025-03-26 13:52:46.374,8.746011092206015
2025-03-26 13:52:46.384,1.8561701973984053
2025-03-26 13:52:46.384,-6.30389839113451
2025-03-26 13:52:46.384,-8.013019263548873
2025-03-26 13:52:46.384,-2.6915750220489607
2025-03-26 13:52:46.384,3.844505959215936
2025-03-26 13:52:46.392,5.8966325970673985
2025-03-26 13:52:46.392,2.710951537183981
2025-03-26 13:52:46.392,-1.9299285067912364
2025-03-26 13:52:46.393,-3.6888937260989145
2025-03-26 13:52:46.393,-1.5870033460206563
2025-03-26 13:52:46.402,1.4002290169559832
2025-03-26 13:52:46.402,1.8222955995708847
2025-03-26 13:52:46.402,-0.21870631472361957
2025-03-26 13:52:46.402,-1.4905398219600792
2025-03-26 13:52:46.412,-0.24628701265666017
2025-03-26 13:52:46.412,1.391517305407085
2025-03-26 13:52:46.412,0.9139301868034381
2025-03-26 13:52:46.412,-0.6027042100439456
2025-03-26 13:52:46.412,-0.47613793795645243
2025-03-26 13:52:46.420,0.8260958465318587
2025-03-26 13:52:46.420,0.20820571561275103
2025-03-26 13:52:46.420,-2.6075140824172425
2025-03-26 13:52:46.420,-3.4163640390282
2025-03-26 13:52:46.420,0.8271611050754982
2025-03-26 13:52:46.430,6.532779015983465
2025-03-26 13:52:46.430,6.423756753388394
2025-03-26 13:52:46.430,-1.4889891093076955
2025-03-26 13:52:46.430,-9.837980083260947
2025-03-26 13:52:46.440,-9.03609026382282
2025-03-26 13:52:46.440,1.5055067994957407
2025-03-26 13:52:46.440,11.446705628911694
2025-03-26 13:52:46.440,10.257665627644043
2025-03-26 13:52:46.440,-1.1299601568404465
2025-03-26 13:52:46.448,-11.095975544964766
2025-03-26 13:52:46.448,-9.721190864939722
2025-03-26 13:52:46.448,0.9251240730198624
2025-03-26 13:52:46.448,9.508970577897932
2025-03-26 13:52:46.458,7.689444548798184
2025-03-26 13:52:46.458,-1.4609236461972044
2025-03-26 13:52:46.458,-7.5921404218742925
2025-03-26 13:52:46.458,-4.7603911452492085
2025-03-26 13:52:46.458,2.498950897504392
2025-03-26 13:52:46.468,5.415244088732985
2025-03-26 13:52:46.468,1.7068192922486665
2025-03-26 13:52:46.468,-2.639675611127045
2025-03-26 13:52:46.468,-2.312195597639869
2025-03-26 13:52:46.468,0.4571879719632097
2025-03-26 13:52:46.478,0.5688878235387191
2025-03-26 13:52:46.478,-1.5525086805454589
2025-03-26 13:52:46.478,-0.9980282296398619
2025-03-26 13:52:46.478,3.0406669480922295
2025-03-26 13:52:46.478,4.917138541845014
2025-03-26 13:52:46.486,0.5536328989721886
2025-03-26 13:52:46.486,-5.90953989429523
2025-03-26 13:52:46.486,-6.779837958306591
2025-03-26 13:52:46.486,-0.5937526438247291
2025-03-26 13:52:46.496,6.092862813954646
2025-03-26 13:52:46.496,6.749890475891166
2025-03-26 13:52:46.496,1.8324834736054703
2025-03-26 13:52:46.496,-3.329722594537701
2025-03-26 13:52:46.496,-5.032969519612114
2025-03-26 13:52:46.504,-3.4915928287495213
2025-03-26 13:52:46.504,-0.43852082743921617
2025-03-26 13:52:46.504,2.6040163597587314
2025-03-26 13:52:46.504,3.975594190016704
2025-03-26 13:52:46.504,2.4972121729327386
2025-03-26 13:52:46.514,-0.7240592382361206
2025-03-26 13:52:46.514,-2.7434853113814324
2025-03-26 13:52:46.514,-1.9521488762611796
2025-03-26 13:52:46.514,0.17175185077651553
2025-03-26 13:52:46.524,1.1266252118788893
2025-03-26 13:52:46.525,0.3143899537860577
2025-03-26 13:52:46.525,-0.8039747771273291
2025-03-26 13:52:46.525,-0.7832197436307315
2025-03-26 13:52:46.525,0.39600268158352614
2025-03-26 13:52:46.534,1.6767538089685174
2025-03-26 13:52:46.534,1.9487727754661335
2025-03-26 13:52:46.534,0.6951520740392485
2025-03-26 13:52:46.534,-1.7024158386867747
2025-03-26 13:52:46.534,-3.712901401987888
2025-03-26 13:52:46.544,-3.1356197281651763
2025-03-26 13:52:46.544,0.7644244549518314
2025-03-26 13:52:46.544,5.112490114528921
2025-03-26 13:52:46.544,5.18368294386383
2025-03-26 13:52:46.544,-0.0054497241466658075
2025-03-26 13:52:46.552,-5.242829241661912
2025-03-26 13:52:46.552,-4.7551496878073785
2025-03-26 13:52:46.552,0.4217223176507205
2025-03-26 13:52:46.552,3.7106707751794787
2025-03-26 13:52:46.562,1.7191254868648975
2025-03-26 13:52:46.562,-1.7031799970450636
2025-03-26 13:52:46.562,-1.5225505485092803
2025-03-26 13:52:46.562,1.4904986016264732
2025-03-26 13:52:46.562,2.6436176032868675
2025-03-26 13:52:46.570,0.32918048068238126
2025-03-26 13:52:46.570,-2.292107749591366
2025-03-26 13:52:46.570,-2.3132146040212263
2025-03-26 13:52:46.570,-0.6251173737792912
2025-03-26 13:52:46.580,0.47937574781672737
2025-03-26 13:52:46.580,0.7916303910708173
2025-03-26 13:52:46.580,1.4343038350947153
2025-03-26 13:52:46.580,2.0099013140439994
2025-03-26 13:52:46.580,0.8657732728353854
2025-03-26 13:52:46.590,-1.792535039818317
2025-03-26 13:52:46.590,-3.1464384849998677
2025-03-26 13:52:46.590,-1.2440588743884438
2025-03-26 13:52:46.590,1.9353993039458588
2025-03-26 13:52:46.598,2.464894443289318
2025-03-26 13:52:46.598,-0.5062017071938749
2025-03-26 13:52:46.598,-3.0604385081565164
2025-03-26 13:52:46.598,-1.0162398024883388
2025-03-26 13:52:46.598,4.1640986562602755
2025-03-26 13:52:46.598,5.838961032365337
2025-03-26 13:52:46.608,0.04639632625478665
2025-03-26 13:52:46.608,-8.264830873973072
2025-03-26 13:52:46.608,-9.50234159495019
2025-03-26 13:52:46.608,-0.4842331492060401
2025-03-26 13:52:46.616,10.782771064086367
2025-03-26 13:52:46.616,12.831855813362875
2025-03-26 13:52:46.616,2.684973262246016
2025-03-26 13:52:46.616,-10.713575382877874
2025-03-26 13:52:46.626,-14.898758975164801
2025-03-26 13:52:46.626,-5.716689029210771
2025-03-26 13:52:46.626,8.62064845337432
2025-03-26 13:52:46.626,15.044355905793354
2025-03-26 13:52:46.626,7.840493294699223
2025-03-26 13:52:46.636,-5.915526548951177
2025-03-26 13:52:46.636,-13.21197864923066
2025-03-26 13:52:46.636,-7.860473182734153
2025-03-26 13:52:46.636,3.7158477746125875
2025-03-26 13:52:46.636,9.811984025768965
2025-03-26 13:52:46.644,5.810219023916763
2025-03-26 13:52:46.644,-2.156071627942016
2025-03-26 13:52:46.644,-5.497517597443095
2025-03-26 13:52:46.644,-2.635467462950213
2025-03-26 13:52:46.654,1.1651018832030262
2025-03-26 13:52:46.654,1.4669886185749421
2025-03-26 13:52:46.654,-0.6030907523913288
2025-03-26 13:52:46.654,-1.2350816008547518
2025-03-26 13:52:46.654,0.8347365682011234
2025-03-26 13:52:46.662,3.194373235285442
2025-03-26 13:52:46.662,2.812176155102661
2025-03-26 13:52:46.662,-0.7503605315301556
2025-03-26 13:52:46.662,-4.713999130298162
2025-03-26 13:52:46.672,-5.276079725972323
2025-03-26 13:52:46.672,-1.1496967188591134
2025-03-26 13:52:46.672,4.593333554774547
2025-03-26 13:52:46.672,6.885997081364221
2025-03-26 13:52:46.672,3.5433794174112534
2025-03-26 13:52:46.682,-2.480062624096194
2025-03-26 13:52:46.682,-6.052856328050311
2025-03-26 13:52:46.682,-4.764827186536553
2025-03-26 13:52:46.682,-0.5972847311586564
2025-03-26 13:52:46.682,2.756659535970275
2025-03-26 13:52:46.690,3.456160788262437
2025-03-26 13:52:46.690,2.3797327591183146
2025-03-26 13:52:46.690,1.1904002192543486
2025-03-26 13:52:46.690,0.28556847295281457
2025-03-26 13:52:46.700,-1.1197419733023546
2025-03-26 13:52:46.700,-3.2256817364276893
2025-03-26 13:52:46.700,-4.577077402484273
2025-03-26 13:52:46.700,-3.125572324291301
2025-03-26 13:52:46.700,1.5920805605915431
2025-03-26 13:52:46.710,7.11479248505178
2025-03-26 13:52:46.710,8.821070227613948
2025-03-26 13:52:46.710,3.3258858239406943
2025-03-26 13:52:46.710,-7.021953008502608
2025-03-26 13:52:46.710,-13.64032930934782
2025-03-26 13:52:46.718,-8.898193061792568
2025-03-26 13:52:46.718,4.752152141051617
2025-03-26 13:52:46.718,15.164221228231858
2025-03-26 13:52:46.718,12.326675993297588
2025-03-26 13:52:46.718,-1.0771171188086424
2025-03-26 13:52:46.728,-12.541523521473486
2025-03-26 13:52:46.729,-12.474668479611955
2025-03-26 13:52:46.729,-2.6664770714243744
2025-03-26 13:52:46.729,7.233782393612998
2025-03-26 13:52:46.738,9.61063550683108
2025-03-26 13:52:46.738,4.704230936894751
2025-03-26 13:52:46.738,-1.7538456028022997
2025-03-26 13:52:46.738,-4.814386003870902
2025-03-26 13:52:46.738,-3.9808107878246877
2025-03-26 13:52:46.746,-1.8311398258930356
2025-03-26 13:52:46.746,-0.3308964440415888
2025-03-26 13:52:46.746,0.8616533570224748
2025-03-26 13:52:46.746,2.7084524100533134
2025-03-26 13:52:46.756,4.345144345716865
2025-03-26 13:52:46.756,3.2869299646861183
2025-03-26 13:52:46.756,-1.4336224625605825
2025-03-26 13:52:46.756,-6.661731680713984
2025-03-26 13:52:46.756,-6.973276003172219
2025-03-26 13:52:46.764,-0.5208693046571812
2025-03-26 13:52:46.764,7.413204577271387
2025-03-26 13:52:46.765,8.850925402651445
2025-03-26 13:52:46.765,1.9341953549235869
2025-03-26 13:52:46.765,-6.441136288936274
2025-03-26 13:52:46.774,-8.127302652846385
2025-03-26 13:52:46.774,-2.501517911471241
2025-03-26 13:52:46.774,3.8529510270212177
2025-03-26 13:52:46.774,5.18688279734371
2025-03-26 13:52:46.784,2.104780424914023
2025-03-26 13:52:46.784,-0.9604966866984648
2025-03-26 13:52:46.784,-1.508505071251442
2025-03-26 13:52:46.784,-0.7091009856452615
2025-03-26 13:52:46.784,-0.519932569398212
2025-03-26 13:52:46.792,-1.0768712124277409
2025-03-26 13:52:46.792,-1.1818002358999973
2025-03-26 13:52:46.792,-0.08328279389501754
2025-03-26 13:52:46.792,1.7448088167096973
2025-03-26 13:52:46.802,2.8862199179373897
2025-03-26 13:52:46.802,1.8904178653951293
2025-03-26 13:52:46.802,-1.1994835644894821
2025-03-26 13:52:46.802,-3.9785290339033583
2025-03-26 13:52:46.802,-3.4681313641989235
2025-03-26 13:52:46.810,0.4504251651880199
2025-03-26 13:52:46.810,4.221648954316669
2025-03-26 13:52:46.810,4.1921222843044905
2025-03-26 13:52:46.811,0.47125648981996665
2025-03-26 13:52:46.811,-3.514725051646632
2025-03-26 13:52:46.822,-4.560599276799712
2025-03-26 13:52:46.822,-2.0091095689706746
2025-03-26 13:52:46.822,2.285618390595812
2025-03-26 13:52:46.822,5.03847167870029
2025-03-26 13:52:46.822,3.6277432466427624
2025-03-26 13:52:46.830,-1.2027272331240328
2025-03-26 13:52:46.830,-5.155663659934427
2025-03-26 13:52:46.830,-4.339808183297471
2025-03-26 13:52:46.831,0.5295748342563273
2025-03-26 13:52:46.840,4.706829252006762
2025-03-26 13:52:46.840,4.210290599879524
2025-03-26 13:52:46.840,-0.35774950593067
2025-03-26 13:52:46.840,-4.53408551265268
2025-03-26 13:52:46.840,-4.172300059466446
2025-03-26 13:52:46.848,0.6556678610427628
2025-03-26 13:52:46.848,5.339284356899834
2025-03-26 13:52:46.848,4.791955926181688
2025-03-26 13:52:46.848,-1.1542432498933923
2025-03-26 13:52:46.848,-6.653698136396881
2025-03-26 13:52:46.858,-5.558347226784038
2025-03-26 13:52:46.858,1.4828409740291337
2025-03-26 13:52:46.858,7.16178924831553
2025-03-26 13:52:46.858,5.59939771632991
2025-03-26 13:52:46.866,-1.116933209804384
2025-03-26 13:52:46.866,-5.841605923150792
2025-03-26 13:52:46.866,-4.650563410207382
2025-03-26 13:52:46.867,-0.21776885492249748
2025-03-26 13:52:46.867,2.674279928694329
2025-03-26 13:52:46.876,2.628911345509838
2025-03-26 13:52:46.876,1.686393709908337
2025-03-26 13:52:46.876,1.4478257528592509
2025-03-26 13:52:46.876,0.9240157551403955
2025-03-26 13:52:46.884,-1.549708910495326
2025-03-26 13:52:46.884,-5.053310414582284
2025-03-26 13:52:46.884,-5.760644857091629
2025-03-26 13:52:46.885,-0.9470136716293078
2025-03-26 13:52:46.885,6.594074417717529
2025-03-26 13:52:46.895,9.77500639620908
2025-03-26 13:52:46.895,4.415920009832106
2025-03-26 13:52:46.895,-5.370072451530225
2025-03-26 13:52:46.895,-10.614270872070069
2025-03-26 13:52:46.895,-6.583297916616676
2025-03-26 13:52:46.904,2.4747852825949646
2025-03-26 13:52:46.904,8.006016914089921
2025-03-26 13:52:46.904,5.920734933756583
2025-03-26 13:52:46.904,-0.03818087697759698
2025-03-26 13:52:46.914,-3.506287680391818
2025-03-26 13:52:46.914,-2.6319558742815565
2025-03-26 13:52:46.914,-0.7014040142031256
2025-03-26 13:52:46.914,-0.6250302462257205
2025-03-26 13:52:46.914,-1.3376088603205063
2025-03-26 13:52:46.924,-0.31434950168637943
2025-03-26 13:52:46.924,2.4093776858506897
2025-03-26 13:52:46.924,4.168450908633621
2025-03-26 13:52:46.924,2.679994146354515
2025-03-26 13:52:46.924,-1.6635829502706247
2025-03-26 13:52:46.932,-5.66087907875182
2025-03-26 13:52:46.932,-5.339853134153559
2025-03-26 13:52:46.932,0.16178762561903065
2025-03-26 13:52:46.932,6.251462940516898
2025-03-26 13:52:46.942,6.587448071461605
2025-03-26 13:52:46.942,0.4168141513185931
2025-03-26 13:52:46.942,-5.739713765183375
2025-03-26 13:52:46.942,-5.485301382002596
2025-03-26 13:52:46.942,-0.0200526874683698
2025-03-26 13:52:46.952,3.9407991717882838
2025-03-26 13:52:46.952,2.681036018197496
2025-03-26 13:52:46.952,-0.7247870688402054
2025-03-26 13:52:46.952,-1.4263909519015951
2025-03-26 13:52:46.952,0.739740751027316
2025-03-26 13:52:46.960,1.6600816163930248
2025-03-26 13:52:46.960,-0.9355632138581624
2025-03-26 13:52:46.960,-4.000623966401836
2025-03-26 13:52:46.960,-2.9076235570431925
2025-03-26 13:52:46.970,2.366243262815883
2025-03-26 13:52:46.970,6.434857728289863
2025-03-26 13:52:46.970,4.387133139456915
2025-03-26 13:52:46.970,-2.391321104999905
2025-03-26 13:52:46.970,-7.36068696112848
2025-03-26 13:52:46.980,-5.72666339679009
2025-03-26 13:52:46.980,0.8271254039628626
2025-03-26 13:52:46.980,6.403916009448843
2025-03-26 13:52:46.980,6.622072395180554
2025-03-26 13:52:46.980,1.7846827948501431
2025-03-26 13:52:46.988,-4.071592012897
2025-03-26 13:52:46.988,-6.407493511106306
2025-03-26 13:52:46.988,-3.6908603914372358
2025-03-26 13:52:46.988,1.2931155095925517
2025-03-26 13:52:46.998,4.178262113292804
2025-03-26 13:52:46.998,3.359329381664616
2025-03-26 13:52:46.998,0.9114990091546208
2025-03-26 13:52:46.998,-0.6483258936723995
2025-03-26 13:52:46.998,-1.072249353641059
2025-03-26 13:52:47.006,-1.3973446814800117
2025-03-26 13:52:47.006,-1.7367754916120692
2025-03-26 13:52:47.006,-1.3341346163264527
2025-03-26 13:52:47.006,-0.08447307744933058
2025-03-26 13:52:47.017,1.2991518065184242
2025-03-26 13:52:47.017,2.2434591931596177
2025-03-26 13:52:47.017,2.312778232290107
2025-03-26 13:52:47.017,0.8778013898368792
2025-03-26 13:52:47.018,-1.7340797686714196
2025-03-26 13:52:47.024,-3.351780813982499
2025-03-26 13:52:47.024,-2.0963915285409582
2025-03-26 13:52:47.024,0.7915274696784648
2025-03-26 13:52:47.024,2.1358414022014194
2025-03-26 13:52:47.034,0.9922152677107579
2025-03-26 13:52:47.034,-0.18764939060587715
2025-03-26 13:52:47.034,0.6832881633592054
2025-03-26 13:52:47.034,1.9286964027763915
2025-03-26 13:52:47.034,0.257840004951749
2025-03-26 13:52:47.042,-3.9174837386995636
2025-03-26 13:52:47.042,-5.498537175599524
2025-03-26 13:52:47.042,-0.7282660077590071
2025-03-26 13:52:47.042,6.758666078039475
2025-03-26 13:52:47.052,8.52896838464233
2025-03-26 13:52:47.052,1.0844689791024518
2025-03-26 13:52:47.052,-8.695122309455625
2025-03-26 13:52:47.052,-10.154532232636479
2025-03-26 13:52:47.052,-0.9954965365068542
2025-03-26 13:52:47.060,9.367404594588498
2025-03-26 13:52:47.060,10.017635565008113
2025-03-26 13:52:47.060,0.6560941110451651
2025-03-26 13:52:47.060,-8.59313847672343
2025-03-26 13:52:47.070,-8.72638872583816
2025-03-26 13:52:47.070,-0.729481506425112
2025-03-26 13:52:47.070,7.018933723805212
2025-03-26 13:52:47.070,7.604260319772312
2025-03-26 13:52:47.070,1.1586538623983786
2025-03-26 13:52:47.080,-6.068816415721723
2025-03-26 13:52:47.080,-7.070412059527598
2025-03-26 13:52:47.080,-0.5436043638235586
2025-03-26 13:52:47.080,6.69716934183224
2025-03-26 13:52:47.080,6.010173928817581
2025-03-26 13:52:47.088,-2.5306288520653033
2025-03-26 13:52:47.088,-8.532256001205532
2025-03-26 13:52:47.088,-3.520675715178443
2025-03-26 13:52:47.088,7.303618576717064
2025-03-26 13:52:47.098,10.39141976444534
2025-03-26 13:52:47.098,0.8464544310720002
2025-03-26 13:52:47.098,-10.874241807940956
2025-03-26 13:52:47.098,-11.423240280060625
2025-03-26 13:52:47.098,-0.19554195821341136
2025-03-26 13:52:47.106,10.835011151335118
2025-03-26 13:52:47.107,11.188522365602745
2025-03-26 13:52:47.107,2.127096376075661
2025-03-26 13:52:47.107,-7.097431796462191
2025-03-26 13:52:47.107,-9.542305910612024
2025-03-26 13:52:47.116,-5.2129893369240135
2025-03-26 13:52:47.116,1.7993527152260054
2025-03-26 13:52:47.116,7.099907323643855
2025-03-26 13:52:47.116,7.409080251193591
2025-03-26 13:52:47.126,2.0885623140307286
2025-03-26 13:52:47.126,-4.960284574307905
2025-03-26 13:52:47.126,-7.357589091131871
2025-03-26 13:52:47.126,-2.778552698023388
2025-03-26 13:52:47.126,3.6713652135144583
2025-03-26 13:52:47.136,5.045203835059882
2025-03-26 13:52:47.136,0.842500558641968
2025-03-26 13:52:47.136,-2.9598080823572266
2025-03-26 13:52:47.136,-1.9501711750446262
2025-03-26 13:52:47.136,1.6813452131786781
2025-03-26 13:52:47.144,2.9154662856534967
2025-03-26 13:52:47.144,0.15328238831752447
2025-03-26 13:52:47.144,-3.6109885143005727
2025-03-26 13:52:47.145,-4.274872907732247
2025-03-26 13:52:47.154,-0.42379770636368863
2025-03-26 13:52:47.154,5.05451426818276
2025-03-26 13:52:47.154,6.75190779486213
2025-03-26 13:52:47.154,1.8213929560658535
2025-03-26 13:52:47.154,-5.9137642977567015
2025-03-26 13:52:47.163,-8.623015760761955
2025-03-26 13:52:47.163,-2.8457081772363475
2025-03-26 13:52:47.163,5.789178789006806
2025-03-26 13:52:47.163,8.241865653958005
2025-03-26 13:52:47.163,2.3251079961531707
2025-03-26 13:52:47.172,-4.829889915982155
2025-03-26 13:52:47.172,-5.378831470481045
2025-03-26 13:52:47.172,0.054445266345975685
2025-03-26 13:52:47.172,3.8259986045935044
2025-03-26 13:52:47.182,1.235550822248341
2025-03-26 13:52:47.182,-3.642253887132212
2025-03-26 13:52:47.182,-3.5199321762852502
2025-03-26 13:52:47.182,2.3961273255587416
2025-03-26 13:52:47.182,7.027797917291712
2025-03-26 13:52:47.190,4.099137085121411
2025-03-26 13:52:47.190,-4.05553898658856
2025-03-26 13:52:47.190,-8.910762737552725
2025-03-26 13:52:47.190,-5.156971688473827
2025-03-26 13:52:47.200,3.632972915931553
2025-03-26 13:52:47.200,8.838408361029327
2025-03-26 13:52:47.200,5.697980098880157
2025-03-26 13:52:47.200,-2.1081075188758667
2025-03-26 13:52:47.200,-6.896139731744889
2025-03-26 13:52:47.208,-5.130246759216054
2025-03-26 13:52:47.208,0.10459105689901815
2025-03-26 13:52:47.208,3.973741867730369
2025-03-26 13:52:47.208,4.526626247798635
2025-03-26 13:52:47.218,2.1466653085918304
2025-03-26 13:52:47.218,-2.085086409514635
2025-03-26 13:52:47.218,-5.411187042873339
2025-03-26 13:52:47.218,-3.9373149815695987
2025-03-26 13:52:47.218,2.40679972488098
2025-03-26 13:52:47.226,7.354217318878376
2025-03-26 13:52:47.226,4.650481394230706
2025-03-26 13:52:47.226,-3.6065517279646535
2025-03-26 13:52:47.226,-8.4845544023278
2025-03-26 13:52:47.227,-4.563156708610705
2025-03-26 13:52:47.236,3.87309097295935
2025-03-26 13:52:47.236,7.96936817031834
2025-03-26 13:52:47.236,3.9738710807779776
2025-03-26 13:52:47.236,-3.3383573809876244
2025-03-26 13:52:47.246,-6.2973245086758185
2025-03-26 13:52:47.246,-2.509807939121444
2025-03-26 13:52:47.246,3.0390128147545625
2025-03-26 13:52:47.246,4.050461161863575
2025-03-26 13:52:47.246,0.147764098770012
2025-03-26 13:52:47.254,-3.2295386179598506
2025-03-26 13:52:47.254,-1.877350715141614
2025-03-26 13:52:47.254,2.1690101122724914
2025-03-26 13:52:47.255,3.6471968619845896
2025-03-26 13:52:47.255,0.6486367127524606
2025-03-26 13:52:47.264,-3.441873976098866
2025-03-26 13:52:47.264,-4.108315125320145
2025-03-26 13:52:47.265,-0.49916526228521724
2025-03-26 13:52:47.265,3.838289846635078
2025-03-26 13:52:47.274,4.357415004580142
2025-03-26 13:52:47.274,0.14329516188340213
2025-03-26 13:52:47.274,-4.434861562644403
2025-03-26 13:52:47.274,-3.9106424741027395
2025-03-26 13:52:47.274,1.6003971042235559
2025-03-26 13:52:47.282,5.569924096542311
2025-03-26 13:52:47.282,2.701753495092042
2025-03-26 13:52:47.282,-3.9577266057379887
2025-03-26 13:52:47.282,-6.321390910752636
2025-03-26 13:52:47.292,-1.4093071910671335
2025-03-26 13:52:47.292,4.9444767824615825
2025-03-26 13:52:47.292,5.6525917521907445
2025-03-26 13:52:47.292,0.8394624390902352
2025-03-26 13:52:47.292,-3.5522271531086385
2025-03-26 13:52:47.302,-3.661338569949588
2025-03-26 13:52:47.302,-1.1232290565229357
2025-03-26 13:52:47.302,0.777107934029811
2025-03-26 13:52:47.302,1.2470586210065253
2025-03-26 13:52:47.302,1.4292662192754946
2025-03-26 13:52:47.312,1.7017934226283018
2025-03-26 13:52:47.312,1.0848554460227737
2025-03-26 13:52:47.312,-0.983358115825826
2025-03-26 13:52:47.312,-3.1720617362163988
2025-03-26 13:52:47.312,-3.112796847783243
2025-03-26 13:52:47.320,-0.025805685449131546
2025-03-26 13:52:47.320,3.6956399180323447
2025-03-26 13:52:47.320,4.335809744535223
2025-03-26 13:52:47.321,0.8772530204034771
2025-03-26 13:52:47.330,-3.3591985561322395
2025-03-26 13:52:47.330,-4.103445398887762
2025-03-26 13:52:47.330,-1.0182199995050865
2025-03-26 13:52:47.330,2.103048537569934
2025-03-26 13:52:47.330,2.239549235712731
2025-03-26 13:52:47.340,0.535682975016266
2025-03-26 13:52:47.340,-0.2102325186183342
2025-03-26 13:52:47.340,0.2847063283620593
2025-03-26 13:52:47.340,0.1381437649251469
2025-03-26 13:52:47.340,-1.1313627704654652
2025-03-26 13:52:47.348,-1.8319224526078075
2025-03-26 13:52:47.348,-0.9429709072206466
2025-03-26 13:52:47.348,0.48321778434630014
2025-03-26 13:52:47.348,1.3653942245601496
2025-03-26 13:52:47.358,1.9886193070705194
2025-03-26 13:52:47.358,2.302582312016219
2025-03-26 13:52:47.358,0.8384758566049149
2025-03-26 13:52:47.358,-2.790370656658832
2025-03-26 13:52:47.358,-5.585207694382052
2025-03-26 13:52:47.366,-3.701683317291031
2025-03-26 13:52:47.366,2.551593452632477
2025-03-26 13:52:47.366,7.720490873053277
2025-03-26 13:52:47.366,6.202571944307525
2025-03-26 13:52:47.376,-1.578594334738823
2025-03-26 13:52:47.376,-8.479382069452711
2025-03-26 13:52:47.376,-7.322661785084471
2025-03-26 13:52:47.376,1.1344423245221953
2025-03-26 13:52:47.376,8.164665343599175
2025-03-26 13:52:47.384,6.371070922755167
2025-03-26 13:52:47.384,-1.8260599989396427
2025-03-26 13:52:47.384,-6.958142746172071
2025-03-26 13:52:47.385,-3.689858665307908
2025-03-26 13:52:47.385,3.159235068568682
2025-03-26 13:52:47.396,5.11665641113206
2025-03-26 13:52:47.396,0.559366488553195
2025-03-26 13:52:47.396,-4.110561389768028
2025-03-26 13:52:47.396,-3.217123950249972
2025-03-26 13:52:47.396,1.5441519510049475
2025-03-26 13:52:47.404,4.259564295726801
2025-03-26 13:52:47.404,2.086431061991549
2025-03-26 13:52:47.404,-2.355976850665878
2025-03-26 13:52:47.404,-4.432303879250536
2025-03-26 13:52:47.414,-1.890301161853925
2025-03-26 13:52:47.414,3.1240997447219283
2025-03-26 13:52:47.414,5.482841011381602
2025-03-26 13:52:47.414,1.893947393905278
2025-03-26 13:52:47.414,-4.610942193032404
2025-03-26 13:52:47.422,-6.785509563008935
2025-03-26 13:52:47.422,-1.530568605483489
2025-03-26 13:52:47.423,5.590619445910442
2025-03-26 13:52:47.423,6.705269064170179
2025-03-26 13:52:47.432,1.1570046475240912
2025-03-26 13:52:47.432,-4.400185153942528
2025-03-26 13:52:47.432,-4.7196169887726604
2025-03-26 13:52:47.432,-1.2895594895618134
2025-03-26 13:52:47.432,1.4314031190561063
2025-03-26 13:52:47.442,1.8441042602065139
2025-03-26 13:52:47.442,1.520194224991017
2025-03-26 13:52:47.442,1.5335035673346185
2025-03-26 13:52:47.442,0.8645417576869805
2025-03-26 13:52:47.442,-1.3153838353446128
2025-03-26 13:52:47.450,-3.349407343029861
2025-03-26 13:52:47.450,-2.6075547521772022
2025-03-26 13:52:47.450,0.8304829812485036
2025-03-26 13:52:47.450,3.5722936718704332
2025-03-26 13:52:47.460,2.81283893770085
2025-03-26 13:52:47.460,-0.2833877750310198
2025-03-26 13:52:47.460,-2.27110434419755
2025-03-26 13:52:47.460,-1.6976451275799675
2025-03-26 13:52:47.460,-0.19769312379410786
2025-03-26 13:52:47.468,0.35660224049877426
2025-03-26 13:52:47.468,0.10461739527083537
2025-03-26 13:52:47.468,0.19699719964856813
2025-03-26 13:52:47.468,0.8739449547743743
2025-03-26 13:52:47.478,1.3103963371202418
2025-03-26 13:52:47.478,0.7170083679789394
2025-03-26 13:52:47.478,-0.8455483415995675
2025-03-26 13:52:47.478,-2.3070387339349043
2025-03-26 13:52:47.478,-2.2025774029897223
2025-03-26 13:52:47.486,-0.09307174629263093
2025-03-26 13:52:47.486,2.5088667195868126
2025-03-26 13:52:47.486,3.2415213290176506
2025-03-26 13:52:47.486,1.2761606746160994
2025-03-26 13:52:47.496,-1.6526670706719635
2025-03-26 13:52:47.496,-2.953111536029215
2025-03-26 13:52:47.496,-1.8639786923197537
2025-03-26 13:52:47.496,0.02803991072643211
2025-03-26 13:52:47.496,1.0502713489029682
2025-03-26 13:52:47.505,1.3433366911190008
2025-03-26 13:52:47.505,1.7844573651588318
2025-03-26 13:52:47.505,1.8911462978238567
2025-03-26 13:52:47.505,0.2667054472778065
2025-03-26 13:52:47.505,-2.8666293032468375
2025-03-26 13:52:47.514,-4.830705155107379
2025-03-26 13:52:47.514,-2.9442065647930398
2025-03-26 13:52:47.514,2.294911049689967
2025-03-26 13:52:47.515,6.7905262137837274
2025-03-26 13:52:47.527,6.113799287567419
2025-03-26 13:52:47.527,-0.09985162114949533
2025-03-26 13:52:47.527,-6.914425682073166
2025-03-26 13:52:47.527,-8.1466564566748
2025-03-26 13:52:47.527,-2.451995130963356
2025-03-26 13:52:47.532,4.993406895577885
2025-03-26 13:52:47.532,7.597069298908193
2025-03-26 13:52:47.532,3.8411839357275075
2025-03-26 13:52:47.533,-1.9694078696224875
2025-03-26 13:52:47.542,-4.805992913318284
2025-03-26 13:52:47.542,-3.4846582105612605
2025-03-26 13:52:47.542,-0.4032562384257843
2025-03-26 13:52:47.543,1.650077388471135
2025-03-26 13:52:47.543,1.7616173436877776
2025-03-26 13:52:47.551,0.8669710532376333
2025-03-26 13:52:47.551,0.2828482659384835
2025-03-26 13:52:47.551,0.2829177386644172
2025-03-26 13:52:47.551,0.10334923315457031
2025-03-26 13:52:47.551,-0.6618252902174526
2025-03-26 13:52:47.560,-1.2485829440293041
2025-03-26 13:52:47.560,-0.8340362815876701
2025-03-26 13:52:47.560,0.07942295201273422
2025-03-26 13:52:47.561,0.3502573793125185
2025-03-26 13:52:47.561,0.06969474683571587
2025-03-26 13:52:47.570,0.5307792898665029
2025-03-26 13:52:47.570,1.927042933763849
2025-03-26 13:52:47.570,2.2307103232403898
2025-03-26 13:52:47.570,-0.3972880726812624
2025-03-26 13:52:47.582,-4.329287937630904
2025-03-26 13:52:47.582,-5.098791485146377
2025-03-26 13:52:47.582,-0.4404289293893525
2025-03-26 13:52:47.582,5.852342274422911
2025-03-26 13:52:47.582,6.9443468399867445
2025-03-26 13:52:47.590,0.7910410762397373
2025-03-26 13:52:47.590,-6.395168821628557
2025-03-26 13:52:47.590,-6.514018747805552
2025-03-26 13:52:47.590,0.7547323949213665
2025-03-26 13:52:47.590,6.876791713209676
2025-03-26 13:52:47.598,4.270004760980668
2025-03-26 13:52:47.598,-4.31866455346771
2025-03-26 13:52:47.598,-8.485435431849911
2025-03-26 13:52:47.599,-2.3156563815064857
2025-03-26 13:52:47.599,8.173826472462146
2025-03-26 13:52:47.608,11.246480789783636
2025-03-26 13:52:47.608,2.4811923192899465
2025-03-26 13:52:47.608,-9.921266962278759
2025-03-26 13:52:47.608,-13.449883146005527
2025-03-26 13:52:47.616,-4.357923077178088
2025-03-26 13:52:47.616,8.417959433197058
2025-03-26 13:52:47.617,12.728757522037643
2025-03-26 13:52:47.617,5.737297535623861
2025-03-26 13:52:47.617,-4.322588506782875
2025-03-26 13:52:47.626,-8.280691886475605
2025-03-26 13:52:47.626,-5.202905461092038
2025-03-26 13:52:47.626,-0.4933398439314417
2025-03-26 13:52:47.626,2.0606183480572495
2025-03-26 13:52:47.634,3.1092379604628335
2025-03-26 13:52:47.634,3.8276200908804094
2025-03-26 13:52:47.634,3.0263654754433915
2025-03-26 13:52:47.635,-0.47580705129085576
2025-03-26 13:52:47.644,-4.645277046752351
2025-03-26 13:52:47.644,-5.496846821179476
2025-03-26 13:52:47.644,-1.5884297203108735
2025-03-26 13:52:47.644,3.7868584943585573
2025-03-26 13:52:47.644,5.570604855953275
2025-03-26 13:52:47.654,2.1548217716793356
2025-03-26 13:52:47.654,-2.7971406409385082
2025-03-26 13:52:47.654,-4.276124170421124
2025-03-26 13:52:47.654,-1.3691030529051353
2025-03-26 13:52:47.654,2.22739375574354
2025-03-26 13:52:47.662,2.919934499347932
2025-03-26 13:52:47.662,0.7846391725837187
2025-03-26 13:52:47.662,-1.762691012073141
2025-03-26 13:52:47.663,-2.7664721786436997
2025-03-26 13:52:47.672,-1.4983354538182345
2025-03-26 13:52:47.672,1.4235773724507255
2025-03-26 13:52:47.672,3.617109704517373
2025-03-26 13:52:47.672,2.5831229371997657
2025-03-26 13:52:47.672,-1.050616097142415
2025-03-26 13:52:47.682,-3.5916439426226217
2025-03-26 13:52:47.682,-2.6617523510293166
2025-03-26 13:52:47.682,0.06824902064934371
2025-03-26 13:52:47.682,1.6330701620319175
2025-03-26 13:52:47.682,1.5866383190769202
2025-03-26 13:52:47.691,1.3665833852728502
2025-03-26 13:52:47.691,1.1537466916912784
2025-03-26 13:52:47.691,-0.21540726349858635
2025-03-26 13:52:47.691,-2.3868970583886804
2025-03-26 13:52:47.691,-2.9167969650549375
2025-03-26 13:52:47.701,-0.5176749103015452
2025-03-26 13:52:47.701,2.5850503111967664
2025-03-26 13:52:47.701,2.932167902609078
2025-03-26 13:52:47.701,0.12102772172903303
2025-03-26 13:52:47.711,-2.409276930783914
2025-03-26 13:52:47.711,-1.539719023197542
2025-03-26 13:52:47.711,1.350431901513049
2025-03-26 13:52:47.711,2.003348710119688
2025-03-26 13:52:47.711,-0.769134767290338
2025-03-26 13:52:47.720,-3.018240535349253
2025-03-26 13:52:47.720,-1.0524282309386346
2025-03-26 13:52:47.720,3.0357998770807306
2025-03-26 13:52:47.720,3.857544372320246
2025-03-26 13:52:47.721,0.01650416519701786
2025-03-26 13:52:47.728,-3.9225112941212545
2025-03-26 13:52:47.729,-3.4119138283970627
2025-03-26 13:52:47.729,0.38827400835520887
2025-03-26 13:52:47.729,2.657705813996458
2025-03-26 13:52:47.729,1.4325600286802238
2025-03-26 13:52:47.738,-0.39456742009005863
2025-03-26 13:52:47.738,0.16899071046872052
2025-03-26 13:52:47.738,1.8131033877019491
2025-03-26 13:52:47.738,0.9869520065999594
2025-03-26 13:52:47.748,-2.6901722132449772
2025-03-26 13:52:47.748,-5.163449282864107
2025-03-26 13:52:47.748,-2.6407283069635517
2025-03-26 13:52:47.748,3.447908918976988
2025-03-26 13:52:47.748,7.221025437236864
2025-03-26 13:52:47.758,4.405072775066407
2025-03-26 13:52:47.758,-2.690474104264276
2025-03-26 13:52:47.758,-7.100169049410447
2025-03-26 13:52:47.758,-4.6585092671399435
2025-03-26 13:52:47.758,1.3776581557515652
2025-03-26 13:52:47.766,4.508440419864951
2025-03-26 13:52:47.766,2.8555135081431855
2025-03-26 13:52:47.766,0.27479638752604496
2025-03-26 13:52:47.766,-0.16649629102480806
2025-03-26 13:52:47.776,-0.1470586818009813
2025-03-26 13:52:47.776,-1.9661444128521075
2025-03-26 13:52:47.776,-3.784348287874518
2025-03-26 13:52:47.777,-2.1125366698041206
2025-03-26 13:52:47.777,2.5057030335929054
2025-03-26 13:52:47.777,5.422799403646573
2025-03-26 13:52:47.786,3.472833875705562
2025-03-26 13:52:47.786,-1.457732769418733
2025-03-26 13:52:47.786,-4.836375653277301
2025-03-26 13:52:47.786,-4.047228045022361
2025-03-26 13:52:47.794,-0.12518092254089094
2025-03-26 13:52:47.794,3.708846325794684
2025-03-26 13:52:47.794,4.374580198716283
2025-03-26 13:52:47.794,1.0117121748995381
2025-03-26 13:52:47.804,-3.717105774137772
2025-03-26 13:52:47.804,-5.02993680641155
2025-03-26 13:52:47.804,-0.7325540925673621
2025-03-26 13:52:47.804,5.211896264572257
2025-03-26 13:52:47.804,5.887296132141804
2025-03-26 13:52:47.812,-0.44308354778884723
2025-03-26 13:52:47.813,-7.024565295560251
2025-03-26 13:52:47.813,-5.906481023645049
2025-03-26 13:52:47.813,1.9753959077335765
2025-03-26 13:52:47.813,7.2620427484632994
2025-03-26 13:52:47.822,3.8198293910804364
2025-03-26 13:52:47.822,-3.375473329481838
2025-03-26 13:52:47.822,-4.990449918489814
2025-03-26 13:52:47.822,0.2511659640878316
2025-03-26 13:52:47.832,4.376845314229951
2025-03-26 13:52:47.832,1.4744230928838344
2025-03-26 13:52:47.832,-4.324843181567867
2025-03-26 13:52:47.832,-4.8359900082029625
2025-03-26 13:52:47.832,1.0275508261817055
2025-03-26 13:52:47.840,6.140931108769731
2025-03-26 13:52:47.840,4.679729677439322
2025-03-26 13:52:47.840,-1.1748901508151333
2025-03-26 13:52:47.841,-5.131757212840589
2025-03-26 13:52:47.850,-4.255554501255363
2025-03-26 13:52:47.850,-0.5864614913194803
2025-03-26 13:52:47.850,2.5479157423977274
2025-03-26 13:52:47.850,3.51356440246539
2025-03-26 13:52:47.850,2.5092296182890457
2025-03-26 13:52:47.860,0.5410287168885706
2025-03-26 13:52:47.860,-1.5012147724503733
2025-03-26 13:52:47.860,-3.1286157188697845
2025-03-26 13:52:47.860,-3.6539540602705074
2025-03-26 13:52:47.860,-1.9471701916137738
2025-03-26 13:52:47.868,2.0501766686022984
2025-03-26 13:52:47.868,5.69188740279754
2025-03-26 13:52:47.868,5.206963585393801
2025-03-26 13:52:47.868,0.002731359606697681
2025-03-26 13:52:47.881,-5.55952874868296
2025-03-26 13:52:47.881,-6.212049250600876
2025-03-26 13:52:47.881,-1.5606967791410917
2025-03-26 13:52:47.881,3.470976198981741
2025-03-26 13:52:47.881,4.331703824098082
2025-03-26 13:52:47.881,1.6626984322349434
2025-03-26 13:52:47.888,-0.5987140927122827
2025-03-26 13:52:47.888,-0.7388106520681947
2025-03-26 13:52:47.888,-0.6992520651696115
2025-03-26 13:52:47.888,-1.9838252131267489
2025-03-26 13:52:47.896,-2.710965804956836
2025-03-26 13:52:47.896,-0.42669740666707484
2025-03-26 13:52:47.897,3.586851123107507
2025-03-26 13:52:47.897,4.994270558354161
2025-03-26 13:52:47.897,1.4697393758835087
2025-03-26 13:52:47.906,-4.13241136686015
2025-03-26 13:52:47.906,-6.254713457805697
2025-03-26 13:52:47.906,-2.3266152597227134
2025-03-26 13:52:47.906,4.114048448462636
2025-03-26 13:52:47.916,6.599850602283314
2025-03-26 13:52:47.916,2.546618134032391
2025-03-26 13:52:47.916,-3.7572213726061436
2025-03-26 13:52:47.916,-5.816788946893125
2025-03-26 13:52:47.916,-2.028909359727489
2025-03-26 13:52:47.925,3.019451574490086
2025-03-26 13:52:47.925,4.128270427834885
2025-03-26 13:52:47.925,1.021753574998249
2025-03-26 13:52:47.925,-2.2105427358255105
2025-03-26 13:52:47.934,-2.215950260158952
2025-03-26 13:52:47.934,0.24643665021419978
2025-03-26 13:52:47.934,1.9217435080815768
2025-03-26 13:52:47.934,0.9482701366154913
2025-03-26 13:52:47.934,-1.4373385063069677
2025-03-26 13:52:47.944,-2.546182392464631
2025-03-26 13:52:47.944,-0.9942192101310826
2025-03-26 13:52:47.944,1.9966492374400884
2025-03-26 13:52:47.944,3.6636195236413442
2025-03-26 13:52:47.944,2.22809426883984
2025-03-26 13:52:47.952,-1.3009383342234078
2025-03-26 13:52:47.952,-3.9573920502996813
2025-03-26 13:52:47.952,-3.6587475356875183
2025-03-26 13:52:47.953,-0.938176486838392
2025-03-26 13:52:47.963,2.231075602852244
2025-03-26 13:52:47.963,4.326689726859529
2025-03-26 13:52:47.963,4.278955842731839
2025-03-26 13:52:47.963,1.1505931787790358
2025-03-26 13:52:47.963,-4.045376588202921
2025-03-26 13:52:47.970,-7.117053366237692
2025-03-26 13:52:47.970,-4.262259953514056
2025-03-26 13:52:47.971,2.72330183945652
2025-03-26 13:52:47.971,7.32808038881146
2025-03-26 13:52:47.980,5.4283073080473665
2025-03-26 13:52:47.980,-0.33323376842602687
2025-03-26 13:52:47.980,-4.300600600045791
2025-03-26 13:52:47.980,-4.197026728068769
2025-03-26 13:52:47.980,-2.119134145053491
2025-03-26 13:52:47.989,-0.3571409782476459
2025-03-26 13:52:47.989,1.2344848784247102
2025-03-26 13:52:47.989,3.2271950868905726
2025-03-26 13:52:47.989,4.127705982406387
2025-03-26 13:52:47.989,1.858375869947417
2025-03-26 13:52:48.000,-2.6865027255493272
2025-03-26 13:52:48.000,-5.4193136327034015
2025-03-26 13:52:48.000,-3.381897011658763
2025-03-26 13:52:48.000,1.4823401855270069
2025-03-26 13:52:48.000,4.235131532729446
2025-03-26 13:52:48.008,2.654996656181198
2025-03-26 13:52:48.008,-0.4828024265854744
2025-03-26 13:52:48.008,-1.5316071015983788
2025-03-26 13:52:48.008,-0.5929548676462268
2025-03-26 13:52:48.018,-0.2655630386920687
2025-03-26 13:52:48.018,-1.166440606214258
2025-03-26 13:52:48.018,-1.2751148922285573
2025-03-26 13:52:48.018,0.5131866964857922
2025-03-26 13:52:48.018,2.4936763987422523
2025-03-26 13:52:48.026,2.3707564138135555
2025-03-26 13:52:48.026,0.045446678945053304
2025-03-26 13:52:48.027,-2.3301491417422784
2025-03-26 13:52:48.027,-2.5537432064702834
2025-03-26 13:52:48.036,-0.5756209211333437
2025-03-26 13:52:48.036,1.369572367994448
2025-03-26 13:52:48.036,1.2736921038433258
2025-03-26 13:52:48.036,-0.09920363150025086
2025-03-26 13:52:48.036,-0.2793650297316752
2025-03-26 13:52:48.044,1.1985264793840658
2025-03-26 13:52:48.045,1.848103373623231
2025-03-26 13:52:48.045,-0.16119116253730748
2025-03-26 13:52:48.045,-3.0443124269595456
2025-03-26 13:52:48.054,-3.4757185194800955
2025-03-26 13:52:48.054,-0.6701188958732132
2025-03-26 13:52:48.054,2.8776041829416665
2025-03-26 13:52:48.054,4.118697151582087
2025-03-26 13:52:48.054,2.084476330584161
2025-03-26 13:52:48.064,-1.4871607287936954
2025-03-26 13:52:48.064,-3.509242801345014
2025-03-26 13:52:48.064,-2.315139522329785
2025-03-26 13:52:48.064,0.4562996482762014
2025-03-26 13:52:48.064,1.653928080723148
2025-03-26 13:52:48.072,0.5637210538592704
2025-03-26 13:52:48.072,-0.3400049800386189
2025-03-26 13:52:48.073,0.7506456179299766
2025-03-26 13:52:48.073,2.086534559180773
2025-03-26 13:52:48.082,0.9293653437615523
2025-03-26 13:52:48.082,-2.1584825282164397
2025-03-26 13:52:48.082,-3.7473771631473474
2025-03-26 13:52:48.082,-1.9953331741120133
2025-03-26 13:52:48.082,1.3169006858687058
2025-03-26 13:52:48.092,3.371145450828788
2025-03-26 13:52:48.092,3.126134564414477
2025-03-26 13:52:48.092,1.156208285926666
2025-03-26 13:52:48.092,-1.5040412744279235
2025-03-26 13:52:48.092,-3.4326331364005367
2025-03-26 13:52:48.102,-3.141829663071422
2025-03-26 13:52:48.102,-0.5782944470216046
2025-03-26 13:52:48.102,2.3244044133244985
2025-03-26 13:52:48.102,3.380192230913992
2025-03-26 13:52:48.102,2.001191324057385
2025-03-26 13:52:48.110,-0.7604566599017468
2025-03-26 13:52:48.110,-2.8933884936623238
2025-03-26 13:52:48.110,-2.2459090702201685
2025-03-26 13:52:48.110,1.199318216062074
2025-03-26 13:52:48.120,3.559639175723682
2025-03-26 13:52:48.120,0.7113526140411378
2025-03-26 13:52:48.120,-4.986759342357555
2025-03-26 13:52:48.120,-5.5217681586115175
2025-03-26 13:52:48.120,2.1654218026511165
2025-03-26 13:52:48.128,9.877177368419096
2025-03-26 13:52:48.128,7.286552315188656
2025-03-26 13:52:48.128,-4.209312060493773
2025-03-26 13:52:48.128,-12.0578972867252
2025-03-26 13:52:48.138,-7.633784946232265
2025-03-26 13:52:48.138,3.705489537977568
2025-03-26 13:52:48.138,9.888877495661784
2025-03-26 13:52:48.138,6.224531385449597
2025-03-26 13:52:48.138,-1.2302303939532464
2025-03-26 13:52:48.146,-4.792694182989992
2025-03-26 13:52:48.146,-3.4186756310656357
2025-03-26 13:52:48.146,-1.0608579931156
2025-03-26 13:52:48.146,-0.22832384957559093
2025-03-26 13:52:48.156,0.09937066197195735
2025-03-26 13:52:48.156,1.3189887659892718
2025-03-26 13:52:48.156,2.662438162164908
2025-03-26 13:52:48.156,2.4605706071480644
2025-03-26 13:52:48.156,0.529875947385325
2025-03-26 13:52:48.164,-1.7408846805412033
2025-03-26 13:52:48.164,-3.071615948631393
2025-03-26 13:52:48.164,-3.0434013265959763
2025-03-26 13:52:48.164,-1.5110931039053612
2025-03-26 13:52:48.174,1.4212370994691563
2025-03-26 13:52:48.174,4.46135630708036
2025-03-26 13:52:48.174,5.175107264496768
2025-03-26 13:52:48.175,1.9635649020442598
2025-03-26 13:52:48.175,-3.798945182343295
2025-03-26 13:52:48.184,-7.841205483094841
2025-03-26 13:52:48.184,-5.991882350437154
2025-03-26 13:52:48.185,1.6175752382174375
2025-03-26 13:52:48.185,9.064652314609598
2025-03-26 13:52:48.185,9.04442724713037
2025-03-26 13:52:48.192,0.5082242808537101
2025-03-26 13:52:48.193,-8.815646376169854
2025-03-26 13:52:48.193,-9.699259194260735
2025-03-26 13:52:48.193,-1.4911391492428985
2025-03-26 13:52:48.201,7.051939284859629
2025-03-26 13:52:48.201,7.7339945923883
2025-03-26 13:52:48.201,1.5907756580194934
2025-03-26 13:52:48.201,-3.9472441924845416
2025-03-26 13:52:48.201,-4.411004448340549
2025-03-26 13:52:48.211,-1.8018171787556416
2025-03-26 13:52:48.211,0.34789774522552724
2025-03-26 13:52:48.211,1.536600825838084
2025-03-26 13:52:48.211,2.603045795507048
2025-03-26 13:52:48.220,2.546093673925176
2025-03-26 13:52:48.220,-0.040257382936965375
2025-03-26 13:52:48.220,-3.501616719947862
2025-03-26 13:52:48.220,-4.040091216060027
2025-03-26 13:52:48.220,-0.4777015917931291
2025-03-26 13:52:48.228,3.8157372005293086
2025-03-26 13:52:48.228,4.508250727910103
2025-03-26 13:52:48.228,0.8517432634621389
2025-03-26 13:52:48.228,-3.7107774122285306
2025-03-26 13:52:48.238,-4.859143261869233
2025-03-26 13:52:48.238,-1.3627702715245413
2025-03-26 13:52:48.238,3.621609197517866
2025-03-26 13:52:48.238,5.326869062810656
2025-03-26 13:52:48.239,2.0207970285702355
2025-03-26 13:52:48.247,-3.168762880933524
2025-03-26 13:52:48.247,-5.378566499649023
2025-03-26 13:52:48.247,-2.795552030837742
2025-03-26 13:52:48.247,1.8736931894208098
2025-03-26 13:52:48.247,4.396888761785956
2025-03-26 13:52:48.256,3.068439832876929
2025-03-26 13:52:48.256,-0.177100890361149
2025-03-26 13:52:48.257,-2.2494295570434493
2025-03-26 13:52:48.257,-2.027182711968279
2025-03-26 13:52:48.266,-0.860400484139223
2025-03-26 13:52:48.266,-0.33180961862906244
2025-03-26 13:52:48.266,-0.23825767209525373
2025-03-26 13:52:48.266,0.6795344757541023
2025-03-26 13:52:48.266,2.284741341794787
2025-03-26 13:52:48.276,2.4573954169535117
2025-03-26 13:52:48.276,-0.10306578893402026
2025-03-26 13:52:48.276,-3.145489394770916
2025-03-26 13:52:48.276,-2.862204563821102
2025-03-26 13:52:48.276,0.7939787493833277
2025-03-26 13:52:48.284,3.0035151902837147
2025-03-26 13:52:48.285,0.38619215192589385
2025-03-26 13:52:48.285,-3.399509872501417
2025-03-26 13:52:48.285,-2.0313557759387493
2025-03-26 13:52:48.285,3.9255646846795247
2025-03-26 13:52:48.296,6.4529804035144185
2025-03-26 13:52:48.296,0.8460629136736942
2025-03-26 13:52:48.296,-7.004772063661093
2025-03-26 13:52:48.296,-7.709993282217792
2025-03-26 13:52:48.296,-0.4321120101853625
2025-03-26 13:52:48.304,6.439540311140972
2025-03-26 13:52:48.305,6.166088610724582
2025-03-26 13:52:48.305,0.9931654710371878
2025-03-26 13:52:48.305,-2.640727787515986
2025-03-26 13:52:48.314,-2.604531200953336
2025-03-26 13:52:48.315,-1.7306200365309021
2025-03-26 13:52:48.315,-1.8821291280637111
2025-03-26 13:52:48.315,-1.2729277744321288
2025-03-26 13:52:48.315,1.7291251117533264
2025-03-26 13:52:48.323,4.881897635905735
2025-03-26 13:52:48.323,4.140251826549083
2025-03-26 13:52:48.323,-1.0297587816264562
2025-03-26 13:52:48.323,-5.913038232914334
2025-03-26 13:52:48.323,-5.243369794164431
2025-03-26 13:52:48.332,0.5505555899255952
2025-03-26 13:52:48.332,5.38058051660751
2025-03-26 13:52:48.333,4.505167625091431
2025-03-26 13:52:48.333,-0.24355685669887644
2025-03-26 13:52:48.342,-3.5841465076649945
2025-03-26 13:52:48.343,-3.21933065687477
2025-03-26 13:52:48.343,-0.9389237282010557
2025-03-26 13:52:48.343,1.1909819917020406
2025-03-26 13:52:48.343,2.7186711928806946
2025-03-26 13:52:48.352,3.1164659107292794
2025-03-26 13:52:48.352,1.1688205307215151
2025-03-26 13:52:48.353,-2.6840431748287794
2025-03-26 13:52:48.353,-5.195290192947314
2025-03-26 13:52:48.353,-3.3567967107319516
2025-03-26 13:52:48.361,1.8278380109780836
2025-03-26 13:52:48.361,5.893981503149288
2025-03-26 13:52:48.361,5.254989477027493
2025-03-26 13:52:48.361,0.40986765185984597
2025-03-26 13:52:48.370,-4.772887379927816
2025-03-26 13:52:48.370,-6.288302545980631
2025-03-26 13:52:48.370,-3.031035292961972
2025-03-26 13:52:48.370,2.371417976032065
2025-03-26 13:52:48.370,5.686458897238147
2025-03-26 13:52:48.378,4.597089385741665
2025-03-26 13:52:48.379,0.38164392855862306
2025-03-26 13:52:48.379,-3.6179560225084617
2025-03-26 13:52:48.379,-4.709575396541215
2025-03-26 13:52:48.379,-2.380246652561994
2025-03-26 13:52:48.388,1.5584615215138684
2025-03-26 13:52:48.388,3.933076202774224
2025-03-26 13:52:48.388,2.65784920048662
2025-03-26 13:52:48.388,-0.8713544469285817
2025-03-26 13:52:48.398,-2.890890360031397
2025-03-26 13:52:48.398,-1.5632591897900638
2025-03-26 13:52:48.398,1.0892561298719345
2025-03-26 13:52:48.398,2.2102344892515484
2025-03-26 13:52:48.399,1.2570137064500668
2025-03-26 13:52:48.406,-0.7758935583506021
2025-03-26 13:52:48.406,-2.898732136249579
2025-03-26 13:52:48.406,-3.385103323994516
2025-03-26 13:52:48.407,-0.20421647977334562
2025-03-26 13:52:48.416,5.228504610631512
2025-03-26 13:52:48.416,7.000871220361235
2025-03-26 13:52:48.416,1.0984992442868167
2025-03-26 13:52:48.416,-7.8393580054491565
2025-03-26 13:52:48.416,-9.982993965122825
2025-03-26 13:52:48.426,-1.7378322324168454
2025-03-26 13:52:48.426,8.95428087469541
2025-03-26 13:52:48.426,10.933301162854526
2025-03-26 13:52:48.426,2.2599428821123384
2025-03-26 13:52:48.426,-7.879178527021639
2025-03-26 13:52:48.434,-9.558031311271755
2025-03-26 13:52:48.434,-2.3986528631341053
2025-03-26 13:52:48.434,5.337619733720666
2025-03-26 13:52:48.435,6.464990457656882
2025-03-26 13:52:48.444,1.80055509928009
2025-03-26 13:52:48.444,-2.589729096291158
2025-03-26 13:52:48.444,-2.95881236498603
2025-03-26 13:52:48.444,-0.8784391108163863
2025-03-26 13:52:48.444,0.4816936968468638
2025-03-26 13:52:48.452,0.5091192681968395
2025-03-26 13:52:48.452,0.5820131367039019
2025-03-26 13:52:48.452,0.9984704833232685
2025-03-26 13:52:48.453,0.44067328454106314
2025-03-26 13:52:48.462,-1.4572693708149937
2025-03-26 13:52:48.462,-2.5886725810575126
2025-03-26 13:52:48.462,-0.7227150120994698
2025-03-26 13:52:48.462,3.0120869153725676
2025-03-26 13:52:48.462,4.543143649787789
2025-03-26 13:52:48.471,1.465710844869556
2025-03-26 13:52:48.471,-3.718892939892686
2025-03-26 13:52:48.471,-6.008562872230739
2025-03-26 13:52:48.471,-3.1624196784704304
2025-03-26 13:52:48.471,2.287268418138325
2025-03-26 13:52:48.484,5.931106940289205
2025-03-26 13:52:48.484,5.310400630685045
2025-03-26 13:52:48.484,1.0478585268195566
2025-03-26 13:52:48.484,-4.137861299838068
2025-03-26 13:52:48.490,-6.760427363169515
2025-03-26 13:52:48.490,-4.510029355259564
2025-03-26 13:52:48.490,1.362486204568136
2025-03-26 13:52:48.490,6.186069360154145
2025-03-26 13:52:48.490,5.985349129563296
2025-03-26 13:52:48.499,1.4554152977007417
2025-03-26 13:52:48.499,-3.091324067424427
2025-03-26 13:52:48.499,-4.426101366983715
2025-03-26 13:52:48.499,-3.0184598632423714
2025-03-26 13:52:48.499,-1.158908425687535
2025-03-26 13:52:48.508,0.2015706223625734
2025-03-26 13:52:48.508,1.8968176804866363
2025-03-26 13:52:48.509,4.168185060433902
2025-03-26 13:52:48.509,4.953700574072717
2025-03-26 13:52:48.518,1.756673117610712
2025-03-26 13:52:48.518,-4.462943081284306
2025-03-26 13:52:48.518,-8.497899918006318
2025-03-26 13:52:48.519,-5.6901130029171245
2025-03-26 13:52:48.519,2.4094283028274766
2025-03-26 13:52:48.527,8.72662263954766
2025-03-26 13:52:48.527,7.695925572354931
2025-03-26 13:52:48.527,0.6110738910626581
2025-03-26 13:52:48.527,-6.2903233164352095
2025-03-26 13:52:48.536,-7.689548705743031
2025-03-26 13:52:48.537,-2.980553313124334
2025-03-26 13:52:48.537,3.732009887971614
2025-03-26 13:52:48.537,6.64766285528603
2025-03-26 13:52:48.537,3.22831690503037
2025-03-26 13:52:48.546,-2.7862878247780927
2025-03-26 13:52:48.546,-4.899443465656547
2025-03-26 13:52:48.547,-1.2766351080168201
2025-03-26 13:52:48.547,3.0697011360289506
2025-03-26 13:52:48.547,2.6907637840929977
2025-03-26 13:52:48.554,-1.4350540004814187
2025-03-26 13:52:48.555,-3.522093940355568
2025-03-26 13:52:48.555,-0.6935695844758527
2025-03-26 13:52:48.555,3.4157062625870163
2025-03-26 13:52:48.564,3.5285766258585776
2025-03-26 13:52:48.564,-0.5877414261709972
2025-03-26 13:52:48.564,-4.023073988255641
2025-03-26 13:52:48.564,-2.85038437397779
2025-03-26 13:52:48.564,1.2993986369974446
2025-03-26 13:52:48.573,3.4639286509882172
2025-03-26 13:52:48.573,1.3577275372876982
2025-03-26 13:52:48.573,-2.033639320756745
2025-03-26 13:52:48.573,-2.304302913298696
2025-03-26 13:52:48.573,0.7670914815977559
2025-03-26 13:52:48.582,2.9190519140496876
2025-03-26 13:52:48.582,1.0089769017365642
2025-03-26 13:52:48.583,-2.675514463069674
2025-03-26 13:52:48.583,-3.261927116937942
2025-03-26 13:52:48.592,0.24091978071992032
2025-03-26 13:52:48.592,3.4567473617195907
2025-03-26 13:52:48.592,2.3136953342216615
2025-03-26 13:52:48.592,-1.537972539291896
2025-03-26 13:52:48.593,-2.8791024714552993
2025-03-26 13:52:48.602,-0.0011371048057927657
2025-03-26 13:52:48.602,2.793058628906445
2025-03-26 13:52:48.602,1.0875513361489024
2025-03-26 13:52:48.602,-3.0422659963597036
2025-03-26 13:52:48.602,-3.328881029986016
2025-03-26 13:52:48.612,1.6940886083352396
2025-03-26 13:52:48.612,5.585830363480999
2025-03-26 13:52:48.612,2.3642021640456763
2025-03-26 13:52:48.612,-4.618134396275651
2025-03-26 13:52:48.612,-6.335606614400836
2025-03-26 13:52:48.621,-0.10658263433025877
2025-03-26 13:52:48.621,6.473086651923064
2025-03-26 13:52:48.621,5.241595892789662
2025-03-26 13:52:48.621,-2.196211815193674
2025-03-26 13:52:48.630,-6.870793993864812
2025-03-26 13:52:48.630,-3.6624714159167535
2025-03-26 13:52:48.630,3.2605232303412994
2025-03-26 13:52:48.630,6.3546161840807445
2025-03-26 13:52:48.630,3.0795424271283514
2025-03-26 13:52:48.640,-2.7854240455551182
2025-03-26 13:52:48.640,-5.838014222439892
2025-03-26 13:52:48.640,-3.555236118164298
2025-03-26 13:52:48.640,1.9857846636593153
2025-03-26 13:52:48.641,5.485857015251177
2025-03-26 13:52:48.649,3.3037199089860505
2025-03-26 13:52:48.649,-2.005363980991682
2025-03-26 13:52:48.649,-4.1655120573993445
2025-03-26 13:52:48.649,-1.1034062473431085
2025-03-26 13:52:48.658,2.396360933514888
2025-03-26 13:52:48.659,1.5388537881209337
2025-03-26 13:52:48.659,-1.8798403552011451
2025-03-26 13:52:48.659,-2.4857342747716857
2025-03-26 13:52:48.659,0.8783298341419211
2025-03-26 13:52:48.668,3.7544067565981756
2025-03-26 13:52:48.668,2.3546258001930487
2025-03-26 13:52:48.668,-1.6556444333504643
2025-03-26 13:52:48.668,-3.7827887433189447
2025-03-26 13:52:48.668,-2.200792321856526
2025-03-26 13:52:48.676,0.9537565286491196
2025-03-26 13:52:48.676,2.6949919988248108
2025-03-26 13:52:48.677,1.9697604398887143
2025-03-26 13:52:48.677,-0.19432310174394785
2025-03-26 13:52:48.686,-1.8561786451527702
2025-03-26 13:52:48.686,-1.5306193910905066
2025-03-26 13:52:48.686,0.46496657715307294
2025-03-26 13:52:48.686,1.9762748262394003
2025-03-26 13:52:48.686,1.2300866900459806
2025-03-26 13:52:48.695,-1.0133156335729026
2025-03-26 13:52:48.695,-2.4580085747059712
2025-03-26 13:52:48.695,-2.024996949540142
2025-03-26 13:52:48.695,-0.28710478218413377
2025-03-26 13:52:48.695,2.1471635841203462
2025-03-26 13:52:48.704,4.428265854133302
2025-03-26 13:52:48.704,4.084838687919678
2025-03-26 13:52:48.705,-0.794323311375203
2025-03-26 13:52:48.705,-7.133421653407399
2025-03-26 13:52:48.713,-8.069480694664032
2025-03-26 13:52:48.713,-0.9581780253212921
2025-03-26 13:52:48.713,7.966329742378676
2025-03-26 13:52:48.713,9.67746278903451
2025-03-26 13:52:48.722,2.396394781964235
2025-03-26 13:52:48.722,-6.519440038753656
2025-03-26 13:52:48.723,-8.625699136522465
2025-03-26 13:52:48.723,-2.828678251702526
2025-03-26 13:52:48.723,4.417270070199518
2025-03-26 13:52:48.732,6.195537949910424
2025-03-26 13:52:48.732,1.7942535341870327
2025-03-26 13:52:48.732,-3.3148398245182533
2025-03-26 13:52:48.733,-3.673121067018668
2025-03-26 13:52:48.733,0.3631236144647718
2025-03-26 13:52:48.741,3.4713902517314925
2025-03-26 13:52:48.741,1.8178572985201642
2025-03-26 13:52:48.741,-2.4958474103717796
2025-03-26 13:52:48.741,-4.120323214149647
2025-03-26 13:52:48.750,-0.8173600425518259
2025-03-26 13:52:48.750,3.892375692812802
2025-03-26 13:52:48.751,4.574297359553929
2025-03-26 13:52:48.751,0.028727375043966663
2025-03-26 13:52:48.751,-4.928907169379584
2025-03-26 13:52:48.760,-4.538561035711069
2025-03-26 13:52:48.760,1.1642802358826299
2025-03-26 13:52:48.760,5.9463829854087855
2025-03-26 13:52:48.760,4.315149148370919
2025-03-26 13:52:48.760,-2.22724954505262
2025-03-26 13:52:48.769,-6.817065124105642
2025-03-26 13:52:48.769,-4.561990045364693
2025-03-26 13:52:48.769,2.4840746370003535
2025-03-26 13:52:48.769,7.420005123636285
2025-03-26 13:52:48.779,5.25243058055219
2025-03-26 13:52:48.779,-2.118623652380696
2025-03-26 13:52:48.779,-7.524452334590585
2025-03-26 13:52:48.779,-5.600149466843868
2025-03-26 13:52:48.779,1.6163386748346273
2025-03-26 13:52:48.788,6.718817053842061
2025-03-26 13:52:48.788,4.8099533486802235
2025-03-26 13:52:48.788,-1.3806985692177929
2025-03-26 13:52:48.788,-4.925403406227836
2025-03-26 13:52:48.788,-2.651813471729245
2025-03-26 13:52:48.796,1.7005281490560797
2025-03-26 13:52:48.797,2.6607446895625837
2025-03-26 13:52:48.797,-0.1385229726623332
2025-03-26 13:52:48.797,-2.1746316974219666
2025-03-26 13:52:48.806,-0.6333789186119037
2025-03-26 13:52:48.806,1.942956032685835
2025-03-26 13:52:48.806,1.8259122842463884
2025-03-26 13:52:48.806,-0.5256213214680542
2025-03-26 13:52:48.806,-1.7139534877478648
2025-03-26 13:52:48.815,-0.5532940095804455
2025-03-26 13:52:48.815,0.8362374132157006
2025-03-26 13:52:48.815,0.5722157085634779
2025-03-26 13:52:48.815,-0.7918158374799096
2025-03-26 13:52:48.815,-1.561855025190472
2025-03-26 13:52:48.824,-0.6092675918065832
2025-03-26 13:52:48.824,1.9025002705148115
2025-03-26 13:52:48.824,3.887296873285074
2025-03-26 13:52:48.824,2.2831273891169994
2025-03-26 13:52:48.833,-3.0543602408928066
2025-03-26 13:52:48.833,-7.046425870726587
2025-03-26 13:52:48.833,-4.159451646202767
2025-03-26 13:52:48.833,3.961439779541047
2025-03-26 13:52:48.833,8.79454055962569
2025-03-26 13:52:48.842,4.726965385125942
2025-03-26 13:52:48.842,-3.8012891055238125
2025-03-26 13:52:48.842,-7.5545245727551995
2025-03-26 13:52:48.843,-3.5702052867142697
2025-03-26 13:52:48.852,2.2293627155727656
2025-03-26 13:52:48.852,3.528513401548278
2025-03-26 13:52:48.852,1.1914682454975696
2025-03-26 13:52:48.852,0.20291922768551585
2025-03-26 13:52:48.852,1.6038795791462894
2025-03-26 13:52:48.861,1.4596008266044889
2025-03-26 13:52:48.861,-2.240076742396384
2025-03-26 13:52:48.861,-5.5634408109067035
2025-03-26 13:52:48.861,-3.598221635199597
2025-03-26 13:52:48.870,2.693603378822091
2025-03-26 13:52:48.870,7.061906027557611
2025-03-26 13:52:48.870,4.949933072741901
2025-03-26 13:52:48.870,-1.7031111818972826
2025-03-26 13:52:48.871,-6.6554640477822264
2025-03-26 13:52:48.880,-5.46393192788667
2025-03-26 13:52:48.880,0.553120484092231
2025-03-26 13:52:48.880,5.707804648776962
2025-03-26 13:52:48.881,5.248535197422068
2025-03-26 13:52:48.881,-0.1125842149296662
2025-03-26 13:52:48.889,-4.889042184583308
2025-03-26 13:52:48.889,-4.499685743135337
2025-03-26 13:52:48.889,-0.010208670903861128
2025-03-26 13:52:48.889,3.6069997974398316
2025-03-26 13:52:48.898,3.398554783519047
2025-03-26 13:52:48.898,0.8956845197976611
2025-03-26 13:52:48.899,-1.1923531373220853
2025-03-26 13:52:48.899,-2.229767282211857
2025-03-26 13:52:48.899,-2.5819830894109
2025-03-26 13:52:48.908,-1.6316364278348423
2025-03-26 13:52:48.909,1.022948564552526
2025-03-26 13:52:48.909,3.553308036290053
2025-03-26 13:52:48.909,3.3156329561104307
2025-03-26 13:52:48.909,0.272844317839367
2025-03-26 13:52:48.923,-2.614353474174831
2025-03-26 13:52:48.923,-2.8816195050143083
2025-03-26 13:52:48.923,-1.2163372615520933
2025-03-26 13:52:48.923,0.1730339849664484
2025-03-26 13:52:48.923,0.694400108938076
2025-03-26 13:52:48.928,1.346619419861315
2025-03-26 13:52:48.928,2.160207531830677
2025-03-26 13:52:48.928,1.726138416090038
2025-03-26 13:52:48.928,-0.39265936945323265
2025-03-26 13:52:48.928,-2.5698968088032967
2025-03-26 13:52:48.938,-3.1096368976517055
2025-03-26 13:52:48.938,-1.879974880311324
2025-03-26 13:52:48.938,0.5049205860775853
2025-03-26 13:52:48.938,3.322756147524278
2025-03-26 13:52:48.938,4.789684761531764
2025-03-26 13:52:48.946,2.621857394873379
2025-03-26 13:52:48.946,-2.6760535867746102
2025-03-26 13:52:48.946,-6.5590933883383205
2025-03-26 13:52:48.947,-4.757619776485262
2025-03-26 13:52:48.956,1.4443832275922046
2025-03-26 13:52:48.956,6.039940439787444
2025-03-26 13:52:48.956,4.778973503749312
2025-03-26 13:52:48.956,-0.31709688809384606
2025-03-26 13:52:48.956,-3.6295398170245106
2025-03-26 13:52:48.964,-2.515078152964796
2025-03-26 13:52:48.964,0.10769159113974802
2025-03-26 13:52:48.964,0.2641707392658736
2025-03-26 13:52:48.965,-1.4409656453782935
2025-03-26 13:52:48.974,-0.880108761334114
2025-03-26 13:52:48.974,3.027370123602356
2025-03-26 13:52:48.974,5.602685333882628
2025-03-26 13:52:48.974,2.1724846922205256
2025-03-26 13:52:48.974,-4.978450941150123
2025-03-26 13:52:48.983,-8.204007048000886
2025-03-26 13:52:48.983,-3.420647722646091
2025-03-26 13:52:48.983,4.729440142869641
2025-03-26 13:52:48.983,8.070681091313729
2025-03-26 13:52:48.983,3.9953401546129728
2025-03-26 13:52:48.992,-2.4845572127829234
2025-03-26 13:52:48.993,-5.265345867628033
2025-03-26 13:52:48.993,-3.4634480996407686
2025-03-26 13:52:48.993,-0.5066710676882359
2025-03-26 13:52:49.002,1.0724475374053146
2025-03-26 13:52:49.002,1.7960843159611162
2025-03-26 13:52:49.002,2.6397166004651775
2025-03-26 13:52:49.002,2.6749570804496194
2025-03-26 13:52:49.002,0.6014371787623525
2025-03-26 13:52:49.011,-2.6336377119917884
2025-03-26 13:52:49.011,-4.400049797124897
2025-03-26 13:52:49.011,-3.2139808998569612
2025-03-26 13:52:49.011,0.13640377086497585
2025-03-26 13:52:49.020,3.747180751321236
2025-03-26 13:52:49.020,5.5476686168633425
2025-03-26 13:52:49.020,3.723417180668789
2025-03-26 13:52:49.020,-1.6592377028226282
2025-03-26 13:52:49.020,-6.976487310016458
2025-03-26 13:52:49.028,-7.044225458058909
2025-03-26 13:52:49.029,-0.5753601314801571
2025-03-26 13:52:49.029,7.076707040613876
2025-03-26 13:52:49.029,8.51600652805881
2025-03-26 13:52:49.038,2.100659617634248
2025-03-26 13:52:49.038,-5.96272713817321
2025-03-26 13:52:49.039,-7.984753822728911
2025-03-26 13:52:49.039,-2.6397880143776473
2025-03-26 13:52:49.039,4.1944524257290405
2025-03-26 13:52:49.048,6.024545184674327
2025-03-26 13:52:49.048,2.2158833595457237
2025-03-26 13:52:49.048,-2.3750910398217036
2025-03-26 13:52:49.048,-3.3284650608466193
2025-03-26 13:52:49.048,-1.0262653047511028
2025-03-26 13:52:49.058,0.9658621128171376
2025-03-26 13:52:49.058,0.6206410054013844
2025-03-26 13:52:49.058,-0.6033955357917394
2025-03-26 13:52:49.058,-0.34890968801993183
2025-03-26 13:52:49.058,1.3256539809590002
2025-03-26 13:52:49.066,2.1390080778928366
2025-03-26 13:52:49.066,0.6984386724406667
2025-03-26 13:52:49.066,-1.7703185004884947
2025-03-26 13:52:49.066,-3.022567556506505
2025-03-26 13:52:49.076,-2.035878872938126
2025-03-26 13:52:49.076,0.6430877567535438
2025-03-26 13:52:49.076,3.422438460092806
2025-03-26 13:52:49.076,3.9976086881224258
2025-03-26 13:52:49.076,0.9319898199235348
2025-03-26 13:52:49.084,-3.8130040068487587
2025-03-26 13:52:49.084,-5.520641679252999
2025-03-26 13:52:49.084,-1.8218746603765226
2025-03-26 13:52:49.085,3.7839523978940535
2025-03-26 13:52:49.094,5.549074996110034
2025-03-26 13:52:49.095,2.1328370796867424
2025-03-26 13:52:49.095,-2.3975609659928283
2025-03-26 13:52:49.095,-3.963582594783397
2025-03-26 13:52:49.095,-2.520666333666487
2025-03-26 13:52:49.104,-0.3098336115690321
2025-03-26 13:52:49.104,1.4894491560006644
2025-03-26 13:52:49.104,2.8306783053278073
2025-03-26 13:52:49.104,3.03811815241219
2025-03-26 13:52:49.104,1.0623599262589114
2025-03-26 13:52:49.113,-2.4327939889978536
2025-03-26 13:52:49.113,-4.585054983797137
2025-03-26 13:52:49.113,-2.9287017503579973
2025-03-26 13:52:49.113,1.5561809226780814
2025-03-26 13:52:49.122,4.7591636930072445
2025-03-26 13:52:49.122,3.476636552554022
2025-03-26 13:52:49.122,-1.0413920583682443
2025-03-26 13:52:49.122,-4.201902777996784
2025-03-26 13:52:49.122,-2.8434284665859426
2025-03-26 13:52:49.132,1.4354111435622496
2025-03-26 13:52:49.132,3.903009920356331
2025-03-26 13:52:49.132,1.6801897338481622
2025-03-26 13:52:49.132,-2.9476185132790835
2025-03-26 13:52:49.132,-4.601682130587471
2025-03-26 13:52:49.141,-0.6451398030453424
2025-03-26 13:52:49.141,5.306325939061538
2025-03-26 13:52:49.141,6.55999204915904
2025-03-26 13:52:49.141,0.5456933045695376
2025-03-26 13:52:49.150,-7.545808039633934
2025-03-26 13:52:49.150,-9.296939804613219
2025-03-26 13:52:49.150,-1.8580461962693355
2025-03-26 13:52:49.150,8.274639769756647
2025-03-26 13:52:49.150,11.31279060478656
2025-03-26 13:52:49.159,4.17194594385794
2025-03-26 13:52:49.159,-6.427440153599719
2025-03-26 13:52:49.159,-11.059364553907711
2025-03-26 13:52:49.159,-6.647628389737875
2025-03-26 13:52:49.169,2.1013685117189307
2025-03-26 13:52:49.169,8.46252853002355
2025-03-26 13:52:49.169,8.789825744639412
2025-03-26 13:52:49.169,3.1833905787961885
2025-03-26 13:52:49.169,-5.16260584569951
2025-03-26 13:52:49.178,-10.365976412173133
2025-03-26 13:52:49.178,-7.204715816940242
2025-03-26 13:52:49.178,2.9026592823222344
2025-03-26 13:52:49.179,10.917469996948894
2025-03-26 13:52:49.179,8.57210304111186
2025-03-26 13:52:49.187,-2.0862965366944826
2025-03-26 13:52:49.187,-10.075529096089422
2025-03-26 13:52:49.187,-7.380310793990036
2025-03-26 13:52:49.187,2.2903044401546815
2025-03-26 13:52:49.197,8.125038204729469
2025-03-26 13:52:49.197,4.517841207669528
2025-03-26 13:52:49.197,-3.2796397919372415
2025-03-26 13:52:49.197,-6.009074606864017
2025-03-26 13:52:49.197,-1.1111157891645351
2025-03-26 13:52:49.205,4.945782250807275
2025-03-26 13:52:49.205,4.697460405003617
2025-03-26 13:52:49.205,-1.6138547706587405
2025-03-26 13:52:49.205,-6.595635038708685
2025-03-26 13:52:49.205,-4.446674403765991
2025-03-26 13:52:49.215,2.564657070643825
2025-03-26 13:52:49.215,7.078893574370432
2025-03-26 13:52:49.215,4.8300957510875895
2025-03-26 13:52:49.215,-1.4944692159274824
2025-03-26 13:52:49.224,-5.937503989526736
2025-03-26 13:52:49.224,-5.172392962759798
2025-03-26 13:52:49.224,-0.5790666424266196
2025-03-26 13:52:49.225,3.9419981113975213
2025-03-26 13:52:49.225,5.100344729885849
2025-03-26 13:52:49.234,2.158925393527142
2025-03-26 13:52:49.234,-2.5005498155628767
2025-03-26 13:52:49.234,-4.761372997916073
2025-03-26 13:52:49.234,-2.351635568597355
2025-03-26 13:52:49.234,2.3470164637294184
2025-03-26 13:52:49.243,4.3121198965177125
2025-03-26 13:52:49.243,1.4791502148703908
2025-03-26 13:52:49.243,-2.7622663580015576
2025-03-26 13:52:49.243,-3.6796294962708354
2025-03-26 13:52:49.252,-0.7747681729642475
2025-03-26 13:52:49.253,2.3228015274550136
2025-03-26 13:52:49.253,2.8461149607394822
2025-03-26 13:52:49.253,1.454469839212607
2025-03-26 13:52:49.253,-0.31521592134703746
2025-03-26 13:52:49.266,-2.250516045010412
2025-03-26 13:52:49.266,-3.687573413378173
2025-03-26 13:52:49.266,-2.3529577190559756
2025-03-26 13:52:49.266,2.240842102063627
2025-03-26 13:52:49.267,6.009609645457677
2025-03-26 13:52:49.271,4.217591793358824
2025-03-26 13:52:49.271,-2.1665080105813703
2025-03-26 13:52:49.271,-6.7611908355331085
2025-03-26 13:52:49.271,-4.88020669694437
2025-03-26 13:52:49.280,1.4157636849556665
2025-03-26 13:52:49.280,5.895103315706734
2025-03-26 13:52:49.280,4.620210851817207
2025-03-26 13:52:49.281,-0.6084759140151792
2025-03-26 13:52:49.281,-4.506558923121002
2025-03-26 13:52:49.289,-3.5829602473661244
2025-03-26 13:52:49.289,0.5912832203380199
2025-03-26 13:52:49.289,3.339705333614299
2025-03-26 13:52:49.289,2.0579122374520433
2025-03-26 13:52:49.289,-1.1652393283485476
2025-03-26 13:52:49.299,-2.4143906043675516
2025-03-26 13:52:49.299,-0.6003681527547509
2025-03-26 13:52:49.299,1.68720920836836
2025-03-26 13:52:49.299,1.6363967314594654
2025-03-26 13:52:49.299,-0.5369874232634657
2025-03-26 13:52:49.308,-2.118875388701248
2025-03-26 13:52:49.308,-1.1171257947973257
2025-03-26 13:52:49.309,1.526804455886888
2025-03-26 13:52:49.309,2.8843300789831052
2025-03-26 13:52:49.318,1.0604312082881955
2025-03-26 13:52:49.318,-2.582844050648573
2025-03-26 13:52:49.319,-4.268106548184728
2025-03-26 13:52:49.319,-1.5007079514382746
2025-03-26 13:52:49.319,3.6894713870471914
2025-03-26 13:52:49.327,5.965721831920765
2025-03-26 13:52:49.327,2.1768528180035287
2025-03-26 13:52:49.327,-4.549281587726171
2025-03-26 13:52:49.327,-7.309784757714206
2025-03-26 13:52:49.336,-2.631779251466349
2025-03-26 13:52:49.336,5.203177693080056
2025-03-26 13:52:49.336,7.950815791172307
2025-03-26 13:52:49.336,2.2024659658799015
2025-03-26 13:52:49.336,-6.1508931281550945
2025-03-26 13:52:49.345,-7.793317521849283
2025-03-26 13:52:49.345,-0.6377284893952329
2025-03-26 13:52:49.345,7.270654684930363
2025-03-26 13:52:49.345,6.895494923262998
2025-03-26 13:52:49.355,-1.2149035327970386
2025-03-26 13:52:49.355,-7.742899999681356
2025-03-26 13:52:49.355,-5.616898643528305
2025-03-26 13:52:49.355,2.212567845660486
2025-03-26 13:52:49.355,6.9626791602597455
2025-03-26 13:52:49.363,4.224758881246754
2025-03-26 13:52:49.363,-1.9660478803013495
2025-03-26 13:52:49.363,-4.846003233842176
2025-03-26 13:52:49.363,-2.5945122456440055
2025-03-26 13:52:49.372,0.8659582949160185
2025-03-26 13:52:49.372,1.674916672766478
2025-03-26 13:52:49.373,0.5494351378405147
2025-03-26 13:52:49.373,0.5804391465811778
2025-03-26 13:52:49.373,1.9750928491148052
2025-03-26 13:52:49.382,1.5331793746543436
2025-03-26 13:52:49.382,-2.100671848713617
2025-03-26 13:52:49.382,-5.142576216275834
2025-03-26 13:52:49.382,-2.9582514586086677
2025-03-26 13:52:49.382,3.286717767936893
2025-03-26 13:52:49.391,6.943163965001074
2025-03-26 13:52:49.391,3.541170239402162
2025-03-26 13:52:49.391,-3.6526698934780644
2025-03-26 13:52:49.391,-7.16104210535443
2025-03-26 13:52:49.391,-3.609291258142956
2025-03-26 13:52:49.401,2.9847886138352617
2025-03-26 13:52:49.401,6.1196280432263
2025-03-26 13:52:49.401,3.515110059680428
2025-03-26 13:52:49.401,-1.55635588519932
2025-03-26 13:52:49.410,-4.354726686215261
2025-03-26 13:52:49.410,-3.093351523277819
2025-03-26 13:52:49.410,0.16122257010514726
2025-03-26 13:52:49.410,2.1505842467803746
2025-03-26 13:52:49.410,1.7882514904893831
2025-03-26 13:52:49.419,0.7100717660930641
2025-03-26 13:52:49.419,0.47877819893281365
2025-03-26 13:52:49.419,0.31993027905477567
2025-03-26 13:52:49.419,-1.2139220973778455
2025-03-26 13:52:49.428,-3.1255700873545296
2025-03-26 13:52:49.429,-2.5278104205784913
2025-03-26 13:52:49.429,1.2870990313526471
2025-03-26 13:52:49.429,4.963461435543842
2025-03-26 13:52:49.429,4.423327890476164
2025-03-26 13:52:49.438,-0.4908893184693429
2025-03-26 13:52:49.439,-5.499269084729413
2025-03-26 13:52:49.439,-5.885554572344231
2025-03-26 13:52:49.439,-0.956278233002084
2025-03-26 13:52:49.439,5.027651921574848
2025-03-26 13:52:49.448,6.494322808472071
2025-03-26 13:52:49.448,1.9475060753583513
2025-03-26 13:52:49.448,-4.197497583620082
2025-03-26 13:52:49.448,-5.897537123635891
2025-03-26 13:52:49.449,-1.7565310214690633
2025-03-26 13:52:49.457,3.5825867176697024
2025-03-26 13:52:49.457,4.531822425107464
2025-03-26 13:52:49.457,0.5489753430622777
2025-03-26 13:52:49.457,-3.507214401051332
2025-03-26 13:52:49.465,-3.019713696110933
2025-03-26 13:52:49.465,1.1242563348837358
2025-03-26 13:52:49.465,3.7641770862745427
2025-03-26 13:52:49.465,1.6896551160287645
2025-03-26 13:52:49.465,-2.639960718391188
2025-03-26 13:52:49.474,-4.120468728342042
2025-03-26 13:52:49.475,-0.8824643507434863
2025-03-26 13:52:49.475,3.688309756266314
2025-03-26 13:52:49.475,4.654447538127906
2025-03-26 13:52:49.484,0.7674693891367623
2025-03-26 13:52:49.484,-4.15639553900845
2025-03-26 13:52:49.484,-5.112421120978324
2025-03-26 13:52:49.484,-1.1139939262498495
2025-03-26 13:52:49.484,3.769017784966955
2025-03-26 13:52:49.494,4.801675284241134
2025-03-26 13:52:49.494,1.5388683662125027
2025-03-26 13:52:49.494,-2.3178379602707984
2025-03-26 13:52:49.494,-3.5042211097984213
2025-03-26 13:52:49.494,-2.108777200764299
2025-03-26 13:52:49.503,0.11790651093930539
2025-03-26 13:52:49.503,2.155233354322873
2025-03-26 13:52:49.503,3.198696095787849
2025-03-26 13:52:49.503,1.8164899040085065
2025-03-26 13:52:49.512,-1.9526442523745156
2025-03-26 13:52:49.512,-4.638145609210403
2025-03-26 13:52:49.512,-2.4482313272935965
2025-03-26 13:52:49.512,3.1652756673001154
2025-03-26 13:52:49.513,5.778775371761106
2025-03-26 13:52:49.521,1.6475828084905662
2025-03-26 13:52:49.521,-4.8401661259828
2025-03-26 13:52:49.521,-6.058328662707222
2025-03-26 13:52:49.521,-0.601846876539081
2025-03-26 13:52:49.531,5.229774879396918
2025-03-26 13:52:49.531,5.49816135578381
2025-03-26 13:52:49.531,1.0174281375183616
2025-03-26 13:52:49.531,-3.3540014810189693
2025-03-26 13:52:49.531,-4.754634031184384
2025-03-26 13:52:49.540,-3.405447585271399
2025-03-26 13:52:49.540,-0.014453001648653388
2025-03-26 13:52:49.541,4.375788559378049
2025-03-26 13:52:49.541,6.569700325684041
2025-03-26 13:52:49.541,3.1478494284352565
2025-03-26 13:52:49.549,-4.2692438328104325
2025-03-26 13:52:49.549,-8.543740018816397
2025-03-26 13:52:49.549,-4.583942397975282
2025-03-26 13:52:49.549,3.8826221743898723
2025-03-26 13:52:49.558,7.989036454384166
2025-03-26 13:52:49.558,4.014047374340954
2025-03-26 13:52:49.558,-2.777613069674557
2025-03-26 13:52:49.559,-5.243854033879426
2025-03-26 13:52:49.559,-2.501540775474849
2025-03-26 13:52:49.568,0.9808678488356959
2025-03-26 13:52:49.568,2.108331677425575
2025-03-26 13:52:49.568,1.665087821213128
2025-03-26 13:52:49.568,0.9344917661898965
2025-03-26 13:52:49.568,-0.40987491305036056
2025-03-26 13:52:49.578,-2.106202076631411
2025-03-26 13:52:49.578,-2.0701161335389724
2025-03-26 13:52:49.578,0.5463825672357218
2025-03-26 13:52:49.578,2.8988832116749315
2025-03-26 13:52:49.578,1.653446609769248
2025-03-26 13:52:49.587,-1.9065737242521639
2025-03-26 13:52:49.587,-2.7836808144170084
2025-03-26 13:52:49.587,0.8008779825709101
2025-03-26 13:52:49.587,3.986331601246391
2025-03-26 13:52:49.597,1.419706647987955
2025-03-26 13:52:49.597,-4.6404453856964345
2025-03-26 13:52:49.597,-6.17779628220497
2025-03-26 13:52:49.597,0.11916182696599364
2025-03-26 13:52:49.597,7.756325318548847
2025-03-26 13:52:49.606,7.861539197728584
2025-03-26 13:52:49.606,-0.3276729011624176
2025-03-26 13:52:49.606,-8.647442867998299
2025-03-26 13:52:49.607,-8.902554556211623
2025-03-26 13:52:49.607,-0.9940892289514532
2025-03-26 13:52:49.615,7.542743020161326
2025-03-26 13:52:49.615,9.041198153594147
2025-03-26 13:52:49.615,2.7417184816709117
2025-03-26 13:52:49.615,-5.053854491420066
2025-03-26 13:52:49.624,-7.540863508771144
2025-03-26 13:52:49.624,-3.789427924349282
2025-03-26 13:52:49.624,1.6091771566568034
2025-03-26 13:52:49.624,4.240777883261562
2025-03-26 13:52:49.624,3.6469322999186486
2025-03-26 13:52:49.634,1.7138948269175724
2025-03-26 13:52:49.634,-0.3876898348190597
2025-03-26 13:52:49.634,-2.371760567687421
2025-03-26 13:52:49.634,-3.387737515319224
2025-03-26 13:52:49.635,-2.335455377621594
2025-03-26 13:52:49.643,0.40287517564608083
2025-03-26 13:52:49.643,2.8151543348013726
2025-03-26 13:52:49.643,3.2364977954529395
2025-03-26 13:52:49.643,1.7451888867990606
2025-03-26 13:52:49.643,-0.6106942172538463
2025-03-26 13:52:49.652,-2.8758948563127333
2025-03-26 13:52:49.653,-3.831177919995775
2025-03-26 13:52:49.653,-2.0227569806862467
2025-03-26 13:52:49.653,2.1562802858761514
2025-03-26 13:52:49.661,5.279552574887593
2025-03-26 13:52:49.661,3.9231210606332416
2025-03-26 13:52:49.661,-1.0941091397906195
2025-03-26 13:52:49.661,-5.150030296793154
2025-03-26 13:52:49.661,-4.710174057166266
2025-03-26 13:52:49.671,-0.6300273740109406
2025-03-26 13:52:49.671,3.3965067162665
2025-03-26 13:52:49.671,4.473520991972787
2025-03-26 13:52:49.671,2.3950820354260083
2025-03-26 13:52:49.680,-0.9425166007123853
2025-03-26 13:52:49.680,-3.2254224351425815
2025-03-26 13:52:49.680,-3.1946810203163496
2025-03-26 13:52:49.680,-1.2068219869578451
2025-03-26 13:52:49.680,1.2650965760177306
2025-03-26 13:52:49.689,2.688690011149732
2025-03-26 13:52:49.689,2.3488447474469405
2025-03-26 13:52:49.689,0.6711583299448945
2025-03-26 13:52:49.689,-1.1270880237729703
2025-03-26 13:52:49.699,-2.010515568146002
2025-03-26 13:52:49.699,-1.9030100835243382
2025-03-26 13:52:49.699,-1.2185865744245818
2025-03-26 13:52:49.699,0.12755359493889346
2025-03-26 13:52:49.699,2.2467751861106753
2025-03-26 13:52:49.708,3.7864664170052142
2025-03-26 13:52:49.708,2.4972291702427336
2025-03-26 13:52:49.709,-1.7098645978494356
2025-03-26 13:52:49.709,-5.389361393960676
2025-03-26 13:52:49.709,-4.685396337449311
2025-03-26 13:52:49.717,0.3266601067681773
2025-03-26 13:52:49.717,5.292865598936696
2025-03-26 13:52:49.717,5.728378486734114
2025-03-26 13:52:49.717,1.2995842681270977
2025-03-26 13:52:49.726,-3.929131576187838
2025-03-26 13:52:49.726,-5.385542037154607
2025-03-26 13:52:49.726,-2.230766142344091
2025-03-26 13:52:49.726,2.1596570200073804
2025-03-26 13:52:49.726,3.81290248927848
2025-03-26 13:52:49.736,1.973780713094173
2025-03-26 13:52:49.736,-0.7811815221178818
2025-03-26 13:52:49.736,-1.742198782909669
2025-03-26 13:52:49.736,-0.7084773524747642
2025-03-26 13:52:49.736,0.5237692881471595
2025-03-26 13:52:49.744,0.49541610076348874
2025-03-26 13:52:49.745,-0.6340258473016958
2025-03-26 13:52:49.745,-1.6514117290483545
2025-03-26 13:52:49.745,-1.3718310759847634
2025-03-26 13:52:49.754,0.6315651586756783
2025-03-26 13:52:49.754,3.3826774725394557
2025-03-26 13:52:49.754,4.403399568511386
2025-03-26 13:52:49.755,1.5230513694948777
2025-03-26 13:52:49.755,-4.133235218659026
2025-03-26 13:52:49.763,-7.74392145921816
2025-03-26 13:52:49.763,-5.045011569032387
2025-03-26 13:52:49.763,2.679810296831935
2025-03-26 13:52:49.763,8.929449486455908
2025-03-26 13:52:49.773,8.018742933615762
2025-03-26 13:52:49.773,0.5980093463363619
2025-03-26 13:52:49.773,-6.996727348235425
2025-03-26 13:52:49.773,-8.666749756564542
2025-03-26 13:52:49.773,-3.7761166822302163
2025-03-26 13:52:49.782,3.0516934037128447
2025-03-26 13:52:49.783,6.576636750419216
2025-03-26 13:52:49.783,5.063270750562602
2025-03-26 13:52:49.783,0.6184790307454606
2025-03-26 13:52:49.783,-3.228194152996663
2025-03-26 13:52:49.793,-4.092308023434497
2025-03-26 13:52:49.793,-2.0421192201272214
2025-03-26 13:52:49.793,0.7749393938924958
2025-03-26 13:52:49.793,2.005742584344604
2025-03-26 13:52:49.801,1.1007996718546578
2025-03-26 13:52:49.801,-0.3539845232670372
2025-03-26 13:52:49.801,-0.4195007542985313
2025-03-26 13:52:49.801,0.9022169639230064
2025-03-26 13:52:49.801,1.4482742485348121
2025-03-26 13:52:49.809,-0.3284847382216169
2025-03-26 13:52:49.809,-2.6833740778345616
2025-03-26 13:52:49.809,-2.2912041265721586
2025-03-26 13:52:49.809,0.9973932937526728
2025-03-26 13:52:49.809,3.2128108832432827
2025-03-26 13:52:49.819,1.482594006156905
2025-03-26 13:52:49.819,-1.7419057189803406
2025-03-26 13:52:49.819,-2.041739069614506
2025-03-26 13:52:49.819,0.6110882284978253
2025-03-26 13:52:49.828,1.9567328670814814
2025-03-26 13:52:49.829,-0.0793556600499277
2025-03-26 13:52:49.829,-2.2959817985063813
2025-03-26 13:52:49.829,-1.1229313516221264
2025-03-26 13:52:49.829,1.9147793302821288
2025-03-26 13:52:49.838,2.3023484657807023
2025-03-26 13:52:49.838,-0.8771485655083565
2025-03-26 13:52:49.838,-3.2894353397047476
2025-03-26 13:52:49.838,-1.0672559077076085
2025-03-26 13:52:49.839,3.6650946930184287
2025-03-26 13:52:49.847,4.922152509638624
2025-03-26 13:52:49.847,0.2798002049220515
2025-03-26 13:52:49.847,-5.778574118744766
2025-03-26 13:52:49.847,-6.856832454490851
2025-03-26 13:52:49.856,-1.62748471427603
2025-03-26 13:52:49.856,5.321557547472231
2025-03-26 13:52:49.857,8.376728196642613
2025-03-26 13:52:49.857,5.249241762229364
2025-03-26 13:52:49.857,-2.1709696483407894
2025-03-26 13:52:49.865,-8.892820137769395
2025-03-26 13:52:49.865,-9.253497851491998
2025-03-26 13:52:49.865,-1.5037475089662269
2025-03-26 13:52:49.865,8.562120065647465
2025-03-26 13:52:49.876,11.214268421422311
2025-03-26 13:52:49.876,3.038470022167654
2025-03-26 13:52:49.876,-7.756653553287443
2025-03-26 13:52:49.876,-9.810590447551448
2025-03-26 13:52:49.876,-1.935797590401642
2025-03-26 13:52:49.877,5.986550107532064
2025-03-26 13:52:49.885,5.824136580262628
2025-03-26 13:52:49.885,0.3240569952336053
2025-03-26 13:52:49.885,-2.740224303770497
2025-03-26 13:52:49.885,-1.3781903317037612
2025-03-26 13:52:49.894,-0.013622552033041524
2025-03-26 13:52:49.894,-1.2422645073124234
2025-03-26 13:52:49.894,-2.08814969140658
2025-03-26 13:52:49.894,0.5043162004356616
2025-03-26 13:52:49.895,4.299743723945027
2025-03-26 13:52:49.903,4.509874693667971
2025-03-26 13:52:49.903,0.061844080840128435
2025-03-26 13:52:49.903,-5.200215822126407
2025-03-26 13:52:49.903,-6.670006829907965
2025-03-26 13:52:49.912,-2.7822853480878003
2025-03-26 13:52:49.912,4.103956927718411
2025-03-26 13:52:49.912,8.832451797897905
2025-03-26 13:52:49.912,6.70422486413327
2025-03-26 13:52:49.913,-1.818278958585099
2025-03-26 13:52:49.921,-9.788819556672747
2025-03-26 13:52:49.921,-9.583162234351855
2025-03-26 13:52:49.921,-0.9515610477759775
2025-03-26 13:52:49.921,8.166440352530064
2025-03-26 13:52:49.921,9.719725315677996
2025-03-26 13:52:49.931,3.362975716198555
2025-03-26 13:52:49.931,-4.372161109738739
2025-03-26 13:52:49.931,-7.261160639467246
2025-03-26 13:52:49.931,-4.49219415104325
2025-03-26 13:52:49.940,0.3693695246383244
2025-03-26 13:52:49.940,3.607823686829331
2025-03-26 13:52:49.940,4.027383512532657
2025-03-26 13:52:49.940,2.414715009208838
2025-03-26 13:52:49.941,-0.17297341060372096
2025-03-26 13:52:49.949,-2.7374904738666204
2025-03-26 13:52:49.949,-3.733784107263249
2025-03-26 13:52:49.949,-1.920267920092959
2025-03-26 13:52:49.949,1.6323534903968493
2025-03-26 13:52:49.958,3.716916224383319
2025-03-26 13:52:49.958,2.279518426141828
2025-03-26 13:52:49.958,-1.0632673281270841
2025-03-26 13:52:49.959,-2.7902867936441096
2025-03-26 13:52:49.959,-1.4993425147499595
2025-03-26 13:52:49.968,0.818124497560708
2025-03-26 13:52:49.968,1.5709197630137213
2025-03-26 13:52:49.968,0.5474879380162901
2025-03-26 13:52:49.968,-0.5022807607850418
2025-03-26 13:52:49.977,-0.4366830530327165
2025-03-26 13:52:49.977,0.13337608209300644
2025-03-26 13:52:49.977,0.0841403819282248
2025-03-26 13:52:49.977,-0.6317428990585527
2025-03-26 13:52:49.977,-0.9231686916035603
2025-03-26 13:52:49.985,0.059326778496973646
2025-03-26 13:52:49.985,1.6642318363012332
2025-03-26 13:52:49.985,2.1278615071688862
2025-03-26 13:52:49.985,0.44172426385094343
2025-03-26 13:52:49.995,-2.2482749998420024
2025-03-26 13:52:49.995,-3.3780867615968737
2025-03-26 13:52:49.995,-1.4303043071659012
2025-03-26 13:52:49.995,2.1426187898036844
2025-03-26 13:52:49.995,3.8713409948434654
2025-03-26 13:52:50.003,1.8632912305607006
2025-03-26 13:52:50.003,-1.7421628277413324
2025-03-26 13:52:50.003,-2.957971751028859
2025-03-26 13:52:50.003,-0.7449157469470932
2025-03-26 13:52:50.013,1.6458657360018092
2025-03-26 13:52:50.013,0.9158388335033182
2025-03-26 13:52:50.013,-1.7822202078772782
2025-03-26 13:52:50.013,-2.1901810300691165
2025-03-26 13:52:50.013,1.2593083170049764
2025-03-26 13:52:50.021,4.695546787412797
2025-03-26 13:52:50.021,3.1721464367622705
2025-03-26 13:52:50.021,-2.8110760897722087
2025-03-26 13:52:50.021,-6.916201214335337
2025-03-26 13:52:50.031,-3.995274828398369
2025-03-26 13:52:50.031,3.4876932633639917
2025-03-26 13:52:50.031,7.689377440449185
2025-03-26 13:52:50.031,4.160763530936768
2025-03-26 13:52:50.031,-3.1698606559222644
2025-03-26 13:52:50.041,-6.712502948328629
2025-03-26 13:52:50.041,-3.660142878862972
2025-03-26 13:52:50.041,1.8815693424994662
2025-03-26 13:52:50.041,4.494098095580992
2025-03-26 13:52:50.041,2.9628512278047308
2025-03-26 13:52:50.049,-0.16571887771769975
2025-03-26 13:52:50.049,-2.317209123268416
2025-03-26 13:52:50.049,-2.574842950212588
2025-03-26 13:52:50.049,-1.0198183312672418
2025-03-26 13:52:50.049,1.3768158715586658
2025-03-26 13:52:50.059,2.5214322452371705
2025-03-26 13:52:50.059,0.98661575031497
2025-03-26 13:52:50.059,-1.6916781262599143
2025-03-26 13:52:50.059,-2.365940088277226
2025-03-26 13:52:50.068,-0.3260835909497099
2025-03-26 13:52:50.068,1.8591296873471912
2025-03-26 13:52:50.069,2.012510465011845
2025-03-26 13:52:50.069,0.7665201228450644
2025-03-26 13:52:50.069,-0.49596988173501344
2025-03-26 13:52:50.078,-1.808396849970413
2025-03-26 13:52:50.078,-3.0776771282276374
2025-03-26 13:52:50.078,-2.329681818511714
2025-03-26 13:52:50.078,1.775199144482489
2025-03-26 13:52:50.079,6.201902289498161
2025-03-26 13:52:50.087,5.369066621006502
2025-03-26 13:52:50.087,-1.8103729508735786
2025-03-26 13:52:50.087,-8.655897293247293
2025-03-26 13:52:50.087,-7.213734565000099
2025-03-26 13:52:50.096,2.014777613523244
2025-03-26 13:52:50.096,9.45877963129521
2025-03-26 13:52:50.096,7.067234500280161
2025-03-26 13:52:50.097,-2.2554325009037233
2025-03-26 13:52:50.097,-8.15622041965729
2025-03-26 13:52:50.105,-5.039598037412874
2025-03-26 13:52:50.105,2.1651867057542225
2025-03-26 13:52:50.105,5.12231779100716
2025-03-26 13:52:50.105,2.0779014533768723
2025-03-26 13:52:50.114,-1.6560712252631218
2025-03-26 13:52:50.114,-1.6168736391962526
2025-03-26 13:52:50.114,0.6804789651424061
2025-03-26 13:52:50.114,1.0731385777420404
2025-03-26 13:52:50.115,-1.2201964853784204
2025-03-26 13:52:50.123,-2.8291357253600684
2025-03-26 13:52:50.123,-0.9075089032242727
2025-03-26 13:52:50.123,3.064340502247938
2025-03-26 13:52:50.123,4.7174375895877265
2025-03-26 13:52:50.133,1.5314968561916555
2025-03-26 13:52:50.133,-4.115404301825768
2025-03-26 13:52:50.133,-6.634047590794005
2025-03-26 13:52:50.133,-2.6413301757859338
2025-03-26 13:52:50.133,4.735352237999946
2025-03-26 13:52:50.141,8.01623979392474
2025-03-26 13:52:50.141,3.2555441702891557
2025-03-26 13:52:50.141,-4.909264551001639
2025-03-26 13:52:50.141,-7.922593382104494
2025-03-26 13:52:50.151,-2.898918639160045
2025-03-26 13:52:50.151,4.339357409466077
2025-03-26 13:52:50.151,6.259004635645183
2025-03-26 13:52:50.151,1.8617123608459045
2025-03-26 13:52:50.151,-3.290241367907247
2025-03-26 13:52:50.161,-4.0285760374592705
2025-03-26 13:52:50.161,-0.6429310741080634
2025-03-26 13:52:50.161,2.748243556585197
2025-03-26 13:52:50.161,2.8941979655837353
2025-03-26 13:52:50.161,-0.13312087202920408
2025-03-26 13:52:50.169,-3.546121064123441
2025-03-26 13:52:50.169,-3.914542116206829
2025-03-26 13:52:50.169,-0.03909990769907612
2025-03-26 13:52:50.169,4.997363319626701
2025-03-26 13:52:50.178,5.945982911545487
2025-03-26 13:52:50.179,1.1550588712566325
2025-03-26 13:52:50.179,-4.841884583828249
2025-03-26 13:52:50.179,-6.286139095935111
2025-03-26 13:52:50.179,-2.7353926662075985
2025-03-26 13:52:50.188,1.5035332263022718
2025-03-26 13:52:50.188,3.4717848187133096
2025-03-26 13:52:50.189,3.948953674559721
2025-03-26 13:52:50.189,3.746143684140005
2025-03-26 13:52:50.189,1.3372278153005723
2025-03-26 13:52:50.199,-3.7505633727919596
2025-03-26 13:52:50.199,-7.67616847300641
2025-03-26 13:52:50.199,-5.6568393030408135
2025-03-26 13:52:50.199,1.6830574258577846
2025-03-26 13:52:50.199,7.894632989137275
2025-03-26 13:52:50.207,7.471685796260657
2025-03-26 13:52:50.207,1.4794713077702328
2025-03-26 13:52:50.207,-4.455082809297607
2025-03-26 13:52:50.207,-6.26498254887736
2025-03-26 13:52:50.207,-4.115615426918843
2025-03-26 13:52:50.217,-0.30097417913634783
2025-03-26 13:52:50.217,3.1037634011734445
2025-03-26 13:52:50.217,4.5648789098551
2025-03-26 13:52:50.217,3.3164217729295076
2025-03-26 13:52:50.225,0.25592921708245026
2025-03-26 13:52:50.225,-2.4269647974998088
2025-03-26 13:52:50.225,-3.2114466712544503
2025-03-26 13:52:50.225,-2.3162681322345042
2025-03-26 13:52:50.235,-0.6975611044183205
2025-03-26 13:52:50.235,1.109152236872267
2025-03-26 13:52:50.235,2.6372990600163604
2025-03-26 13:52:50.235,2.803095620140258
2025-03-26 13:52:50.235,0.7748503812978615
2025-03-26 13:52:50.247,-2.2751704809361426
2025-03-26 13:52:50.247,-3.340870025820952
2025-03-26 13:52:50.247,-0.7482984815178416
2025-03-26 13:52:50.247,2.928398840458885
2025-03-26 13:52:50.247,2.861051150254307
2025-03-26 13:52:50.253,-1.81300286011197
2025-03-26 13:52:50.253,-5.3304980539749955
2025-03-26 13:52:50.253,-1.7715752236492495
2025-03-26 13:52:50.253,6.118850761852561
2025-03-26 13:52:50.262,8.480151700286811
2025-03-26 13:52:50.262,0.5559254894142225
2025-03-26 13:52:50.262,-9.864294907436186
2025-03-26 13:52:50.262,-10.70783719458628
2025-03-26 13:52:50.263,-0.07533835613036888
2025-03-26 13:52:50.272,11.041875130273446
2025-03-26 13:52:50.272,11.022165644189306
2025-03-26 13:52:50.272,0.2383273991246746
2025-03-26 13:52:50.273,-9.916651268828364
2025-03-26 13:52:50.273,-9.48946011708189
2025-03-26 13:52:50.281,0.09184033086917043
2025-03-26 13:52:50.281,8.458060853528503
2025-03-26 13:52:50.281,7.39123758960561
2025-03-26 13:52:50.281,-1.2485825409899578
2025-03-26 13:52:50.281,-8.155986714108474
2025-03-26 13:52:50.291,-6.2963481465580555
2025-03-26 13:52:50.291,2.2260878308525314
2025-03-26 13:52:50.291,8.667793699271172
2025-03-26 13:52:50.291,6.563178693070941
2025-03-26 13:52:50.301,-2.011164262700329
2025-03-26 13:52:50.301,-8.759572464133962
2025-03-26 13:52:50.301,-7.346805769508212
2025-03-26 13:52:50.301,0.6684597237234673
2025-03-26 13:52:50.301,7.67641134848164
2025-03-26 13:52:50.309,7.525249960682176
2025-03-26 13:52:50.309,1.115662141654454
2025-03-26 13:52:50.309,-5.261295815627081
2025-03-26 13:52:50.309,-6.428762351728959
2025-03-26 13:52:50.318,-2.637760308491969
2025-03-26 13:52:50.318,1.9832874543484773
2025-03-26 13:52:50.319,3.9977083666236815
2025-03-26 13:52:50.319,3.1707779563065746
2025-03-26 13:52:50.319,1.193100757335771
2025-03-26 13:52:50.327,-0.7607025949434897
2025-03-26 13:52:50.327,-2.460752825854917
2025-03-26 13:52:50.327,-3.3085980822569203
2025-03-26 13:52:50.327,-2.150951027030031
2025-03-26 13:52:50.337,0.9582103978427817
2025-03-26 13:52:50.337,3.7681475880297226
2025-03-26 13:52:50.337,3.7193912832438887
2025-03-26 13:52:50.337,0.7294823956897227
2025-03-26 13:52:50.337,-2.638932942072001
2025-03-26 13:52:50.345,-3.8171381969102347
2025-03-26 13:52:50.345,-2.354743997739952
2025-03-26 13:52:50.345,0.5478845670918253
2025-03-26 13:52:50.345,3.318531199697156
2025-03-26 13:52:50.345,4.144593461127276
2025-03-26 13:52:50.356,1.4938371825297891
2025-03-26 13:52:50.356,-3.4837849144110797
2025-03-26 13:52:50.357,-6.070321638684146
2025-03-26 13:52:50.357,-2.439538380647308
2025-03-26 13:52:50.357,4.624152078782127
2025-03-26 13:52:50.365,7.3685241830483434
2025-03-26 13:52:50.365,2.0626456585522455
2025-03-26 13:52:50.365,-5.770544903399313
2025-03-26 13:52:50.365,-7.4112285052615
2025-03-26 13:52:50.375,-1.1420898121283403
2025-03-26 13:52:50.375,6.014580822170046
2025-03-26 13:52:50.375,6.605297268570411
2025-03-26 13:52:50.375,0.6557906215520393
2025-03-26 13:52:50.375,-5.36066917754767
2025-03-26 13:52:50.383,-5.855323218506557
2025-03-26 13:52:50.383,-1.1202330055362462
2025-03-26 13:52:50.383,4.175759512525313
2025-03-26 13:52:50.383,5.686694075443946
2025-03-26 13:52:50.393,2.394775619572138
2025-03-26 13:52:50.393,-3.1410897756221323
2025-03-26 13:52:50.393,-6.266762274640642
2025-03-26 13:52:50.393,-3.5634438152874863
2025-03-26 13:52:50.393,3.201191593198817
2025-03-26 13:52:50.401,7.320886982341481
2025-03-26 13:52:50.401,3.7918575830900494
2025-03-26 13:52:50.401,-4.274842550599849
2025-03-26 13:52:50.401,-8.146865469612894
2025-03-26 13:52:50.411,-3.2359751482563346
2025-03-26 13:52:50.411,5.27721809731596
2025-03-26 13:52:50.411,8.088839920673271
2025-03-26 13:52:50.411,2.32763506440757
2025-03-26 13:52:50.411,-5.3889862968211775
2025-03-26 13:52:50.421,-6.849845595734519
2025-03-26 13:52:50.421,-1.3807085424991021
2025-03-26 13:52:50.421,4.444285210532887
2025-03-26 13:52:50.421,4.936678533291467
2025-03-26 13:52:50.421,0.7889342830992567
2025-03-26 13:52:50.430,-3.2340649390145204
2025-03-26 13:52:50.430,-3.59188247739788
2025-03-26 13:52:50.431,-0.40151652268993976
2025-03-26 13:52:50.431,3.302911008824602
2025-03-26 13:52:50.431,3.755463552770621
2025-03-26 13:52:50.439,-0.30341235128078314
2025-03-26 13:52:50.439,-5.2748766499439315
2025-03-26 13:52:50.439,-5.247577818220536
2025-03-26 13:52:50.439,1.140820924145131
2025-03-26 13:52:50.439,7.591156049884216
2025-03-26 13:52:50.448,6.6007131229234535
2025-03-26 13:52:50.449,-1.225271093318499
2025-03-26 13:52:50.449,-7.3992432131592505
2025-03-26 13:52:50.449,-5.892454614688883
2025-03-26 13:52:50.458,-0.0107902987394764
2025-03-26 13:52:50.458,3.220471700757149
2025-03-26 13:52:50.458,2.5069281432646973
2025-03-26 13:52:50.458,2.0281144712291908
2025-03-26 13:52:50.459,3.163578250272218
2025-03-26 13:52:50.467,1.9593318386715874
2025-03-26 13:52:50.467,-3.5174606510734474
2025-03-26 13:52:50.467,-7.9404561738700705
2025-03-26 13:52:50.467,-4.925434859341677
2025-03-26 13:52:50.476,3.576641183424317
2025-03-26 13:52:50.476,8.54241676912969
2025-03-26 13:52:50.476,4.839529764739855
2025-03-26 13:52:50.477,-2.6117715652795948
2025-03-26 13:52:50.477,-5.389351115008311
2025-03-26 13:52:50.485,-1.8646891135337826
2025-03-26 13:52:50.485,1.9358904988432053
2025-03-26 13:52:50.485,0.9904760945948021
2025-03-26 13:52:50.485,-2.4817877551369234
2025-03-26 13:52:50.494,-2.7067150100724016
2025-03-26 13:52:50.494,1.8027682143674189
2025-03-26 13:52:50.494,6.225613197771627
2025-03-26 13:52:50.495,5.009522341581141
2025-03-26 13:52:50.495,-1.7523468764018406
2025-03-26 13:52:50.503,-7.922842637114868
2025-03-26 13:52:50.503,-7.269762880473781
2025-03-26 13:52:50.503,0.04771120377909771
2025-03-26 13:52:50.503,7.164764833904595
2025-03-26 13:52:50.513,7.320190869265674
2025-03-26 13:52:50.513,0.9824596827036007
2025-03-26 13:52:50.513,-4.758446063005809
2025-03-26 13:52:50.513,-4.316094616551998
2025-03-26 13:52:50.513,0.17073107880665328
2025-03-26 13:52:50.523,2.191907863620738
2025-03-26 13:52:50.523,-0.48028306346883276
2025-03-26 13:52:50.523,-3.1249218169465123
2025-03-26 13:52:50.523,-0.8157220593412071
2025-03-26 13:52:50.523,4.526663676062396
2025-03-26 13:52:50.531,6.179948736306203
2025-03-26 13:52:50.531,1.1303538380917544
2025-03-26 13:52:50.531,-5.853517514890084
2025-03-26 13:52:50.531,-7.604237839731709
2025-03-26 13:52:50.531,-2.5360567953107553
2025-03-26 13:52:50.541,4.227509448529569
2025-03-26 13:52:50.541,6.834538834249977
2025-03-26 13:52:50.541,4.030458927522706
2025-03-26 13:52:50.541,-1.1086046039313884
2025-03-26 13:52:50.549,-4.681371174400375
2025-03-26 13:52:50.549,-4.681151784072988
2025-03-26 13:52:50.549,-1.7089776783675958
2025-03-26 13:52:50.549,1.9939670394348659
2025-03-26 13:52:50.549,4.271584140915386
2025-03-26 13:52:50.559,3.916442864707542
2025-03-26 13:52:50.559,0.6377159566810195
2025-03-26 13:52:50.559,-4.072304540479655
2025-03-26 13:52:50.559,-6.178012614318546
2025-03-26 13:52:50.568,-2.2219837534344746
2025-03-26 13:52:50.568,5.267822878408589
2025-03-26 13:52:50.568,8.320561080566065
2025-03-26 13:52:50.568,2.388071619319786
2025-03-26 13:52:50.569,-6.932691086245618
2025-03-26 13:52:50.577,-9.38809623131018
2025-03-26 13:52:50.577,-2.0563341362137644
2025-03-26 13:52:50.577,7.137339253090474
2025-03-26 13:52:50.577,8.690605491708542
2025-03-26 13:52:50.577,1.9723790008747786
2025-03-26 13:52:50.586,-5.219958463967968
2025-03-26 13:52:50.587,-6.14731885188985
2025-03-26 13:52:50.587,-1.8059092369106242
2025-03-26 13:52:50.587,2.1088572175236724
2025-03-26 13:52:50.595,2.540277698691316
