timestamp,bandpass_and_notch
2025-03-26 13:55:03.076,-0.38540599871681624
2025-03-26 13:55:03.076,5.807586689727804
2025-03-26 13:55:03.076,5.862582260206529
2025-03-26 13:55:03.076,-4.32842799616276
2025-03-26 13:55:03.085,-16.746096912488817
2025-03-26 13:55:03.085,-12.142436788952482
2025-03-26 13:55:03.085,15.409304770168735
2025-03-26 13:55:03.086,40.10737838908085
2025-03-26 13:55:03.086,27.641947516263137
2025-03-26 13:55:03.094,-20.084238416330994
2025-03-26 13:55:03.094,-57.79418312340492
2025-03-26 13:55:03.094,-44.14175265427826
2025-03-26 13:55:03.094,10.666167646992227
2025-03-26 13:55:03.102,54.53706840782215
2025-03-26 13:55:03.102,48.86190577288701
2025-03-26 13:55:03.102,5.494150247023924
2025-03-26 13:55:03.102,-32.37661151617452
2025-03-26 13:55:03.111,-36.94426842247782
2025-03-26 13:55:03.112,-16.660410987499933
2025-03-26 13:55:03.112,3.870585679977003
2025-03-26 13:55:03.112,12.760751704812614
2025-03-26 13:55:03.112,15.138848026733312
2025-03-26 13:55:03.120,16.437910103353133
2025-03-26 13:55:03.120,12.25503386331702
2025-03-26 13:55:03.120,-2.4271632898269875
2025-03-26 13:55:03.120,-20.35693149480696
2025-03-26 13:55:03.129,-25.64306414741152
2025-03-26 13:55:03.129,-11.263937382871893
2025-03-26 13:55:03.129,11.282008376657753
2025-03-26 13:55:03.129,22.916589257221972
2025-03-26 13:55:03.137,16.09850496927835
2025-03-26 13:55:03.137,0.37343902121426276
2025-03-26 13:55:03.137,-10.038191958017139
2025-03-26 13:55:03.137,-10.280217429106141
2025-03-26 13:55:03.137,-5.577359249567848
2025-03-26 13:55:03.146,-1.9223272189233325
2025-03-26 13:55:03.146,0.05719728985036615
2025-03-26 13:55:03.146,2.69544698748203
2025-03-26 13:55:03.146,6.160295457524398
2025-03-26 13:55:03.155,7.35503081982033
2025-03-26 13:55:03.155,3.4046848597097914
2025-03-26 13:55:03.156,-4.293203933497498
2025-03-26 13:55:03.156,-9.817784854200559
2025-03-26 13:55:03.156,-7.619297404882294
2025-03-26 13:55:03.165,1.3471970283752244
2025-03-26 13:55:03.165,9.151856236153243
2025-03-26 13:55:03.165,8.307447544883331
2025-03-26 13:55:03.165,-0.0938457014450314
2025-03-26 13:55:03.165,-7.23814060328701
2025-03-26 13:55:03.175,-6.320777006548541
2025-03-26 13:55:03.175,0.18614961161084687
2025-03-26 13:55:03.175,4.435543000208794
2025-03-26 13:55:03.175,2.8705840399451095
2025-03-26 13:55:03.176,-0.6428550729380784
2025-03-26 13:55:03.185,-1.1289281170645937
2025-03-26 13:55:03.185,1.0311535786884838
2025-03-26 13:55:03.185,1.6208871429600842
2025-03-26 13:55:03.185,-1.063053924335355
2025-03-26 13:55:03.186,-3.875809450828228
2025-03-26 13:55:03.195,-3.0911898034029384
2025-03-26 13:55:03.195,0.8275529093701606
2025-03-26 13:55:03.196,3.987026588636735
2025-03-26 13:55:03.196,3.7477546170110223
2025-03-26 13:55:03.196,1.1396152381364453
2025-03-26 13:55:03.205,-1.2902951033407115
2025-03-26 13:55:03.205,-2.4330997303760333
2025-03-26 13:55:03.205,-2.6455495679931644
2025-03-26 13:55:03.205,-2.035748173930201
2025-03-26 13:55:03.205,-0.25838614774627794
2025-03-26 13:55:03.214,2.138921543926644
2025-03-26 13:55:03.214,3.4845161344221642
2025-03-26 13:55:03.214,2.5617672981864006
2025-03-26 13:55:03.214,-0.1342401725708196
2025-03-26 13:55:03.214,-2.773710333027069
2025-03-26 13:55:03.224,-3.4030454976475735
2025-03-26 13:55:03.224,-1.3066824018786634
2025-03-26 13:55:03.224,1.878514745763217
2025-03-26 13:55:03.224,2.9585440599809503
2025-03-26 13:55:03.235,0.551741873025585
2025-03-26 13:55:03.235,-2.5479430109631314
2025-03-26 13:55:03.235,-2.1334747412924897
2025-03-26 13:55:03.235,1.9057550262224492
2025-03-26 13:55:03.235,4.626807758743334
2025-03-26 13:55:03.235,1.874725335525602
2025-03-26 13:55:03.244,-4.064227788025086
2025-03-26 13:55:03.244,-6.570753738248954
2025-03-26 13:55:03.244,-2.431191231786025
2025-03-26 13:55:03.244,4.310154281397684
2025-03-26 13:55:03.253,6.994269320502736
2025-03-26 13:55:03.253,3.487807602496562
2025-03-26 13:55:03.254,-2.4328891646661135
2025-03-26 13:55:03.254,-5.7372801079231435
2025-03-26 13:55:03.254,-4.568938143963832
2025-03-26 13:55:03.262,-0.5236475370348304
2025-03-26 13:55:03.262,3.49810511814267
2025-03-26 13:55:03.262,5.021379954442666
2025-03-26 13:55:03.262,3.0384361960736794
2025-03-26 13:55:03.262,-1.1279315428296852
2025-03-26 13:55:03.273,-4.2680965953864085
2025-03-26 13:55:03.274,-3.8934913583228568
2025-03-26 13:55:03.274,-0.6977175244224741
2025-03-26 13:55:03.274,2.3131020217976146
2025-03-26 13:55:03.274,3.0709715525764385
2025-03-26 13:55:03.282,1.8827852095384219
2025-03-26 13:55:03.282,-0.07874183358321776
2025-03-26 13:55:03.282,-2.0074796591954067
2025-03-26 13:55:03.282,-2.8260766652433786
2025-03-26 13:55:03.282,-1.2632202820574108
2025-03-26 13:55:03.292,2.0553353206278904
2025-03-26 13:55:03.292,3.874518260263199
2025-03-26 13:55:03.292,1.5692272487951255
2025-03-26 13:55:03.292,-3.0754893970414416
2025-03-26 13:55:03.301,-5.0216375742903265
2025-03-26 13:55:03.302,-1.583835237007808
2025-03-26 13:55:03.302,4.042812106198732
2025-03-26 13:55:03.302,5.869361212663795
2025-03-26 13:55:03.302,1.6797801830993535
2025-03-26 13:55:03.311,-4.294494608568466
2025-03-26 13:55:03.312,-5.8299451106637425
2025-03-26 13:55:03.312,-1.4960965593085744
2025-03-26 13:55:03.312,3.8663739533128445
2025-03-26 13:55:03.312,4.644167203786184
2025-03-26 13:55:03.320,0.5977832124258525
2025-03-26 13:55:03.320,-3.259464583230926
2025-03-26 13:55:03.320,-2.6539432915939045
2025-03-26 13:55:03.320,1.0744288880030055
2025-03-26 13:55:03.320,2.8588467385948184
2025-03-26 13:55:03.331,0.3688208000273903
2025-03-26 13:55:03.331,-2.9311535955515446
2025-03-26 13:55:03.332,-2.3522610331698863
2025-03-26 13:55:03.332,1.6084020910011605
2025-03-26 13:55:03.332,3.833442692383261
2025-03-26 13:55:03.340,1.4710977175665585
2025-03-26 13:55:03.340,-2.455096270444006
2025-03-26 13:55:03.340,-3.3641628768625913
2025-03-26 13:55:03.340,-0.788675192414363
2025-03-26 13:55:03.351,1.9875934733020697
2025-03-26 13:55:03.351,2.4254345600944585
2025-03-26 13:55:03.351,0.8639724306643167
2025-03-26 13:55:03.351,-1.0517543845744401
2025-03-26 13:55:03.351,-2.0505395209305197
2025-03-26 13:55:03.351,-1.4164494249046145
2025-03-26 13:55:03.360,0.6760094267238859
2025-03-26 13:55:03.360,2.4633827232757506
2025-03-26 13:55:03.360,1.709033757587497
2025-03-26 13:55:03.360,-1.3986433929518107
2025-03-26 13:55:03.370,-3.4198571764897197
2025-03-26 13:55:03.370,-1.3175927651262627
2025-03-26 13:55:03.370,3.174080099294713
2025-03-26 13:55:03.370,4.657165402698492
2025-03-26 13:55:03.370,0.5426639451848324
2025-03-26 13:55:03.379,-5.061804178552882
2025-03-26 13:55:03.379,-5.783552606175008
2025-03-26 13:55:03.379,-0.5339942816318772
2025-03-26 13:55:03.379,5.437103993025778
2025-03-26 13:55:03.380,6.6530637934184504
2025-03-26 13:55:03.389,2.435240563836232
2025-03-26 13:55:03.389,-3.8119912448664115
2025-03-26 13:55:03.389,-7.633292388240956
2025-03-26 13:55:03.390,-5.718295359178011
2025-03-26 13:55:03.390,1.6343583267574608
2025-03-26 13:55:03.398,8.788397943865006
2025-03-26 13:55:03.398,8.404113498140005
2025-03-26 13:55:03.398,-0.45878399843493384
2025-03-26 13:55:03.398,-9.4125729409028
2025-03-26 13:55:03.407,-8.999449883580871
2025-03-26 13:55:03.408,0.3670713171303318
2025-03-26 13:55:03.408,8.564108652030711
2025-03-26 13:55:03.408,7.439964977862658
2025-03-26 13:55:03.408,-0.3950615303950281
2025-03-26 13:55:03.417,-5.976538375053153
2025-03-26 13:55:03.417,-4.743295114342466
2025-03-26 13:55:03.417,-0.09754562140140727
2025-03-26 13:55:03.417,2.5953881525273927
2025-03-26 13:55:03.418,2.1077722856638292
2025-03-26 13:55:03.427,0.6985364117487035
2025-03-26 13:55:03.427,0.03912657569479845
2025-03-26 13:55:03.428,-0.16173135421908305
2025-03-26 13:55:03.428,-0.5228003103786655
2025-03-26 13:55:03.428,-0.9285695266364886
2025-03-26 13:55:03.437,-1.0660013237543622
2025-03-26 13:55:03.437,-0.7553196395001232
2025-03-26 13:55:03.437,0.2733554830447217
2025-03-26 13:55:03.438,1.82455047288583
2025-03-26 13:55:03.438,2.476541670768673
2025-03-26 13:55:03.446,0.7754500858692551
2025-03-26 13:55:03.446,-2.3243526767043474
2025-03-26 13:55:03.446,-3.5797734743838294
2025-03-26 13:55:03.446,-1.1614366850991984
2025-03-26 13:55:03.446,2.590831650927655
2025-03-26 13:55:03.456,3.5473265578855413
2025-03-26 13:55:03.456,0.7243879700111717
2025-03-26 13:55:03.456,-2.5458336423146783
2025-03-26 13:55:03.456,-2.688392877117294
2025-03-26 13:55:03.465,0.034024855595243764
2025-03-26 13:55:03.466,2.244969556763778
2025-03-26 13:55:03.466,1.5851723497695618
2025-03-26 13:55:03.466,-0.793409479985367
2025-03-26 13:55:03.466,-1.9087960647839106
2025-03-26 13:55:03.476,-0.5288605167197993
2025-03-26 13:55:03.476,1.5209391969914328
2025-03-26 13:55:03.476,1.7070875194072466
2025-03-26 13:55:03.476,-0.1992026909497105
2025-03-26 13:55:03.476,-2.058718287083579
2025-03-26 13:55:03.485,-1.9037309177622228
2025-03-26 13:55:03.486,0.1917750046122269
2025-03-26 13:55:03.486,2.459363189733983
2025-03-26 13:55:03.486,2.856701008585593
2025-03-26 13:55:03.486,0.5105643108110022
2025-03-26 13:55:03.495,-3.1161382451228747
2025-03-26 13:55:03.496,-4.557891611902364
2025-03-26 13:55:03.496,-1.3780781833717206
2025-03-26 13:55:03.496,4.2660537227783895
2025-03-26 13:55:03.496,6.4310266013490605
2025-03-26 13:55:03.504,1.7077040437631383
2025-03-26 13:55:03.504,-5.64331192483412
2025-03-26 13:55:03.504,-7.380772414075514
2025-03-26 13:55:03.504,-1.0334938347737337
2025-03-26 13:55:03.513,6.366616854300293
2025-03-26 13:55:03.514,6.404379746139108
2025-03-26 13:55:03.514,-0.4543828632587727
2025-03-26 13:55:03.514,-5.704890473712789
2025-03-26 13:55:03.514,-3.587464727904665
2025-03-26 13:55:03.523,2.2555168749223298
2025-03-26 13:55:03.523,4.215831045302325
2025-03-26 13:55:03.523,0.3125539923479882
2025-03-26 13:55:03.524,-4.113396263051338
2025-03-26 13:55:03.524,-3.4468230565003397
2025-03-26 13:55:03.533,1.747372325237648
2025-03-26 13:55:03.533,5.780005328000276
2025-03-26 13:55:03.533,4.165527813801344
2025-03-26 13:55:03.533,-1.787803467221631
2025-03-26 13:55:03.533,-6.416014950619912
2025-03-26 13:55:03.542,-5.376627491709406
2025-03-26 13:55:03.542,0.17634109240813317
2025-03-26 13:55:03.542,5.045052124809016
2025-03-26 13:55:03.542,5.328903350897022
2025-03-26 13:55:03.552,1.8421417096031472
2025-03-26 13:55:03.552,-1.7536320132624545
2025-03-26 13:55:03.552,-3.1961688649970625
2025-03-26 13:55:03.552,-2.9690831746206303
2025-03-26 13:55:03.552,-2.0167625628629486
2025-03-26 13:55:03.561,-0.10860026488839276
2025-03-26 13:55:03.561,2.6678842778400593
2025-03-26 13:55:03.562,4.337471947156779
2025-03-26 13:55:03.562,2.7693162551773325
2025-03-26 13:55:03.562,-1.2753336121472783
2025-03-26 13:55:03.572,-4.267185011056581
2025-03-26 13:55:03.572,-3.541166599866575
2025-03-26 13:55:03.572,-0.12847426855815633
2025-03-26 13:55:03.572,2.501676778204693
2025-03-26 13:55:03.572,2.2269173732293304
2025-03-26 13:55:03.581,0.3119404859715243
2025-03-26 13:55:03.581,-0.45625292704045495
2025-03-26 13:55:03.581,0.6527718277409051
2025-03-26 13:55:03.581,1.2782979287802823
2025-03-26 13:55:03.582,-0.8810416277219036
2025-03-26 13:55:03.591,-4.246033829526305
2025-03-26 13:55:03.591,-4.195564652392306
2025-03-26 13:55:03.591,1.2155810515950232
2025-03-26 13:55:03.591,7.397529294164358
2025-03-26 13:55:03.591,7.202733760587939
2025-03-26 13:55:03.600,-0.6631427777158219
2025-03-26 13:55:03.600,-8.875184326535685
2025-03-26 13:55:03.600,-8.82168161424806
2025-03-26 13:55:03.600,-0.273759114760076
2025-03-26 13:55:03.610,8.049705255497765
2025-03-26 13:55:03.610,8.063818760764487
2025-03-26 13:55:03.610,0.8796241680445701
2025-03-26 13:55:03.610,-5.403161522806336
2025-03-26 13:55:03.610,-5.173725050626375
2025-03-26 13:55:03.620,-0.5655293199860749
2025-03-26 13:55:03.620,2.498036565890599
2025-03-26 13:55:03.620,1.406385020461423
2025-03-26 13:55:03.620,-1.0557549347289756
2025-03-26 13:55:03.620,-0.9172305397038297
2025-03-26 13:55:03.630,1.918210820459061
2025-03-26 13:55:03.630,3.548779170750384
2025-03-26 13:55:03.630,1.0320650159372253
2025-03-26 13:55:03.630,-3.5690357185259107
2025-03-26 13:55:03.630,-5.3280095451522005
2025-03-26 13:55:03.640,-2.2399055109707233
2025-03-26 13:55:03.640,2.6919242702457256
2025-03-26 13:55:03.640,5.186729978082989
2025-03-26 13:55:03.640,3.823027898392386
2025-03-26 13:55:03.640,0.1104834107255758
2025-03-26 13:55:03.650,-3.5928567277759376
2025-03-26 13:55:03.650,-5.08220950824141
2025-03-26 13:55:03.650,-2.933897429562526
2025-03-26 13:55:03.650,1.8480480456884578
2025-03-26 13:55:03.650,5.41042507927336
2025-03-26 13:55:03.659,4.243376797810727
2025-03-26 13:55:03.659,-0.8091592390662454
2025-03-26 13:55:03.659,-4.891224501618113
2025-03-26 13:55:03.659,-4.059848952672651
2025-03-26 13:55:03.659,0.6411901803588151
2025-03-26 13:55:03.669,4.370632953865241
2025-03-26 13:55:03.670,3.4718001427028313
2025-03-26 13:55:03.670,-0.9625785019644281
2025-03-26 13:55:03.670,-4.37592329794162
2025-03-26 13:55:03.670,-3.376209232880896
2025-03-26 13:55:03.679,1.011161967262526
2025-03-26 13:55:03.679,4.551610480364935
2025-03-26 13:55:03.679,3.9367285745659726
2025-03-26 13:55:03.679,-0.27973766212773904
2025-03-26 13:55:03.679,-4.373381887680739
2025-03-26 13:55:03.688,-4.753644912415301
2025-03-26 13:55:03.688,-1.0016960061157725
2025-03-26 13:55:03.688,3.725669329496817
2025-03-26 13:55:03.688,5.288431016988964
2025-03-26 13:55:03.697,2.1907373750851455
2025-03-26 13:55:03.697,-2.86964287443874
2025-03-26 13:55:03.698,-5.256018885206827
2025-03-26 13:55:03.698,-2.73957813964603
2025-03-26 13:55:03.698,2.2050977728189136
2025-03-26 13:55:03.707,4.7249810548879
2025-03-26 13:55:03.708,2.4644916437390094
2025-03-26 13:55:03.708,-2.020616299449083
2025-03-26 13:55:03.708,-4.007341297318632
2025-03-26 13:55:03.708,-1.6499368136345285
2025-03-26 13:55:03.717,2.2142850032918817
2025-03-26 13:55:03.718,3.412487836538108
2025-03-26 13:55:03.718,0.9605222482225766
2025-03-26 13:55:03.718,-2.266719040578208
2025-03-26 13:55:03.718,-2.9768505909963334
2025-03-26 13:55:03.727,-0.8228837854588228
2025-03-26 13:55:03.728,1.7465779286826417
2025-03-26 13:55:03.728,2.3717970739089274
2025-03-26 13:55:03.728,0.9666386615922407
2025-03-26 13:55:03.728,-0.8080103509537914
2025-03-26 13:55:03.737,-1.4964648567227772
2025-03-26 13:55:03.737,-0.8932224709655601
2025-03-26 13:55:03.737,0.26351498063756057
2025-03-26 13:55:03.738,0.9335317691222755
2025-03-26 13:55:03.738,0.41434560277601157
2025-03-26 13:55:03.747,-0.8664636618519423
2025-03-26 13:55:03.747,-1.2960912074269717
2025-03-26 13:55:03.747,0.2534056372081936
2025-03-26 13:55:03.748,2.4694696760944908
2025-03-26 13:55:03.748,2.424149897671184
2025-03-26 13:55:03.756,-0.7502596857148602
2025-03-26 13:55:03.756,-3.9390207123778316
2025-03-26 13:55:03.756,-3.3465290530097787
2025-03-26 13:55:03.756,0.6581800220166558
2025-03-26 13:55:03.766,3.818127725118761
2025-03-26 13:55:03.766,3.2333308368013745
2025-03-26 13:55:03.766,0.3855001145744567
2025-03-26 13:55:03.766,-1.6953459505966209
2025-03-26 13:55:03.766,-2.213662472694973
2025-03-26 13:55:03.776,-2.0603968032215314
2025-03-26 13:55:03.776,-1.162773052396758
2025-03-26 13:55:03.776,1.1324325054776663
2025-03-26 13:55:03.776,3.4469469090686284
2025-03-26 13:55:03.776,2.8637026040156766
2025-03-26 13:55:03.786,-0.9187924941185192
2025-03-26 13:55:03.786,-3.9476710384267206
2025-03-26 13:55:03.786,-2.477177534491225
2025-03-26 13:55:03.786,1.9010410149452446
2025-03-26 13:55:03.786,3.7976889899110207
2025-03-26 13:55:03.796,0.7652959050993586
2025-03-26 13:55:03.796,-3.4976535623806493
2025-03-26 13:55:03.796,-3.687636093244967
2025-03-26 13:55:03.796,0.6239862173632438
2025-03-26 13:55:03.796,4.5722808192095385
2025-03-26 13:55:03.806,3.815542488226189
2025-03-26 13:55:03.806,-0.6320557961674393
2025-03-26 13:55:03.806,-4.01134466005158
2025-03-26 13:55:03.807,-3.407469693901931
2025-03-26 13:55:03.807,-0.4822201770592882
2025-03-26 13:55:03.815,1.448913541295967
2025-03-26 13:55:03.816,1.5912945683564743
2025-03-26 13:55:03.816,1.5576091667199696
2025-03-26 13:55:03.816,1.9139936315061086
2025-03-26 13:55:03.816,1.1565429730795551
2025-03-26 13:55:03.824,-1.3498627526878049
2025-03-26 13:55:03.824,-3.5586600780333604
2025-03-26 13:55:03.824,-3.229310195207291
2025-03-26 13:55:03.824,-0.7470617115121059
2025-03-26 13:55:03.834,1.8828101149419831
2025-03-26 13:55:03.834,3.5044361392536114
2025-03-26 13:55:03.834,3.7989308326654534
2025-03-26 13:55:03.834,2.085467379520333
2025-03-26 13:55:03.834,-1.7887695158327312
2025-03-26 13:55:03.843,-5.6300534571030285
2025-03-26 13:55:03.843,-5.86804602045666
2025-03-26 13:55:03.843,-1.2657128313258221
2025-03-26 13:55:03.844,4.918474885253218
2025-03-26 13:55:03.844,7.388474182520511
2025-03-26 13:55:03.853,3.886014318437309
2025-03-26 13:55:03.853,-2.364876460833586
2025-03-26 13:55:03.853,-5.8081955835393435
2025-03-26 13:55:03.854,-4.176139019689551
2025-03-26 13:55:03.854,-0.2661230948454384
2025-03-26 13:55:03.862,1.9928579510528193
2025-03-26 13:55:03.862,1.9136451079254913
2025-03-26 13:55:03.862,1.4915225401534207
2025-03-26 13:55:03.862,1.7137783937495765
2025-03-26 13:55:03.862,1.3867199804719594
2025-03-26 13:55:03.873,-0.5185562531357598
2025-03-26 13:55:03.874,-3.052227012183342
2025-03-26 13:55:03.874,-4.184878678311751
2025-03-26 13:55:03.874,-2.5403438258292983
2025-03-26 13:55:03.874,1.6111308616125817
2025-03-26 13:55:03.882,5.831649229752506
2025-03-26 13:55:03.882,6.284270904255321
2025-03-26 13:55:03.882,1.1036542286623088
2025-03-26 13:55:03.882,-6.2186585007405375
2025-03-26 13:55:03.892,-8.715678918697446
2025-03-26 13:55:03.892,-3.108119286536975
2025-03-26 13:55:03.892,5.624635275086185
2025-03-26 13:55:03.892,8.796837887561916
2025-03-26 13:55:03.892,3.3739604564258485
2025-03-26 13:55:03.901,-4.704870975651388
2025-03-26 13:55:03.901,-7.165803032570906
2025-03-26 13:55:03.901,-2.2266414166084676
2025-03-26 13:55:03.902,4.153156164904083
2025-03-26 13:55:03.902,5.2339272588323515
2025-03-26 13:55:03.912,0.5678294493414547
2025-03-26 13:55:03.912,-4.169808054609149
2025-03-26 13:55:03.912,-3.7912570284799947
2025-03-26 13:55:03.912,0.8385556375720282
2025-03-26 13:55:03.912,4.263402825629735
2025-03-26 13:55:03.921,2.8562173876489574
2025-03-26 13:55:03.921,-1.3945004133225638
2025-03-26 13:55:03.922,-3.76060709226283
2025-03-26 13:55:03.922,-2.24860032753129
2025-03-26 13:55:03.922,0.8503186225116247
2025-03-26 13:55:03.932,2.3273829216477835
2025-03-26 13:55:03.932,1.5843719187731382
2025-03-26 13:55:03.932,0.36339464541415734
2025-03-26 13:55:03.932,-0.09886755196944645
2025-03-26 13:55:03.932,-0.4361623125103219
2025-03-26 13:55:03.940,-1.4601512099028722
2025-03-26 13:55:03.940,-2.1857049317205437
2025-03-26 13:55:03.940,-0.8767223332576706
2025-03-26 13:55:03.940,1.9899172697273566
2025-03-26 13:55:03.940,3.38162920900553
2025-03-26 13:55:03.952,1.3493731539264295
2025-03-26 13:55:03.952,-2.037086539822019
2025-03-26 13:55:03.952,-2.9230012321952223
2025-03-26 13:55:03.952,-0.49808317468218155
2025-03-26 13:55:03.952,1.9920554770199703
2025-03-26 13:55:03.960,1.4260812060331993
2025-03-26 13:55:03.960,-1.2489918633133155
2025-03-26 13:55:03.960,-2.261668431421801
2025-03-26 13:55:03.960,0.1519112642427187
2025-03-26 13:55:03.971,3.275992526756777
2025-03-26 13:55:03.972,2.9839933855803027
2025-03-26 13:55:03.972,-1.1633124765227085
2025-03-26 13:55:03.972,-5.002321567286701
2025-03-26 13:55:03.972,-4.247061220631124
2025-03-26 13:55:03.972,0.9107450189212327
2025-03-26 13:55:03.980,5.973021181691752
2025-03-26 13:55:03.980,6.227684996487457
2025-03-26 13:55:03.980,0.7894979628388565
2025-03-26 13:55:03.980,-6.194725024495463
2025-03-26 13:55:03.989,-8.344190810325983
2025-03-26 13:55:03.990,-2.841230320607999
2025-03-26 13:55:03.990,5.780776452051159
2025-03-26 13:55:03.990,9.205633420739973
2025-03-26 13:55:03.990,3.931716143157124
2025-03-26 13:55:03.999,-4.694318506145827
2025-03-26 13:55:03.999,-8.17930603786121
2025-03-26 13:55:03.999,-3.8119187604299447
2025-03-26 13:55:03.999,3.254402238077303
2025-03-26 13:55:04.008,6.13228322382058
2025-03-26 13:55:04.008,2.965409973309716
2025-03-26 13:55:04.008,-2.2795193954797948
2025-03-26 13:55:04.008,-4.386557145802449
2025-03-26 13:55:04.008,-1.7535797539704117
2025-03-26 13:55:04.018,2.514306746250202
2025-03-26 13:55:04.018,3.7603971204676863
2025-03-26 13:55:04.018,0.3971858201017904
2025-03-26 13:55:04.018,-4.1495440737236615
2025-03-26 13:55:04.018,-4.521566264145669
2025-03-26 13:55:04.027,0.7332747811339877
2025-03-26 13:55:04.028,6.597804863395669
2025-03-26 13:55:04.028,6.218900252956396
2025-03-26 13:55:04.028,-1.2158914334059177
2025-03-26 13:55:04.028,-8.463285381358595
2025-03-26 13:55:04.038,-7.60748547577953
2025-03-26 13:55:04.038,0.9326923397171323
2025-03-26 13:55:04.038,8.437269422854358
2025-03-26 13:55:04.038,7.372533992085587
2025-03-26 13:55:04.038,-0.48176000034699534
2025-03-26 13:55:04.047,-6.499685449053972
2025-03-26 13:55:04.047,-5.054995692782277
2025-03-26 13:55:04.047,0.8105934505596106
2025-03-26 13:55:04.047,3.93159702951864
2025-03-26 13:55:04.048,1.5623306093214144
2025-03-26 13:55:04.058,-2.250411617313323
2025-03-26 13:55:04.058,-2.3193311153180303
2025-03-26 13:55:04.058,1.470881570058191
2025-03-26 13:55:04.058,4.351255750173587
2025-03-26 13:55:04.058,2.3331167249254885
2025-03-26 13:55:04.066,-3.1209724252264284
2025-03-26 13:55:04.066,-6.31570431098376
2025-03-26 13:55:04.066,-3.290869672720676
2025-03-26 13:55:04.066,3.532244983699637
2025-03-26 13:55:04.075,7.327159164998885
2025-03-26 13:55:04.075,4.0402888025361605
2025-03-26 13:55:04.076,-2.9947259091742806
2025-03-26 13:55:04.076,-6.678360280499737
2025-03-26 13:55:04.076,-4.012041304806083
2025-03-26 13:55:04.084,1.2603266032028717
2025-03-26 13:55:04.084,3.988526094776402
2025-03-26 13:55:04.084,3.34391306826255
2025-03-26 13:55:04.084,1.7846058044094313
2025-03-26 13:55:04.084,0.3004346680776485
2025-03-26 13:55:04.095,-2.253581800666892
2025-03-26 13:55:04.095,-5.207557577941724
2025-03-26 13:55:04.096,-4.799444808392191
2025-03-26 13:55:04.096,0.9072907028566976
2025-03-26 13:55:04.096,7.481674757448402
2025-03-26 13:55:04.104,7.712477332316389
2025-03-26 13:55:04.104,0.281798379833768
2025-03-26 13:55:04.104,-7.608662764183987
2025-03-26 13:55:04.104,-7.942573908816386
2025-03-26 13:55:04.113,-0.8655902378955178
2025-03-26 13:55:04.113,5.887473301575789
2025-03-26 13:55:04.114,5.8930147400530295
2025-03-26 13:55:04.114,0.4668151871776258
2025-03-26 13:55:04.114,-3.8908446194134454
2025-03-26 13:55:04.122,-2.8905505512287775
2025-03-26 13:55:04.122,1.4243019992595407
2025-03-26 13:55:04.122,3.3567811613701797
2025-03-26 13:55:04.122,0.0328685600246503
2025-03-26 13:55:04.122,-4.8545095863622425
2025-03-26 13:55:04.132,-4.689753011154089
2025-03-26 13:55:04.132,1.9736710727400983
2025-03-26 13:55:04.132,8.37328780424603
2025-03-26 13:55:04.132,6.657935991128917
2025-03-26 13:55:04.141,-2.452475934245015
2025-03-26 13:55:04.141,-9.671765377090564
2025-03-26 13:55:04.142,-7.535232011042902
2025-03-26 13:55:04.142,1.327459812125485
2025-03-26 13:55:04.142,7.7656898495903945
2025-03-26 13:55:04.152,6.391976157259468
2025-03-26 13:55:04.152,0.2222037231533241
2025-03-26 13:55:04.152,-4.17897261992815
2025-03-26 13:55:04.152,-3.701375828497557
2025-03-26 13:55:04.152,-0.4223067688260202
2025-03-26 13:55:04.161,1.6997185468693805
2025-03-26 13:55:04.162,0.7882735397515902
2025-03-26 13:55:04.162,-1.4305750218225892
2025-03-26 13:55:04.162,-1.5961138391106733
2025-03-26 13:55:04.162,1.2219231315972672
2025-03-26 13:55:04.173,3.8233828108529315
2025-03-26 13:55:04.173,2.540931691552186
2025-03-26 13:55:04.173,-1.7888570257038907
2025-03-26 13:55:04.174,-4.447762914592547
2025-03-26 13:55:04.174,-2.6692989522917694
2025-03-26 13:55:04.181,1.1156186353821134
2025-03-26 13:55:04.182,2.763341680396314
2025-03-26 13:55:04.182,1.5017765421252558
2025-03-26 13:55:04.182,-0.044328862297859206
2025-03-26 13:55:04.182,-0.04739332613973677
2025-03-26 13:55:04.192,0.3323911265421945
2025-03-26 13:55:04.192,-0.6230991427441712
2025-03-26 13:55:04.192,-2.19359251701591
2025-03-26 13:55:04.192,-2.069472875856995
2025-03-26 13:55:04.192,0.3607260778150614
2025-03-26 13:55:04.201,2.974601782712426
2025-03-26 13:55:04.202,3.2983742882709515
2025-03-26 13:55:04.202,0.9936179833639895
2025-03-26 13:55:04.202,-2.1481877626149073
2025-03-26 13:55:04.202,-3.818468358988655
2025-03-26 13:55:04.211,-2.689513306993793
2025-03-26 13:55:04.211,0.5950977180424599
2025-03-26 13:55:04.212,3.420426579739555
2025-03-26 13:55:04.212,3.2247746033995113
2025-03-26 13:55:04.212,0.34650542401074325
2025-03-26 13:55:04.220,-2.021091205261839
2025-03-26 13:55:04.220,-1.650333571763098
2025-03-26 13:55:04.220,-0.061492740733886525
2025-03-26 13:55:04.220,-0.07772052562378799
2025-03-26 13:55:04.230,-1.4469549958820098
2025-03-26 13:55:04.230,-1.0744632275934862
2025-03-26 13:55:04.230,2.1194385876473953
2025-03-26 13:55:04.230,4.662965828513357
2025-03-26 13:55:04.230,2.473067510553926
2025-03-26 13:55:04.239,-3.3965413526273607
2025-03-26 13:55:04.240,-6.872733991649658
2025-03-26 13:55:04.240,-3.555305157106397
2025-03-26 13:55:04.240,3.7232952162615844
2025-03-26 13:55:04.240,7.460048922638976
2025-03-26 13:55:04.249,3.7053961286634496
2025-03-26 13:55:04.250,-3.4501979902700852
2025-03-26 13:55:04.250,-6.438240014896666
2025-03-26 13:55:04.250,-2.62002172224274
2025-03-26 13:55:04.250,3.1629377584135394
2025-03-26 13:55:04.259,4.5562947031999315
2025-03-26 13:55:04.259,0.7688442286505641
2025-03-26 13:55:04.260,-3.3160317712818954
2025-03-26 13:55:04.260,-3.1348782770566856
2025-03-26 13:55:04.260,0.850765858289483
2025-03-26 13:55:04.269,4.175918517115734
2025-03-26 13:55:04.270,3.0642166444112826
2025-03-26 13:55:04.270,-1.7722862662367524
2025-03-26 13:55:04.270,-5.46711643551373
2025-03-26 13:55:04.270,-3.7105171486058053
2025-03-26 13:55:04.279,2.2380840712489887
2025-03-26 13:55:04.279,6.173881132477371
2025-03-26 13:55:04.280,3.703241954640972
2025-03-26 13:55:04.280,-2.437487080660073
2025-03-26 13:55:04.280,-5.4402016409498
2025-03-26 13:55:04.290,-2.475654867771449
2025-03-26 13:55:04.290,2.3109568652696426
2025-03-26 13:55:04.290,3.399199383244591
2025-03-26 13:55:04.290,0.5251614573635501
2025-03-26 13:55:04.290,-1.9203543111202321
2025-03-26 13:55:04.299,-1.0126470607294185
2025-03-26 13:55:04.299,1.3795641609442657
2025-03-26 13:55:04.299,1.630703408610425
2025-03-26 13:55:04.299,-0.8758791033510243
2025-03-26 13:55:04.299,-3.031695763464735
2025-03-26 13:55:04.309,-1.7022228014782683
2025-03-26 13:55:04.310,2.3812822948518777
2025-03-26 13:55:04.310,4.75054593803309
2025-03-26 13:55:04.310,1.8726481618174475
2025-03-26 13:55:04.310,-4.087092885145055
2025-03-26 13:55:04.319,-6.501604020603222
2025-03-26 13:55:04.319,-1.7068225552228713
2025-03-26 13:55:04.319,5.738496840252162
2025-03-26 13:55:04.319,7.499789774145813
2025-03-26 13:55:04.319,1.2830720820356383
2025-03-26 13:55:04.328,-6.165511927844393
2025-03-26 13:55:04.328,-6.981061202443962
2025-03-26 13:55:04.328,-1.1121191144290903
2025-03-26 13:55:04.328,4.60202231720936
2025-03-26 13:55:04.338,4.975364025214819
2025-03-26 13:55:04.338,1.4157484028488607
2025-03-26 13:55:04.338,-1.60071581158807
2025-03-26 13:55:04.338,-2.16858611881406
2025-03-26 13:55:04.338,-1.6153709080644956
2025-03-26 13:55:04.347,-1.3009857068808213
2025-03-26 13:55:04.348,-0.840530830057971
2025-03-26 13:55:04.348,0.6755888023328785
2025-03-26 13:55:04.348,2.8554947640606927
2025-03-26 13:55:04.348,3.734854473819396
2025-03-26 13:55:04.356,1.511989283552241
2025-03-26 13:55:04.356,-2.9399974649006024
2025-03-26 13:55:04.356,-5.750722198252677
2025-03-26 13:55:04.356,-3.615992877019088
2025-03-26 13:55:04.356,2.0787617129424847
2025-03-26 13:55:04.366,5.955480997847756
2025-03-26 13:55:04.366,4.21084183230125
2025-03-26 13:55:04.366,-1.1464189482943654
2025-03-26 13:55:04.366,-4.440419979162887
2025-03-26 13:55:04.376,-2.6653730422493838
2025-03-26 13:55:04.376,1.2020278626399623
2025-03-26 13:55:04.376,2.073418542975756
2025-03-26 13:55:04.376,-0.6682316769587308
2025-03-26 13:55:04.376,-2.421245923609278
2025-03-26 13:55:04.385,0.16207549691896725
2025-03-26 13:55:04.386,4.1569219355426394
2025-03-26 13:55:04.386,3.954447218142397
2025-03-26 13:55:04.386,-1.229134577114543
2025-03-26 13:55:04.386,-5.973562184124831
2025-03-26 13:55:04.395,-5.011661363522252
2025-03-26 13:55:04.396,0.8350504881885821
2025-03-26 13:55:04.396,5.778089255044885
2025-03-26 13:55:04.396,5.170520144359268
2025-03-26 13:55:04.396,-0.04587589636007283
2025-03-26 13:55:04.404,-4.563031676778504
2025-03-26 13:55:04.404,-4.133911568951345
2025-03-26 13:55:04.404,0.1592519686319765
2025-03-26 13:55:04.404,3.329527869177859
2025-03-26 13:55:04.415,2.176715323330615
2025-03-26 13:55:04.415,-1.2831032732841503
2025-03-26 13:55:04.415,-2.588689124440822
2025-03-26 13:55:04.415,-0.255930404093762
2025-03-26 13:55:04.415,2.612578364873386
2025-03-26 13:55:04.416,2.227890183177563
2025-03-26 13:55:04.424,-1.1354158840847648
2025-03-26 13:55:04.424,-3.282696948869419
2025-03-26 13:55:04.424,-1.349855667888399
2025-03-26 13:55:04.424,2.2450622718461246
2025-03-26 13:55:04.435,2.72082586700718
2025-03-26 13:55:04.435,-0.6222127382429207
2025-03-26 13:55:04.435,-3.192394493916916
2025-03-26 13:55:04.436,-1.2027188757216325
2025-03-26 13:55:04.436,3.016721590742481
2025-03-26 13:55:04.436,3.8290797011131565
2025-03-26 13:55:04.444,-0.3052335567811443
2025-03-26 13:55:04.444,-4.601248418481992
2025-03-26 13:55:04.444,-3.898437803027168
2025-03-26 13:55:04.444,0.9806409291645337
2025-03-26 13:55:04.454,4.551330052643894
2025-03-26 13:55:04.454,3.3877801909362044
2025-03-26 13:55:04.454,-0.5664507595898851
2025-03-26 13:55:04.454,-3.2206944494990215
2025-03-26 13:55:04.454,-2.75916232613716
2025-03-26 13:55:04.463,-0.3205280858412515
2025-03-26 13:55:04.464,1.9308172553883263
2025-03-26 13:55:04.464,2.331303814674619
2025-03-26 13:55:04.464,0.5613420278100566
2025-03-26 13:55:04.464,-1.7467246103618304
2025-03-26 13:55:04.474,-2.003620808118907
2025-03-26 13:55:04.474,0.4113957138839778
2025-03-26 13:55:04.474,2.7103008234148662
2025-03-26 13:55:04.474,1.67931559857221
2025-03-26 13:55:04.474,-1.9888590084026907
2025-03-26 13:55:04.483,-3.9785338563500487
2025-03-26 13:55:04.484,-1.535539036410755
2025-03-26 13:55:04.484,2.954008421229372
2025-03-26 13:55:04.484,4.635297829883
2025-03-26 13:55:04.484,1.730930574810374
2025-03-26 13:55:04.494,-2.716035600233525
2025-03-26 13:55:04.494,-4.412550811495962
2025-03-26 13:55:04.494,-2.1077000509144823
2025-03-26 13:55:04.494,1.7189751367201418
2025-03-26 13:55:04.494,3.5628667272491312
2025-03-26 13:55:04.502,2.083607563496928
2025-03-26 13:55:04.502,-0.7940442626382378
2025-03-26 13:55:04.502,-1.9629565461972442
2025-03-26 13:55:04.502,-0.7466447114777153
2025-03-26 13:55:04.502,0.27283533519476055
2025-03-26 13:55:04.514,-0.9092458641794658
2025-03-26 13:55:04.514,-2.1573424115732815
2025-03-26 13:55:04.514,0.08492397533752595
2025-03-26 13:55:04.514,4.640999524745772
2025-03-26 13:55:04.514,5.456644712656304
2025-03-26 13:55:04.522,-0.4947463160720016
2025-03-26 13:55:04.522,-7.620110503497911
2025-03-26 13:55:04.522,-7.398038307415323
2025-03-26 13:55:04.522,0.870405776329557
2025-03-26 13:55:04.533,8.404295097697206
2025-03-26 13:55:04.533,7.128425818851973
2025-03-26 13:55:04.534,-1.023988381618791
2025-03-26 13:55:04.534,-6.956829744880931
2025-03-26 13:55:04.534,-5.085736349893771
2025-03-26 13:55:04.542,1.198033924659317
2025-03-26 13:55:04.542,4.584858400568011
2025-03-26 13:55:04.542,2.2687958831941057
2025-03-26 13:55:04.543,-1.8885793253046492
2025-03-26 13:55:04.543,-2.76425795873496
2025-03-26 13:55:04.552,0.13417185578771632
2025-03-26 13:55:04.552,2.854101653171885
2025-03-26 13:55:04.552,2.1213129264845896
2025-03-26 13:55:04.552,-1.075919184972478
2025-03-26 13:55:04.552,-3.1478858588403558
2025-03-26 13:55:04.560,-2.0968804709011377
2025-03-26 13:55:04.560,0.6617381926571443
2025-03-26 13:55:04.560,2.262183688142114
2025-03-26 13:55:04.560,1.451375466776033
2025-03-26 13:55:04.560,-0.3725361526446179
2025-03-26 13:55:04.571,-0.8449529631739279
2025-03-26 13:55:04.571,0.6240537987231256
2025-03-26 13:55:04.572,1.7731080341783996
2025-03-26 13:55:04.572,-0.06324907717812761
2025-03-26 13:55:04.572,-3.86779429096566
2025-03-26 13:55:04.580,-4.727948908192474
2025-03-26 13:55:04.580,0.2699880399696776
2025-03-26 13:55:04.580,6.806357591774619
2025-03-26 13:55:04.580,7.153993609491805
2025-03-26 13:55:04.590,-0.13859255196659392
2025-03-26 13:55:04.590,-7.490876385071997
2025-03-26 13:55:04.590,-7.095447115028896
2025-03-26 13:55:04.590,-0.14470822747422635
2025-03-26 13:55:04.590,5.344427503910203
2025-03-26 13:55:04.600,4.513471173541568
2025-03-26 13:55:04.600,0.3075578018875486
2025-03-26 13:55:04.600,-1.851358532842438
2025-03-26 13:55:04.600,-0.9145777664660243
2025-03-26 13:55:04.600,0.01789412976299659
2025-03-26 13:55:04.610,-0.9804604493715315
2025-03-26 13:55:04.610,-2.112622931041894
2025-03-26 13:55:04.610,-0.8315838969649487
2025-03-26 13:55:04.610,2.3324078764084057
2025-03-26 13:55:04.610,4.009557772800224
2025-03-26 13:55:04.618,1.758025335387388
2025-03-26 13:55:04.618,-2.8818588308991533
2025-03-26 13:55:04.618,-5.279333227527946
2025-03-26 13:55:04.618,-2.238450626365826
2025-03-26 13:55:04.618,3.8694162761129802
2025-03-26 13:55:04.628,6.478613810311058
2025-03-26 13:55:04.628,1.9032666421136903
2025-03-26 13:55:04.628,-5.461673468364761
2025-03-26 13:55:04.628,-7.296085563590321
2025-03-26 13:55:04.637,-1.1796184196438606
2025-03-26 13:55:04.638,6.1383164363064395
2025-03-26 13:55:04.638,6.77312788746118
2025-03-26 13:55:04.638,0.9266690117648436
2025-03-26 13:55:04.638,-4.372617489487403
2025-03-26 13:55:04.647,-4.401358225330263
2025-03-26 13:55:04.647,-1.2809288030270152
2025-03-26 13:55:04.648,0.7078844026609562
2025-03-26 13:55:04.648,0.8789117430333517
2025-03-26 13:55:04.648,1.317563000119625
2025-03-26 13:55:04.657,2.508465055973161
2025-03-26 13:55:04.657,2.4627423268227786
2025-03-26 13:55:04.657,-0.12307302933529887
2025-03-26 13:55:04.658,-3.601777038881199
2025-03-26 13:55:04.658,-4.712748670488695
2025-03-26 13:55:04.667,-1.8210600974754922
2025-03-26 13:55:04.668,3.045159167000706
2025-03-26 13:55:04.668,5.517429831554876
2025-03-26 13:55:04.668,3.0577035610183696
2025-03-26 13:55:04.668,-2.085650558992188
2025-03-26 13:55:04.677,-4.955174742710479
2025-03-26 13:55:04.678,-3.0693360175889546
2025-03-26 13:55:04.678,1.264043882387775
2025-03-26 13:55:04.678,3.809929834087462
2025-03-26 13:55:04.678,2.6055857047147537
2025-03-26 13:55:04.686,-0.7821225819655954
2025-03-26 13:55:04.686,-3.1199871695748373
2025-03-26 13:55:04.686,-2.2912540023723666
2025-03-26 13:55:04.686,0.8721346033433847
2025-03-26 13:55:04.686,3.129581048788349
2025-03-26 13:55:04.696,1.9782553926050377
2025-03-26 13:55:04.696,-1.3891507675504635
2025-03-26 13:55:04.696,-3.1553227341166186
2025-03-26 13:55:04.696,-1.3870610967540573
2025-03-26 13:55:04.706,1.6180232877333625
2025-03-26 13:55:04.706,2.443897919365934
2025-03-26 13:55:04.706,0.8758411977204004
2025-03-26 13:55:04.706,-0.6113042052270226
2025-03-26 13:55:04.706,-0.9061392565952605
2025-03-26 13:55:04.718,-1.225712890551306
2025-03-26 13:55:04.718,-1.8304535001697497
2025-03-26 13:55:04.719,-0.7922584283205296
2025-03-26 13:55:04.719,2.361463500821707
2025-03-26 13:55:04.719,4.327431352974699
2025-03-26 13:55:04.726,1.978176101011129
2025-03-26 13:55:04.726,-2.81694598405102
2025-03-26 13:55:04.726,-5.06606466556917
2025-03-26 13:55:04.726,-2.749088360596454
2025-03-26 13:55:04.726,1.370967999277653
2025-03-26 13:55:04.735,3.7479046220912684
2025-03-26 13:55:04.735,3.47054289370561
2025-03-26 13:55:04.735,1.4309963343744965
2025-03-26 13:55:04.736,-1.5079792166201669
2025-03-26 13:55:04.736,-4.120885521335175
2025-03-26 13:55:04.744,-4.16033157267932
2025-03-26 13:55:04.744,-0.3851815171996511
2025-03-26 13:55:04.744,4.6472724656642335
2025-03-26 13:55:04.744,5.862359609299436
2025-03-26 13:55:04.744,1.2062234952143733
2025-03-26 13:55:04.755,-5.055073399502696
2025-03-26 13:55:04.756,-6.357719605074651
2025-03-26 13:55:04.756,-1.1339745621669803
2025-03-26 13:55:04.756,5.2993483748184795
2025-03-26 13:55:04.756,6.3969231266285265
2025-03-26 13:55:04.764,1.0074292678499557
2025-03-26 13:55:04.764,-5.679413913412114
2025-03-26 13:55:04.764,-7.042074511693709
2025-03-26 13:55:04.764,-1.263017180370545
2025-03-26 13:55:04.774,6.3687970688399815
2025-03-26 13:55:04.774,8.023988907892402
2025-03-26 13:55:04.774,1.5697713613549305
2025-03-26 13:55:04.774,-6.414538883579839
2025-03-26 13:55:04.774,-7.629995206279339
2025-03-26 13:55:04.783,-1.5077751572195561
2025-03-26 13:55:04.784,4.648330869840523
2025-03-26 13:55:04.784,4.859942963796529
2025-03-26 13:55:04.784,0.905110253800849
2025-03-26 13:55:04.784,-1.582030682676587
2025-03-26 13:55:04.794,-0.7699077700361874
2025-03-26 13:55:04.794,0.25313689331881867
2025-03-26 13:55:04.794,-0.9964165581344114
2025-03-26 13:55:04.794,-2.7083780757585445
2025-03-26 13:55:04.794,-1.6139595364227461
2025-03-26 13:55:04.803,2.1107420986330223
2025-03-26 13:55:04.803,4.505211226462748
2025-03-26 13:55:04.804,2.440959593121815
2025-03-26 13:55:04.804,-2.3907092516489032
2025-03-26 13:55:04.804,-4.849182645631582
2025-03-26 13:55:04.812,-1.943026618357761
2025-03-26 13:55:04.812,3.276686473775863
2025-03-26 13:55:04.812,4.516444973944481
2025-03-26 13:55:04.812,-0.2930977358859847
2025-03-26 13:55:04.812,-5.537396305233838
2025-03-26 13:55:04.825,-4.068086213218286
2025-03-26 13:55:04.825,3.4360995494547257
2025-03-26 13:55:04.825,8.183678054645469
2025-03-26 13:55:04.825,3.7806161635841766
2025-03-26 13:55:04.832,-5.4109143455533975
2025-03-26 13:55:04.832,-9.184898505127371
2025-03-26 13:55:04.832,-3.6504562921195287
2025-03-26 13:55:04.832,4.717298935588518
2025-03-26 13:55:04.832,7.429083059513666
2025-03-26 13:55:04.841,3.322628403268631
2025-03-26 13:55:04.841,-1.999413824958405
2025-03-26 13:55:04.841,-3.756307174905533
2025-03-26 13:55:04.842,-2.339971354009543
2025-03-26 13:55:04.842,-0.6991387872640692
2025-03-26 13:55:04.851,-0.01690326456016579
2025-03-26 13:55:04.851,0.756548774062034
2025-03-26 13:55:04.851,2.1162867641261065
2025-03-26 13:55:04.852,2.518668572583813
2025-03-26 13:55:04.852,0.49218294056987005
2025-03-26 13:55:04.860,-2.5461109364359396
2025-03-26 13:55:04.860,-3.188239815269746
2025-03-26 13:55:04.860,-0.3168968095056851
2025-03-26 13:55:04.860,2.8231650695940815
2025-03-26 13:55:04.870,2.27133694909117
2025-03-26 13:55:04.870,-1.4675596123342374
2025-03-26 13:55:04.870,-3.621417577285509
2025-03-26 13:55:04.870,-0.9565148151109892
2025-03-26 13:55:04.870,3.9492075988528983
2025-03-26 13:55:04.878,5.345990650220386
2025-03-26 13:55:04.878,0.8446495453946524
2025-03-26 13:55:04.878,-5.6208935079070965
2025-03-26 13:55:04.878,-7.604945247675275
2025-03-26 13:55:04.878,-2.6258623891448782
2025-03-26 13:55:04.888,5.247437918177241
2025-03-26 13:55:04.888,9.08366329093788
2025-03-26 13:55:04.888,5.3945198371794305
2025-03-26 13:55:04.888,-2.783123059998375
2025-03-26 13:55:04.888,-8.63149928368657
2025-03-26 13:55:04.898,-7.468132864813872
2025-03-26 13:55:04.898,-0.5936636912871578
2025-03-26 13:55:04.898,6.157335103733599
2025-03-26 13:55:04.898,7.639539185411052
2025-03-26 13:55:04.898,3.5055804337619096
2025-03-26 13:55:04.908,-2.36251962735256
2025-03-26 13:55:04.908,-5.795132898784618
2025-03-26 13:55:04.908,-5.288779527018503
2025-03-26 13:55:04.908,-1.778062959209799
2025-03-26 13:55:04.918,2.8318329604260786
2025-03-26 13:55:04.918,6.066552451357284
2025-03-26 13:55:04.918,5.265986987216217
2025-03-26 13:55:04.918,-0.08559513856565432
2025-03-26 13:55:04.918,-6.167604247837631
2025-03-26 13:55:04.928,-7.208141427572739
2025-03-26 13:55:04.928,-1.6107372722506068
2025-03-26 13:55:04.928,5.453496541566268
2025-03-26 13:55:04.928,7.17155601414623
2025-03-26 13:55:04.928,2.3377436357155568
2025-03-26 13:55:04.936,-3.7487207183427556
2025-03-26 13:55:04.936,-5.350168486057257
2025-03-26 13:55:04.936,-2.0888879543535808
2025-03-26 13:55:04.936,1.5838643113935822
2025-03-26 13:55:04.946,1.9871688644120986
2025-03-26 13:55:04.946,0.2904543009621935
2025-03-26 13:55:04.946,0.2682800733449838
2025-03-26 13:55:04.946,2.514597679701079
2025-03-26 13:55:04.946,3.00105273977715
2025-03-26 13:55:04.956,-1.2399078415739082
2025-03-26 13:55:04.956,-6.704804993047037
2025-03-26 13:55:04.956,-6.545693211671874
2025-03-26 13:55:04.956,0.8114651999974916
2025-03-26 13:55:04.956,8.70148469822223
2025-03-26 13:55:04.965,9.090801259525847
2025-03-26 13:55:04.966,1.1128839399204702
2025-03-26 13:55:04.966,-8.129865871475813
2025-03-26 13:55:04.966,-10.37407883675008
2025-03-26 13:55:04.966,-3.5172876063698615
2025-03-26 13:55:04.974,6.482475079424285
2025-03-26 13:55:04.974,10.531623408406444
2025-03-26 13:55:04.974,4.744967282652792
2025-03-26 13:55:04.974,-5.235252571164319
2025-03-26 13:55:04.984,-9.45185403029286
2025-03-26 13:55:04.984,-4.052248506525245
2025-03-26 13:55:04.984,4.614271383021614
2025-03-26 13:55:04.984,7.3047021525939355
2025-03-26 13:55:04.984,2.10870485361128
2025-03-26 13:55:04.994,-4.251833996287105
2025-03-26 13:55:04.994,-4.796889207386384
2025-03-26 13:55:04.994,0.055418972446981685
2025-03-26 13:55:04.994,3.953468565325639
2025-03-26 13:55:04.994,2.4791565501010036
2025-03-26 13:55:05.004,-1.9849682466786776
2025-03-26 13:55:05.004,-3.5836348335105495
2025-03-26 13:55:05.004,-0.27033262978986083
2025-03-26 13:55:05.004,3.6427764093870176
2025-03-26 13:55:05.004,2.8817810534393624
2025-03-26 13:55:05.014,-1.9482623657456115
2025-03-26 13:55:05.014,-4.84431936480404
2025-03-26 13:55:05.014,-1.9157367008037645
2025-03-26 13:55:05.014,3.6194142314542193
2025-03-26 13:55:05.014,5.347135916549739
2025-03-26 13:55:05.023,1.3308980833423627
2025-03-26 13:55:05.024,-3.9799383050454638
2025-03-26 13:55:05.024,-5.201639985107496
2025-03-26 13:55:05.024,-1.6405057109631795
2025-03-26 13:55:05.024,2.908935407915876
2025-03-26 13:55:05.034,4.553914038424171
2025-03-26 13:55:05.034,2.5296882126690807
2025-03-26 13:55:05.034,-1.0658055823512187
2025-03-26 13:55:05.034,-3.4382106653798874
2025-03-26 13:55:05.034,-3.0735829547581446
2025-03-26 13:55:05.042,-0.5808133561651623
2025-03-26 13:55:05.042,1.9657256566506487
2025-03-26 13:55:05.042,2.739225374912332
2025-03-26 13:55:05.042,1.4566591320132942
2025-03-26 13:55:05.053,-0.6963705853263016
2025-03-26 13:55:05.054,-2.0213059608630566
2025-03-26 13:55:05.054,-1.458617021434361
2025-03-26 13:55:05.054,0.4339909513613225
2025-03-26 13:55:05.054,1.6694427937390866
2025-03-26 13:55:05.054,0.8007034960843442
2025-03-26 13:55:05.062,-1.1979428528957128
2025-03-26 13:55:05.062,-1.8260237311634087
2025-03-26 13:55:05.062,-0.09436671925095631
2025-03-26 13:55:05.062,2.080252485131045
2025-03-26 13:55:05.072,2.071268169207265
2025-03-26 13:55:05.072,-0.275772190760949
2025-03-26 13:55:05.072,-2.360880926391791
2025-03-26 13:55:05.072,-1.834115733779076
2025-03-26 13:55:05.072,0.6384437364284742
2025-03-26 13:55:05.072,2.131902604003158
2025-03-26 13:55:05.082,0.9351835600950368
2025-03-26 13:55:05.082,-1.3628668915147049
2025-03-26 13:55:05.082,-1.8045341367818712
2025-03-26 13:55:05.082,0.23066132693019242
2025-03-26 13:55:05.092,2.2007698592629485
2025-03-26 13:55:05.092,1.5914498562000174
2025-03-26 13:55:05.092,-0.9708402801499858
2025-03-26 13:55:05.092,-2.61895023295898
2025-03-26 13:55:05.092,-1.698213918807697
2025-03-26 13:55:05.102,0.7143561339874466
2025-03-26 13:55:05.102,2.4710795587526615
2025-03-26 13:55:05.102,2.3529107520566086
2025-03-26 13:55:05.102,0.4344470577502491
2025-03-26 13:55:05.102,-2.121096366814937
2025-03-26 13:55:05.112,-3.2163884431649885
2025-03-26 13:55:05.112,-1.341280412774991
2025-03-26 13:55:05.112,2.067602279036192
2025-03-26 13:55:05.112,3.259667663193966
2025-03-26 13:55:05.112,0.6612420591464874
2025-03-26 13:55:05.121,-2.5021421864857816
2025-03-26 13:55:05.122,-2.0487239823443026
2025-03-26 13:55:05.122,1.468706393819845
2025-03-26 13:55:05.122,3.2757131845066407
2025-03-26 13:55:05.122,0.6824252611794661
2025-03-26 13:55:05.130,-3.340275123746628
2025-03-26 13:55:05.130,-3.9445792122755092
2025-03-26 13:55:05.130,-0.3580660336389122
2025-03-26 13:55:05.130,3.462537860177093
2025-03-26 13:55:05.130,3.7148991779173426
2025-03-26 13:55:05.140,0.8202007695070028
2025-03-26 13:55:05.140,-1.8217175704830706
2025-03-26 13:55:05.140,-2.0631219792009836
2025-03-26 13:55:05.140,-0.9001380101087454
2025-03-26 13:55:05.150,-0.3563204131127861
2025-03-26 13:55:05.150,-0.6272840250850722
2025-03-26 13:55:05.150,-0.1628989324836968
2025-03-26 13:55:05.150,1.6675673360944971
2025-03-26 13:55:05.150,3.122179551071882
2025-03-26 13:55:05.160,2.065392859859229
2025-03-26 13:55:05.160,-1.1850238402080848
2025-03-26 13:55:05.160,-3.968314010742962
2025-03-26 13:55:05.160,-3.9718068865770486
2025-03-26 13:55:05.160,-1.0499324283889013
2025-03-26 13:55:05.170,2.9792246101303324
2025-03-26 13:55:05.170,5.212933124670857
2025-03-26 13:55:05.170,3.2933072804407186
2025-03-26 13:55:05.170,-1.8211527907484717
2025-03-26 13:55:05.170,-5.253368706007691
2025-03-26 13:55:05.180,-3.038786929945529
2025-03-26 13:55:05.180,2.2569985814831055
2025-03-26 13:55:05.180,3.815380332969673
2025-03-26 13:55:05.180,-0.41236562428336393
2025-03-26 13:55:05.180,-4.24915644650499
2025-03-26 13:55:05.190,-1.4929742153016377
2025-03-26 13:55:05.190,4.984289054217657
2025-03-26 13:55:05.190,6.387588289614833
2025-03-26 13:55:05.190,-0.29778056348105014
2025-03-26 13:55:05.190,-7.814735710759946
2025-03-26 13:55:05.200,-7.396326057518927
2025-03-26 13:55:05.200,0.6127471547101491
2025-03-26 13:55:05.200,7.466116831508426
2025-03-26 13:55:05.200,6.484550195649775
2025-03-26 13:55:05.200,0.1208959335681386
2025-03-26 13:55:05.210,-4.250232287390769
2025-03-26 13:55:05.210,-3.406763295122944
2025-03-26 13:55:05.210,-0.7163190311744446
2025-03-26 13:55:05.210,-0.14762799603281293
2025-03-26 13:55:05.210,-0.9377618584409716
2025-03-26 13:55:05.219,0.1946557255817659
2025-03-26 13:55:05.220,3.3697426242739343
2025-03-26 13:55:05.220,4.730866605646307
2025-03-26 13:55:05.220,1.5286615677625521
2025-03-26 13:55:05.220,-3.874516358546152
2025-03-26 13:55:05.228,-6.341257253013649
2025-03-26 13:55:05.228,-3.5734001624626144
2025-03-26 13:55:05.228,1.7957350755621897
2025-03-26 13:55:05.228,5.381323600039456
2025-03-26 13:55:05.238,4.997976176827289
2025-03-26 13:55:05.238,1.4435474731508557
2025-03-26 13:55:05.238,-2.9392254393030215
2025-03-26 13:55:05.238,-5.46638608358367
2025-03-26 13:55:05.238,-4.166937377667425
2025-03-26 13:55:05.248,0.505651361720987
2025-03-26 13:55:05.248,5.044398645077349
2025-03-26 13:55:05.248,5.4875284487812035
2025-03-26 13:55:05.248,1.334727052504457
2025-03-26 13:55:05.248,-3.787217397301113
2025-03-26 13:55:05.258,-5.668387386187462
2025-03-26 13:55:05.258,-3.1242356818186083
2025-03-26 13:55:05.258,1.7661292610157675
2025-03-26 13:55:05.258,5.606685554463877
2025-03-26 13:55:05.258,5.47363150144215
2025-03-26 13:55:05.268,0.6379606739018795
2025-03-26 13:55:05.268,-5.794669479497646
2025-03-26 13:55:05.268,-8.029908111194818
2025-03-26 13:55:05.268,-2.828935577559977
2025-03-26 13:55:05.268,5.900344629602845
2025-03-26 13:55:05.276,9.710026155870356
2025-03-26 13:55:05.276,4.319240503768851
2025-03-26 13:55:05.276,-5.196014474627749
2025-03-26 13:55:05.276,-9.525522064001363
2025-03-26 13:55:05.286,-5.063836625637071
2025-03-26 13:55:05.286,2.9574971588140637
2025-03-26 13:55:05.286,7.152828584827635
2025-03-26 13:55:05.286,5.461382682503325
2025-03-26 13:55:05.287,0.9712690802662973
2025-03-26 13:55:05.296,-3.1665073453864654
2025-03-26 13:55:05.296,-5.735976498558872
2025-03-26 13:55:05.296,-5.467911328320844
2025-03-26 13:55:05.296,-1.0281840169306655
2025-03-26 13:55:05.296,5.566319549472443
2025-03-26 13:55:05.304,8.464368846808817
2025-03-26 13:55:05.304,3.867455281124064
2025-03-26 13:55:05.304,-4.527207338481498
2025-03-26 13:55:05.304,-8.625878729709937
2025-03-26 13:55:05.304,-4.7112613016934
2025-03-26 13:55:05.314,2.7341532424227992
2025-03-26 13:55:05.314,6.443399009862417
2025-03-26 13:55:05.314,4.00558866723178
2025-03-26 13:55:05.314,-0.8433952668440319
2025-03-26 13:55:05.324,-3.33713267720667
2025-03-26 13:55:05.324,-2.4296995637584833
2025-03-26 13:55:05.324,-0.4675258316468309
2025-03-26 13:55:05.324,0.4086636686178689
2025-03-26 13:55:05.324,0.39421852815600467
2025-03-26 13:55:05.334,0.780272398055652
2025-03-26 13:55:05.334,1.6671179720879827
2025-03-26 13:55:05.334,1.7047576031624825
2025-03-26 13:55:05.334,-0.010759781046811915
2025-03-26 13:55:05.334,-2.4348828124689192
2025-03-26 13:55:05.344,-3.3351656314648555
2025-03-26 13:55:05.344,-1.47241727665348
2025-03-26 13:55:05.344,2.004562366090639
2025-03-26 13:55:05.344,4.22598874377985
2025-03-26 13:55:05.344,2.9381300593671997
2025-03-26 13:55:05.354,-1.191124669756203
2025-03-26 13:55:05.354,-4.55195098642793
2025-03-26 13:55:05.354,-3.7227707403810943
2025-03-26 13:55:05.354,0.7824947234916507
2025-03-26 13:55:05.354,4.482708321385945
2025-03-26 13:55:05.362,3.5288215466000716
2025-03-26 13:55:05.362,-0.9097548402066683
2025-03-26 13:55:05.362,-3.8868676492753473
2025-03-26 13:55:05.362,-2.4073067709182916
2025-03-26 13:55:05.374,1.27166393427804
2025-03-26 13:55:05.374,2.7441945086866415
2025-03-26 13:55:05.374,0.8152936432263045
2025-03-26 13:55:05.374,-1.5796707864671369
2025-03-26 13:55:05.374,-1.477349656109233
2025-03-26 13:55:05.374,0.5810571333553584
2025-03-26 13:55:05.382,1.7021984085315707
2025-03-26 13:55:05.382,0.45405403652964876
2025-03-26 13:55:05.382,-1.4984721084487709
2025-03-26 13:55:05.382,-1.6339150598735597
2025-03-26 13:55:05.392,0.3033444001398569
2025-03-26 13:55:05.392,2.060127766267897
2025-03-26 13:55:05.392,1.5754663983616908
2025-03-26 13:55:05.392,-0.7216720351873662
2025-03-26 13:55:05.392,-2.4677570622559073
2025-03-26 13:55:05.392,-1.8004845920447456
2025-03-26 13:55:05.402,0.8450157982195654
2025-03-26 13:55:05.402,2.9853892458913918
2025-03-26 13:55:05.402,2.232822124386206
2025-03-26 13:55:05.402,-1.1302600314253315
2025-03-26 13:55:05.412,-3.757768371085241
2025-03-26 13:55:05.412,-2.4690381850316947
2025-03-26 13:55:05.412,1.7757620422013547
2025-03-26 13:55:05.412,4.338909484462101
2025-03-26 13:55:05.412,2.232256552787846
2025-03-26 13:55:05.421,-2.123704427766551
2025-03-26 13:55:05.422,-3.871347692482908
2025-03-26 13:55:05.422,-1.6439573546269848
2025-03-26 13:55:05.422,1.3764848629962396
2025-03-26 13:55:05.422,2.1156592970271078
2025-03-26 13:55:05.432,1.063460624573284
2025-03-26 13:55:05.432,0.2914898683668433
2025-03-26 13:55:05.432,0.06802862818682105
2025-03-26 13:55:05.432,-0.7201638218042726
2025-03-26 13:55:05.432,-1.8553815746232472
2025-03-26 13:55:05.440,-1.6588968828139565
2025-03-26 13:55:05.440,0.4170458364762028
2025-03-26 13:55:05.440,2.6352748666901786
2025-03-26 13:55:05.440,2.7635114531413154
2025-03-26 13:55:05.440,0.26034342774789887
2025-03-26 13:55:05.450,-3.0979974904204415
2025-03-26 13:55:05.450,-4.178629735857444
2025-03-26 13:55:05.450,-1.090141583199176
2025-03-26 13:55:05.450,3.9717694896489855
2025-03-26 13:55:05.460,5.680254471817571
2025-03-26 13:55:05.460,1.3612582001852132
2025-03-26 13:55:05.460,-4.87937267322135
2025-03-26 13:55:05.460,-6.15359165349982
2025-03-26 13:55:05.460,-0.9717011962263316
2025-03-26 13:55:05.470,4.834137572693405
2025-03-26 13:55:05.470,5.118967483302895
2025-03-26 13:55:05.470,0.3948006735848866
2025-03-26 13:55:05.470,-3.6397147588744048
2025-03-26 13:55:05.470,-3.160363334437416
2025-03-26 13:55:05.480,0.15853939276359125
2025-03-26 13:55:05.480,2.1990703761611408
2025-03-26 13:55:05.480,1.2198733925282628
2025-03-26 13:55:05.480,-0.940313624427641
2025-03-26 13:55:05.480,-1.485822930457544
2025-03-26 13:55:05.490,0.22241637965371003
2025-03-26 13:55:05.490,2.058135757176536
2025-03-26 13:55:05.490,1.5329120359064354
2025-03-26 13:55:05.490,-1.1962085878402415
2025-03-26 13:55:05.490,-3.1473537885354013
2025-03-26 13:55:05.500,-1.791025046080605
2025-03-26 13:55:05.500,1.797182195983164
2025-03-26 13:55:05.500,3.8121988219937797
2025-03-26 13:55:05.500,1.9227198017759268
2025-03-26 13:55:05.500,-2.02033372755405
2025-03-26 13:55:05.510,-3.970613020660814
2025-03-26 13:55:05.510,-2.018450335658639
2025-03-26 13:55:05.510,1.8448585273308662
2025-03-26 13:55:05.510,4.014233627777303
2025-03-26 13:55:05.510,2.5784558668956112
2025-03-26 13:55:05.518,-1.4085956405014426
2025-03-26 13:55:05.518,-4.790340889651771
2025-03-26 13:55:05.518,-4.280394452022714
2025-03-26 13:55:05.518,0.8424252129881509
2025-03-26 13:55:05.528,6.800727675583681
2025-03-26 13:55:05.528,7.335443330449145
2025-03-26 13:55:05.528,0.02863291270286006
2025-03-26 13:55:05.528,-9.239496522612136
2025-03-26 13:55:05.528,-10.705036476159743
2025-03-26 13:55:05.537,-1.364652780392586
2025-03-26 13:55:05.538,10.260631115736341
2025-03-26 13:55:05.538,12.397466771207974
2025-03-26 13:55:05.538,2.8368235388749214
2025-03-26 13:55:05.538,-8.652688235796523
2025-03-26 13:55:05.546,-11.136022654942579
2025-03-26 13:55:05.546,-3.727323984475049
2025-03-26 13:55:05.546,5.09207124702957
2025-03-26 13:55:05.546,7.490774327338723
2025-03-26 13:55:05.556,3.39452274750113
2025-03-26 13:55:05.556,-1.6612011391526607
2025-03-26 13:55:05.556,-3.1679985453844752
2025-03-26 13:55:05.556,-1.356921778535562
2025-03-26 13:55:05.556,0.28353389646119787
2025-03-26 13:55:05.566,-0.6757353967346433
2025-03-26 13:55:05.566,-2.5292794107464434
2025-03-26 13:55:05.566,-1.2488910884455842
2025-03-26 13:55:05.566,3.767908983642668
2025-03-26 13:55:05.566,7.136856232660939
2025-03-26 13:55:05.576,3.254745259236186
2025-03-26 13:55:05.576,-5.595245909021907
2025-03-26 13:55:05.576,-10.119725053289018
2025-03-26 13:55:05.576,-4.624495862246913
2025-03-26 13:55:05.576,5.519571577083319
2025-03-26 13:55:05.584,9.661326820840262
2025-03-26 13:55:05.584,4.192703422139379
2025-03-26 13:55:05.584,-3.878789437692064
2025-03-26 13:55:05.584,-6.044017803869881
2025-03-26 13:55:05.595,-1.972725089989241
2025-03-26 13:55:05.596,1.922206450902319
2025-03-26 13:55:05.596,1.5223187615426736
2025-03-26 13:55:05.596,-0.7475951161866387
2025-03-26 13:55:05.596,-0.7408050823553494
2025-03-26 13:55:05.596,1.4717725372528143
2025-03-26 13:55:05.604,2.4235312431803027
2025-03-26 13:55:05.604,0.49674977561162387
2025-03-26 13:55:05.604,-2.0636532639854503
2025-03-26 13:55:05.604,-2.4098507999103673
2025-03-26 13:55:05.614,-0.5468142976551398
2025-03-26 13:55:05.614,1.2134187445498066
2025-03-26 13:55:05.614,1.1923937949228287
2025-03-26 13:55:05.614,-0.0765552158641978
2025-03-26 13:55:05.614,-0.7342613218069985
2025-03-26 13:55:05.614,0.3552661919120898
2025-03-26 13:55:05.624,2.0775153583406882
2025-03-26 13:55:05.624,1.7572856907523113
2025-03-26 13:55:05.624,-1.607334367676989
2025-03-26 13:55:05.624,-4.931410730008899
2025-03-26 13:55:05.634,-3.7233666827065353
2025-03-26 13:55:05.634,2.0248116636349973
2025-03-26 13:55:05.634,6.5824824020118715
2025-03-26 13:55:05.634,4.900834305432522
2025-03-26 13:55:05.634,-1.1233427124386237
2025-03-26 13:55:05.644,-5.1104610369279975
2025-03-26 13:55:05.644,-4.036030150029809
2025-03-26 13:55:05.644,-0.7869744025491427
2025-03-26 13:55:05.644,1.0151664848653563
2025-03-26 13:55:05.644,1.4756311747528286
2025-03-26 13:55:05.654,2.309479654545706
2025-03-26 13:55:05.654,2.9202026489888
2025-03-26 13:55:05.654,1.2923044201651663
2025-03-26 13:55:05.654,-2.160483651835673
2025-03-26 13:55:05.654,-4.2612994309022385
2025-03-26 13:55:05.662,-2.9227047161637074
2025-03-26 13:55:05.662,0.428391010333516
2025-03-26 13:55:05.662,2.8696570006833504
2025-03-26 13:55:05.662,3.064922678913863
2025-03-26 13:55:05.672,1.611872710250291
2025-03-26 13:55:05.672,-0.43529703531946823
2025-03-26 13:55:05.672,-2.1850686659747973
2025-03-26 13:55:05.672,-2.6792493932646337
2025-03-26 13:55:05.672,-1.3706212084728848
2025-03-26 13:55:05.672,0.9561805465728452
2025-03-26 13:55:05.682,2.485992897955458
2025-03-26 13:55:05.682,2.0371806371938215
2025-03-26 13:55:05.682,0.18403377437067678
2025-03-26 13:55:05.682,-1.507727118799151
2025-03-26 13:55:05.692,-2.029464614606691
2025-03-26 13:55:05.692,-1.3479589592218328
2025-03-26 13:55:05.692,0.22334846028721386
2025-03-26 13:55:05.692,2.089194684615737
2025-03-26 13:55:05.692,2.849982598477051
2025-03-26 13:55:05.692,1.0724719760738028
2025-03-26 13:55:05.702,-2.5152985176563454
2025-03-26 13:55:05.702,-4.531661487263901
2025-03-26 13:55:05.702,-2.196972220145581
2025-03-26 13:55:05.702,2.8946958198105386
2025-03-26 13:55:05.712,5.677577274064464
2025-03-26 13:55:05.712,3.029021551218287
2025-03-26 13:55:05.712,-2.5349457048089623
2025-03-26 13:55:05.712,-5.480591692759968
2025-03-26 13:55:05.712,-3.245401326521521
2025-03-26 13:55:05.712,1.305040742163635
2025-03-26 13:55:05.722,3.54777351890492
2025-03-26 13:55:05.722,2.2785599393529625
2025-03-26 13:55:05.722,0.20843112790248522
2025-03-26 13:55:05.722,-0.31005667358530836
2025-03-26 13:55:05.732,-0.21280740739644588
2025-03-26 13:55:05.732,-1.364647490160423
2025-03-26 13:55:05.732,-2.833511005207717
2025-03-26 13:55:05.732,-1.8197379692577855
2025-03-26 13:55:05.732,1.8450327386886398
2025-03-26 13:55:05.732,4.435361885987284
2025-03-26 13:55:05.742,2.7143893998994
2025-03-26 13:55:05.742,-1.7506086247808545
2025-03-26 13:55:05.742,-4.206016490642465
2025-03-26 13:55:05.742,-2.278508255568029
2025-03-26 13:55:05.752,1.4959996341279913
2025-03-26 13:55:05.752,2.9863782836279866
2025-03-26 13:55:05.752,1.141756884846633
2025-03-26 13:55:05.752,-1.4403965324476826
2025-03-26 13:55:05.752,-1.9153013302779291
2025-03-26 13:55:05.762,-0.11751858570920237
2025-03-26 13:55:05.762,1.7792933835022429
2025-03-26 13:55:05.762,1.6786413037461512
2025-03-26 13:55:05.762,-0.46646664423953094
2025-03-26 13:55:05.762,-2.517846194208942
2025-03-26 13:55:05.772,-2.0669769525496013
2025-03-26 13:55:05.773,0.8272425468608757
2025-03-26 13:55:05.773,3.099723088303689
2025-03-26 13:55:05.773,2.031673380670677
2025-03-26 13:55:05.773,-1.0984682247794635
2025-03-26 13:55:05.782,-2.4547323087282296
2025-03-26 13:55:05.782,-0.8109798430520951
2025-03-26 13:55:05.782,0.9987014748312939
2025-03-26 13:55:05.782,0.5025454234135125
2025-03-26 13:55:05.782,-0.9940767140112858
2025-03-26 13:55:05.792,-0.8571202927023038
2025-03-26 13:55:05.792,1.028493757306081
2025-03-26 13:55:05.792,2.529667553322482
2025-03-26 13:55:05.792,1.9768031158972017
2025-03-26 13:55:05.792,-0.641146701252264
2025-03-26 13:55:05.802,-3.7947292376082404
2025-03-26 13:55:05.802,-4.705226471748255
2025-03-26 13:55:05.802,-1.2728785120611767
2025-03-26 13:55:05.802,4.664134690966104
2025-03-26 13:55:05.802,7.4306010600295584
2025-03-26 13:55:05.812,3.21840185937399
2025-03-26 13:55:05.812,-4.5770065297949705
2025-03-26 13:55:05.812,-8.033904293678207
2025-03-26 13:55:05.812,-3.5867312636228914
2025-03-26 13:55:05.812,3.550376599578086
2025-03-26 13:55:05.820,5.546665226679704
2025-03-26 13:55:05.821,1.3965682784440816
2025-03-26 13:55:05.821,-2.4305884038813055
2025-03-26 13:55:05.821,-0.9473641419101747
2025-03-26 13:55:05.821,2.7994030415459763
2025-03-26 13:55:05.830,2.312101886711637
2025-03-26 13:55:05.830,-3.108043954201064
2025-03-26 13:55:05.830,-7.016941296171502
2025-03-26 13:55:05.830,-3.898338133395706
2025-03-26 13:55:05.840,4.048973511576591
2025-03-26 13:55:05.840,9.327834103860534
2025-03-26 13:55:05.840,6.851629163340012
2025-03-26 13:55:05.840,-1.5970672890136783
2025-03-26 13:55:05.840,-9.225270220813815
2025-03-26 13:55:05.848,-9.663274169732256
2025-03-26 13:55:05.848,-2.0744097308371234
2025-03-26 13:55:05.848,7.522224869942618
2025-03-26 13:55:05.848,10.764924373737204
2025-03-26 13:55:05.848,4.572213162195462
2025-03-26 13:55:05.858,-5.39963560707928
2025-03-26 13:55:05.858,-9.855031586959667
2025-03-26 13:55:05.858,-4.957426714050947
2025-03-26 13:55:05.858,3.899356053275225
2025-03-26 13:55:05.868,7.73897308303035
2025-03-26 13:55:05.868,3.371248735928604
2025-03-26 13:55:05.868,-3.48787968176694
2025-03-26 13:55:05.868,-5.052199069333675
2025-03-26 13:55:05.868,-0.5780297600134987
2025-03-26 13:55:05.878,3.3812782873905123
2025-03-26 13:55:05.878,1.9517113537083812
2025-03-26 13:55:05.878,-1.9024987354355665
2025-03-26 13:55:05.878,-2.3330193100777668
2025-03-26 13:55:05.878,0.8872798484261372
2025-03-26 13:55:05.886,2.6622227870296764
2025-03-26 13:55:05.886,0.47961609887581147
2025-03-26 13:55:05.886,-2.2434048525866537
2025-03-26 13:55:05.886,-1.698617894189193
2025-03-26 13:55:05.886,0.9053936555120758
2025-03-26 13:55:05.896,1.7332777006285334
2025-03-26 13:55:05.896,0.05419669879697803
2025-03-26 13:55:05.896,-1.2098640643338607
2025-03-26 13:55:05.896,-0.18095832608492946
2025-03-26 13:55:05.896,1.3262456565145224
2025-03-26 13:55:05.906,0.7670728700121096
2025-03-26 13:55:05.906,-1.2695190929416424
2025-03-26 13:55:05.906,-1.8985795411696162
2025-03-26 13:55:05.906,-0.06079902240637797
2025-03-26 13:55:05.916,1.975344419700119
2025-03-26 13:55:05.916,1.627536161616948
2025-03-26 13:55:05.916,-0.7149284700549903
2025-03-26 13:55:05.916,-2.230900162187697
2025-03-26 13:55:05.916,-0.9898085805356087
2025-03-26 13:55:05.926,1.8297814962882792
2025-03-26 13:55:05.926,2.9488682624573332
2025-03-26 13:55:05.926,0.36061340489513205
2025-03-26 13:55:05.926,-3.8466745139950214
2025-03-26 13:55:05.926,-4.676964957855527
2025-03-26 13:55:05.934,0.28213372093194
2025-03-26 13:55:05.934,6.70738720736924
2025-03-26 13:55:05.934,7.0516378336122445
2025-03-26 13:55:05.934,-0.6676623266961712
2025-03-26 13:55:05.934,-9.211568387948189
2025-03-26 13:55:05.944,-9.218387469599373
2025-03-26 13:55:05.944,0.28678475598450837
2025-03-26 13:55:05.944,10.096940956297347
2025-03-26 13:55:05.944,10.255031391595873
2025-03-26 13:55:05.954,0.5809947432327723
2025-03-26 13:55:05.954,-9.149226278053955
2025-03-26 13:55:05.954,-9.528955195253657
2025-03-26 13:55:05.955,-1.1014881372008518
2025-03-26 13:55:05.955,6.997382123053381
2025-03-26 13:55:05.964,7.22436346106703
2025-03-26 13:55:05.964,0.99924807362239
2025-03-26 13:55:05.964,-4.335876161228234
2025-03-26 13:55:05.964,-4.2057699830213595
2025-03-26 13:55:05.964,-0.6869098046004892
2025-03-26 13:55:05.974,1.6746727410351774
2025-03-26 13:55:05.974,1.4326033853678157
2025-03-26 13:55:05.974,0.47252227472156927
2025-03-26 13:55:05.974,0.3557041316747509
2025-03-26 13:55:05.974,0.4956923158776859
2025-03-26 13:55:05.982,-0.19642622554605532
2025-03-26 13:55:05.982,-1.3741113836714576
2025-03-26 13:55:05.982,-1.5599587151210836
2025-03-26 13:55:05.983,-0.020187505652178417
2025-03-26 13:55:05.983,1.9249434914188472
2025-03-26 13:55:05.994,1.874353762525225
2025-03-26 13:55:05.994,-0.6762986618391701
2025-03-26 13:55:05.994,-2.7825728479142873
2025-03-26 13:55:05.994,-1.1857094076388104
2025-03-26 13:55:05.994,2.7840926713892213
2025-03-26 13:55:06.002,3.80160071376902
2025-03-26 13:55:06.002,-0.5017661707957388
2025-03-26 13:55:06.002,-5.3498965278352495
2025-03-26 13:55:06.002,-4.2714072207398655
2025-03-26 13:55:06.012,2.276890277721399
2025-03-26 13:55:06.012,6.835413977829334
2025-03-26 13:55:06.012,3.949818284609237
2025-03-26 13:55:06.012,-3.2158889089905136
2025-03-26 13:55:06.012,-6.726919350229011
2025-03-26 13:55:06.022,-3.065636701842807
2025-03-26 13:55:06.022,3.264469766847795
2025-03-26 13:55:06.022,5.355909337588425
2025-03-26 13:55:06.022,1.7342527507292205
2025-03-26 13:55:06.022,-2.645820933500212
2025-03-26 13:55:06.032,-2.910833668819805
2025-03-26 13:55:06.032,0.048398587233305534
2025-03-26 13:55:06.032,1.6027137446020614
2025-03-26 13:55:06.032,-0.15056338447655815
2025-03-26 13:55:06.032,-2.175141657953694
2025-03-26 13:55:06.042,-0.9567866791065658
2025-03-26 13:55:06.042,2.6938161615621126
2025-03-26 13:55:06.042,4.48502793704862
2025-03-26 13:55:06.042,1.633301475594565
2025-03-26 13:55:06.042,-3.839913399965278
2025-03-26 13:55:06.050,-6.743684541127432
2025-03-26 13:55:06.050,-3.6131010762941846
2025-03-26 13:55:06.050,3.5413046389447778
2025-03-26 13:55:06.050,8.372002335547041
2025-03-26 13:55:06.060,5.947385521147751
2025-03-26 13:55:06.060,-2.069355215526615
2025-03-26 13:55:06.060,-8.46822227071598
2025-03-26 13:55:06.060,-7.381955952298904
2025-03-26 13:55:06.060,-0.08921095122020573
2025-03-26 13:55:06.070,6.4439776577768315
2025-03-26 13:55:06.070,6.72791380806428
2025-03-26 13:55:06.070,1.871723063360252
2025-03-26 13:55:06.070,-2.666371276713604
2025-03-26 13:55:06.070,-3.526878519018357
2025-03-26 13:55:06.080,-2.238052653716829
2025-03-26 13:55:06.080,-1.5672606243308826
2025-03-26 13:55:06.080,-1.1752861229387261
2025-03-26 13:55:06.080,1.1417574002646433
2025-03-26 13:55:06.080,4.704723358298594
2025-03-26 13:55:06.088,5.2985183114654255
2025-03-26 13:55:06.088,0.5824080206016657
2025-03-26 13:55:06.088,-5.680965820203245
2025-03-26 13:55:06.088,-7.123110518826234
2025-03-26 13:55:06.088,-2.124228147245821
2025-03-26 13:55:06.098,4.347389954433384
2025-03-26 13:55:06.098,6.439404829993357
2025-03-26 13:55:06.098,3.1941476488895053
2025-03-26 13:55:06.098,-1.7713213831743708
2025-03-26 13:55:06.108,-4.507220196739725
2025-03-26 13:55:06.108,-3.6237256389445034
2025-03-26 13:55:06.108,-0.3808217065014638
2025-03-26 13:55:06.108,2.582803611310747
2025-03-26 13:55:06.108,3.089688804348752
2025-03-26 13:55:06.118,1.1806957822255244
2025-03-26 13:55:06.118,-0.9581317492801997
2025-03-26 13:55:06.118,-1.4227125137960421
2025-03-26 13:55:06.118,-0.6836138971978217
2025-03-26 13:55:06.118,-0.5091140177843833
2025-03-26 13:55:06.128,-1.095540990729672
2025-03-26 13:55:06.128,-0.6168016890322269
2025-03-26 13:55:06.128,1.7781720245025985
2025-03-26 13:55:06.128,3.729607359014937
2025-03-26 13:55:06.128,2.0493218189730693
2025-03-26 13:55:06.138,-2.692298648351509
2025-03-26 13:55:06.138,-5.650811950940027
2025-03-26 13:55:06.138,-2.9951919644426055
2025-03-26 13:55:06.138,3.0805124624817832
2025-03-26 13:55:06.138,6.273986632050503
2025-03-26 13:55:06.148,3.2526194198089686
2025-03-26 13:55:06.148,-2.6398617342932438
2025-03-26 13:55:06.148,-5.432771199331293
2025-03-26 13:55:06.148,-3.0550290282686077
2025-03-26 13:55:06.148,1.312360551881557
2025-03-26 13:55:06.156,3.532083789477859
2025-03-26 13:55:06.156,2.569198451701012
2025-03-26 13:55:06.156,0.30114324687137467
2025-03-26 13:55:06.156,-1.2453643925914264
2025-03-26 13:55:06.156,-1.6278231175296636
2025-03-26 13:55:06.166,-1.4860020477802691
2025-03-26 13:55:06.166,-1.1100471505851177
2025-03-26 13:55:06.166,0.05225488108060458
2025-03-26 13:55:06.166,2.15163564033233
2025-03-26 13:55:06.176,3.4984687329422726
2025-03-26 13:55:06.176,1.751753592696821
2025-03-26 13:55:06.176,-2.582135460768846
2025-03-26 13:55:06.176,-5.253707036213332
2025-03-26 13:55:06.176,-2.8019352991825386
2025-03-26 13:55:06.186,2.6548535393182586
2025-03-26 13:55:06.186,5.335683547566476
2025-03-26 13:55:06.186,2.596656624375193
2025-03-26 13:55:06.186,-2.1418415361516203
2025-03-26 13:55:06.186,-3.8346053062552885
2025-03-26 13:55:06.196,-1.5269781409874936
2025-03-26 13:55:06.196,1.442974502755662
2025-03-26 13:55:06.196,1.9119123318467697
2025-03-26 13:55:06.196,0.1552126833544073
2025-03-26 13:55:06.196,-1.2038314427756052
2025-03-26 13:55:06.204,-0.4829006770336617
2025-03-26 13:55:06.204,1.3121564090303632
2025-03-26 13:55:06.204,1.7218519154675183
2025-03-26 13:55:06.204,-0.3230751535395785
2025-03-26 13:55:06.204,-2.8744595146285117
2025-03-26 13:55:06.216,-2.7127031162677766
2025-03-26 13:55:06.216,0.7701112546410113
2025-03-26 13:55:06.216,4.114622420867336
2025-03-26 13:55:06.216,3.3803764943436763
2025-03-26 13:55:06.216,-1.0057238038211473
2025-03-26 13:55:06.224,-4.335835230804177
2025-03-26 13:55:06.224,-3.012486374540289
2025-03-26 13:55:06.224,1.2316374935630539
2025-03-26 13:55:06.224,3.490639933839666
2025-03-26 13:55:06.236,1.5398281952824098
2025-03-26 13:55:06.236,-1.766423603378203
2025-03-26 13:55:06.236,-2.2701221338276603
2025-03-26 13:55:06.236,0.4068656040994404
2025-03-26 13:55:06.236,2.6309508369879215
2025-03-26 13:55:06.236,1.3583286613272856
2025-03-26 13:55:06.244,-2.1227590710608566
2025-03-26 13:55:06.244,-3.6219243065482973
2025-03-26 13:55:06.244,-0.8973960405490975
2025-03-26 13:55:06.244,3.4976916390749007
2025-03-26 13:55:06.254,4.614587216788398
2025-03-26 13:55:06.254,0.5352438141673764
2025-03-26 13:55:06.254,-4.870050456965893
2025-03-26 13:55:06.254,-5.464226121814676
2025-03-26 13:55:06.254,0.24672923163163046
2025-03-26 13:55:06.264,6.4446053533554775
2025-03-26 13:55:06.264,5.817436782587427
2025-03-26 13:55:06.264,-1.7067787001676153
2025-03-26 13:55:06.264,-7.905542692089138
2025-03-26 13:55:06.264,-5.416230866102118
2025-03-26 13:55:06.274,3.323228269315915
2025-03-26 13:55:06.274,8.568818196224315
2025-03-26 13:55:06.274,4.553798434081098
2025-03-26 13:55:06.274,-4.063237581052405
2025-03-26 13:55:06.274,-7.975024411055844
2025-03-26 13:55:06.282,-3.662873643943618
2025-03-26 13:55:06.282,3.6061100677307603
2025-03-26 13:55:06.282,6.336200521678755
2025-03-26 13:55:06.282,2.559979173264318
2025-03-26 13:55:06.292,-3.003832019216852
2025-03-26 13:55:06.292,-4.368440022956713
2025-03-26 13:55:06.292,-0.5055547604305556
2025-03-26 13:55:06.292,3.613772216831951
2025-03-26 13:55:06.292,2.5943970617685825
2025-03-26 13:55:06.302,-2.7164973111272857
2025-03-26 13:55:06.302,-5.5448548165173195
2025-03-26 13:55:06.302,-1.2620301854157658
2025-03-26 13:55:06.302,6.129214267551809
2025-03-26 13:55:06.302,7.787027856813565
2025-03-26 13:55:06.312,0.5291547234424259
2025-03-26 13:55:06.312,-8.453998628332661
2025-03-26 13:55:06.312,-9.098753705201313
2025-03-26 13:55:06.312,-0.11474223997987298
2025-03-26 13:55:06.312,8.997718352087952
2025-03-26 13:55:06.320,8.538074106662744
2025-03-26 13:55:06.320,-0.45212393929708894
2025-03-26 13:55:06.320,-7.872593066248149
2025-03-26 13:55:06.320,-6.390097995144695
2025-03-26 13:55:06.330,1.0857725750770812
2025-03-26 13:55:06.330,6.1277321167377945
2025-03-26 13:55:06.330,4.356840006621192
2025-03-26 13:55:06.330,-1.2673674438829892
2025-03-26 13:55:06.330,-4.935419908878461
2025-03-26 13:55:06.340,-3.688877540940803
2025-03-26 13:55:06.340,0.7568145705582126
2025-03-26 13:55:06.340,4.187934396058498
2025-03-26 13:55:06.340,3.7223696942271802
2025-03-26 13:55:06.340,0.2549402352885807
2025-03-26 13:55:06.350,-2.7805388856865925
2025-03-26 13:55:06.350,-3.098678726295061
2025-03-26 13:55:06.350,-1.4222944965076234
2025-03-26 13:55:06.350,0.3545154196269807
2025-03-26 13:55:06.350,1.5375997929666605
2025-03-26 13:55:06.360,2.291527080388823
2025-03-26 13:55:06.360,2.088988801566859
2025-03-26 13:55:06.360,0.19959765794319842
2025-03-26 13:55:06.360,-2.412023936682403
2025-03-26 13:55:06.360,-3.280960867943059
2025-03-26 13:55:06.370,-1.2632318720416642
2025-03-26 13:55:06.370,1.7400425465085105
2025-03-26 13:55:06.370,2.7993804961247606
2025-03-26 13:55:06.370,1.290669326013713
2025-03-26 13:55:06.370,-0.7111447567211394
2025-03-26 13:55:06.378,-1.2413097044847552
2025-03-26 13:55:06.378,-0.5643246416474202
2025-03-26 13:55:06.378,-0.10329268784086322
2025-03-26 13:55:06.378,-0.2630438153598107
2025-03-26 13:55:06.378,-0.2873181560837562
2025-03-26 13:55:06.388,0.23077427873099188
2025-03-26 13:55:06.388,0.8151414429327409
2025-03-26 13:55:06.388,0.9596780179917265
2025-03-26 13:55:06.388,0.5365023892406618
2025-03-26 13:55:06.388,-0.49204166139043376
2025-03-26 13:55:06.398,-1.68924112072066
2025-03-26 13:55:06.398,-1.723058655309184
2025-03-26 13:55:06.398,0.20380205637173515
2025-03-26 13:55:06.398,2.484948244073109
2025-03-26 13:55:06.408,2.3553860925288017
2025-03-26 13:55:06.408,-0.4563537160431207
2025-03-26 13:55:06.408,-2.8188755554118945
2025-03-26 13:55:06.408,-1.9453787948543788
2025-03-26 13:55:06.408,0.9919339142618999
2025-03-26 13:55:06.418,2.3467091117230345
2025-03-26 13:55:06.418,0.6970122691126632
2025-03-26 13:55:06.418,-1.4851426089899809
2025-03-26 13:55:06.418,-1.301250835469842
2025-03-26 13:55:06.418,0.778583673280057
2025-03-26 13:55:06.428,1.8013305604666165
2025-03-26 13:55:06.428,0.35949915733531645
2025-03-26 13:55:06.428,-1.73737564336823
2025-03-26 13:55:06.428,-1.9557680874682546
2025-03-26 13:55:06.428,-0.06126518032685001
2025-03-26 13:55:06.438,1.901383992568525
2025-03-26 13:55:06.438,2.01113482104301
2025-03-26 13:55:06.438,0.2814848356182973
2025-03-26 13:55:06.438,-1.6159214172411605
2025-03-26 13:55:06.438,-1.9640977541573315
2025-03-26 13:55:06.448,-0.5017560535735867
2025-03-26 13:55:06.448,1.3194175641794403
2025-03-26 13:55:06.448,1.7122776473710635
2025-03-26 13:55:06.448,0.43637701619450764
2025-03-26 13:55:06.448,-0.9810298502145153
2025-03-26 13:55:06.458,-1.1449899817590765
2025-03-26 13:55:06.458,-0.3582683129495521
2025-03-26 13:55:06.458,0.2278674140908951
2025-03-26 13:55:06.458,0.37458554875772676
2025-03-26 13:55:06.458,0.6739144884766936
2025-03-26 13:55:06.466,1.0000987986343894
2025-03-26 13:55:06.466,0.33562422607812764
2025-03-26 13:55:06.466,-1.39166475314142
2025-03-26 13:55:06.466,-2.3322397471830767
2025-03-26 13:55:06.476,-0.733722036434896
2025-03-26 13:55:06.476,2.2987614228155686
2025-03-26 13:55:06.476,3.3595725996831605
2025-03-26 13:55:06.476,0.6954466276165991
2025-03-26 13:55:06.476,-3.1984905122310012
2025-03-26 13:55:06.486,-3.978670083796782
2025-03-26 13:55:06.486,-0.4012297400935724
2025-03-26 13:55:06.486,3.9556437609849784
2025-03-26 13:55:06.486,4.3685937276658136
2025-03-26 13:55:06.486,0.10304175880375338
2025-03-26 13:55:06.496,-4.572814929290303
2025-03-26 13:55:06.496,-4.674631663979024
2025-03-26 13:55:06.496,0.25083812986640025
2025-03-26 13:55:06.496,5.288448524208888
2025-03-26 13:55:06.496,4.895835981852713
2025-03-26 13:55:06.496,-1.0883069948947115
2025-03-26 13:55:06.506,-6.4546183626606055
2025-03-26 13:55:06.506,-4.815663753855353
2025-03-26 13:55:06.506,2.757961675813677
2025-03-26 13:55:06.506,7.83454806143943
2025-03-26 13:55:06.516,4.022877780853851
2025-03-26 13:55:06.516,-4.781954014133777
2025-03-26 13:55:06.516,-8.312379358167671
2025-03-26 13:55:06.516,-2.331653547658697
2025-03-26 13:55:06.516,5.9996111829374765
2025-03-26 13:55:06.524,7.023393669381807
2025-03-26 13:55:06.524,0.3030966999169392
2025-03-26 13:55:06.524,-5.734493998888223
2025-03-26 13:55:06.524,-4.678848680016828
2025-03-26 13:55:06.524,1.013532226796521
2025-03-26 13:55:06.534,4.509747699305844
2025-03-26 13:55:06.534,2.8391919878825784
2025-03-26 13:55:06.534,-1.1183111831695831
2025-03-26 13:55:06.534,-3.1625441014243383
2025-03-26 13:55:06.544,-2.1024197596756626
2025-03-26 13:55:06.544,0.2798221373223585
2025-03-26 13:55:06.544,1.880498735576399
2025-03-26 13:55:06.544,1.9665829781109943
2025-03-26 13:55:06.544,0.935503187308098
2025-03-26 13:55:06.554,-0.4600566829821359
2025-03-26 13:55:06.554,-1.5291235472397329
2025-03-26 13:55:06.554,-1.91143116911768
2025-03-26 13:55:06.554,-1.5277006026214206
2025-03-26 13:55:06.554,-0.12444578586488338
2025-03-26 13:55:06.564,2.3700555631488562
2025-03-26 13:55:06.564,4.407639024601305
2025-03-26 13:55:06.564,3.087030607573872
2025-03-26 13:55:06.564,-2.2485694704993895
2025-03-26 13:55:06.564,-7.326922531461783
2025-03-26 13:55:06.574,-6.359159915682701
2025-03-26 13:55:06.574,1.1394210724393672
2025-03-26 13:55:06.574,8.621248296743133
2025-03-26 13:55:06.574,8.786888349978005
2025-03-26 13:55:06.574,1.0631541750087377
2025-03-26 13:55:06.582,-7.697889871031985
2025-03-26 13:55:06.582,-9.659310684851972
2025-03-26 13:55:06.582,-3.2114707167808048
2025-03-26 13:55:06.582,5.559895766107009
2025-03-26 13:55:06.593,8.601837333968092
2025-03-26 13:55:06.593,3.7010920653430617
2025-03-26 13:55:06.593,-3.518056326621877
2025-03-26 13:55:06.593,-5.841579176167718
2025-03-26 13:55:06.593,-2.1071773507805345
2025-03-26 13:55:06.593,2.387797570391965
2025-03-26 13:55:06.602,2.6182948888156456
2025-03-26 13:55:06.602,-0.6362397222160445
2025-03-26 13:55:06.602,-2.5521179668180585
2025-03-26 13:55:06.602,-0.45974148774508167
2025-03-26 13:55:06.612,3.061208926964192
2025-03-26 13:55:06.612,3.537698669178196
2025-03-26 13:55:06.612,0.07304972095468726
2025-03-26 13:55:06.612,-3.7054948304316526
2025-03-26 13:55:06.612,-4.055427759948338
2025-03-26 13:55:06.613,-1.1288870315748405
2025-03-26 13:55:06.622,2.0078364588855058
2025-03-26 13:55:06.622,3.1480487508379014
2025-03-26 13:55:06.622,2.5094865532365422
2025-03-26 13:55:06.622,1.1402555329757325
2025-03-26 13:55:06.632,-0.6743984957728776
2025-03-26 13:55:06.632,-2.87933463096341
2025-03-26 13:55:06.632,-4.325716758466557
2025-03-26 13:55:06.632,-3.0637791155062253
2025-03-26 13:55:06.632,1.4290320857026815
2025-03-26 13:55:06.642,6.433546266337895
2025-03-26 13:55:06.642,7.316573812396873
2025-03-26 13:55:06.642,1.8289108650996695
2025-03-26 13:55:06.642,-6.5950770488363775
2025-03-26 13:55:06.642,-10.723464830557333
2025-03-26 13:55:06.652,-5.962346205281012
2025-03-26 13:55:06.652,4.573542668796514
2025-03-26 13:55:06.652,11.919753178407388
2025-03-26 13:55:06.652,9.22075626225789
2025-03-26 13:55:06.652,-1.4549957167354446
2025-03-26 13:55:06.660,-10.516360099178595
2025-03-26 13:55:06.660,-9.896405860276543
2025-03-26 13:55:06.660,-0.9305425519622017
2025-03-26 13:55:06.660,7.319477255219299
2025-03-26 13:55:06.670,7.615367415117674
2025-03-26 13:55:06.670,1.4772651704336053
2025-03-26 13:55:06.670,-3.792922233085948
2025-03-26 13:55:06.670,-3.676434621466205
2025-03-26 13:55:06.670,-0.40027158399420193
2025-03-26 13:55:06.680,1.2824246867715305
2025-03-26 13:55:06.680,0.09514706093978162
2025-03-26 13:55:06.680,-1.2549637523833304
2025-03-26 13:55:06.680,-0.4092286992540163
2025-03-26 13:55:06.680,1.6980978429223983
2025-03-26 13:55:06.690,2.4477453361302426
2025-03-26 13:55:06.690,0.8187929551706378
2025-03-26 13:55:06.690,-1.6717565833611885
2025-03-26 13:55:06.690,-2.7617408756674275
2025-03-26 13:55:06.690,-1.5316543855393276
2025-03-26 13:55:06.700,1.0047840741122602
2025-03-26 13:55:06.700,2.722178535205249
2025-03-26 13:55:06.700,1.923655921735216
2025-03-26 13:55:06.700,-1.0376921702324076
2025-03-26 13:55:06.700,-3.3986723420990375
2025-03-26 13:55:06.710,-2.2500821261755064
2025-03-26 13:55:06.710,1.9917885645737352
2025-03-26 13:55:06.710,5.095046684499575
2025-03-26 13:55:06.710,3.196001804975684
2025-03-26 13:55:06.710,-2.6497690702447096
2025-03-26 13:55:06.720,-7.012763204236737
2025-03-26 13:55:06.720,-5.30373340208483
2025-03-26 13:55:06.720,1.7973872634037673
2025-03-26 13:55:06.720,8.557443717791292
2025-03-26 13:55:06.720,8.553480250700707
2025-03-26 13:55:06.728,0.3299456583427683
2025-03-26 13:55:06.728,-9.796597628213801
2025-03-26 13:55:06.728,-11.93613495530047
2025-03-26 13:55:06.728,-2.436433122183326
2025-03-26 13:55:06.738,10.471190423993995
2025-03-26 13:55:06.738,13.742693496786359
2025-03-26 13:55:06.738,3.5467428615875547
2025-03-26 13:55:06.738,-9.88491833338393
2025-03-26 13:55:06.738,-13.115970201559255
2025-03-26 13:55:06.746,-3.7143631193186524
2025-03-26 13:55:06.746,8.14937009617518
2025-03-26 13:55:06.746,11.110316556247403
2025-03-26 13:55:06.746,3.5409712059414487
2025-03-26 13:55:06.746,-6.388122397889797
2025-03-26 13:55:06.756,-9.41628890894062
2025-03-26 13:55:06.756,-3.484061312591306
2025-03-26 13:55:06.756,5.225748641232496
2025-03-26 13:55:06.756,8.506932793252712
2025-03-26 13:55:06.756,3.728079717742333
2025-03-26 13:55:06.766,-4.113430219799998
2025-03-26 13:55:06.766,-7.619927860126899
2025-03-26 13:55:06.766,-4.112942533936949
2025-03-26 13:55:06.766,2.429536219735261
2025-03-26 13:55:06.776,5.953719522085757
2025-03-26 13:55:06.776,4.103631107389271
2025-03-26 13:55:06.776,-0.4710631902089385
2025-03-26 13:55:06.776,-3.5266838761483754
2025-03-26 13:55:06.776,-3.1710412991443264
2025-03-26 13:55:06.784,-0.7781067385504702
2025-03-26 13:55:06.784,1.110844462708704
2025-03-26 13:55:06.784,1.3266178909569997
2025-03-26 13:55:06.784,0.6666387124712198
2025-03-26 13:55:06.794,0.40271657439562897
2025-03-26 13:55:06.794,0.6815445027292081
2025-03-26 13:55:06.794,0.5927253943526443
2025-03-26 13:55:06.794,-0.48782368955008537
2025-03-26 13:55:06.794,-1.9780122910926083
2025-03-26 13:55:06.794,-2.437788835377541
2025-03-26 13:55:06.804,-0.7856900963482564
2025-03-26 13:55:06.804,2.3665851629393093
2025-03-26 13:55:06.804,4.395798861376401
2025-03-26 13:55:06.804,2.6376256273211616
2025-03-26 13:55:06.814,-2.29605553590964
2025-03-26 13:55:06.814,-5.854275052566303
2025-03-26 13:55:06.814,-3.8912699188386592
2025-03-26 13:55:06.814,2.1659850075910088
2025-03-26 13:55:06.814,6.130582026198642
2025-03-26 13:55:06.822,3.869179810991445
2025-03-26 13:55:06.823,-1.9348771046866622
2025-03-26 13:55:06.823,-5.042552973171575
2025-03-26 13:55:06.823,-2.8398775270231993
2025-03-26 13:55:06.823,1.3584670826623242
2025-03-26 13:55:06.834,3.006613548791951
2025-03-26 13:55:06.834,1.4689232375165013
2025-03-26 13:55:06.834,-0.4345066851965199
2025-03-26 13:55:06.834,-0.695571845529518
2025-03-26 13:55:06.834,-0.19299577370669546
2025-03-26 13:55:06.842,-0.5233091133590686
2025-03-26 13:55:06.842,-1.3064033277871843
2025-03-26 13:55:06.842,-0.8112102300132525
2025-03-26 13:55:06.842,1.1924332387861634
2025-03-26 13:55:06.857,2.600498700015114
2025-03-26 13:55:06.857,1.5261500035532374
2025-03-26 13:55:06.857,-1.2212731796619933
2025-03-26 13:55:06.857,-2.9938603124330534
2025-03-26 13:55:06.857,-2.1394520327010307
2025-03-26 13:55:06.858,0.5716359879128108
2025-03-26 13:55:06.862,2.804493267946143
2025-03-26 13:55:06.862,2.5454098922151562
2025-03-26 13:55:06.862,-0.11549700185866463
2025-03-26 13:55:06.862,-2.6335426960370207
2025-03-26 13:55:06.872,-2.2817084349869323
2025-03-26 13:55:06.872,0.6626915724698382
2025-03-26 13:55:06.872,2.8257830641315214
2025-03-26 13:55:06.872,1.5595895886510729
2025-03-26 13:55:06.872,-1.8029175598969158
2025-03-26 13:55:06.882,-3.4134817904543833
2025-03-26 13:55:06.882,-1.3275234477575857
2025-03-26 13:55:06.882,2.405500251410204
2025-03-26 13:55:06.882,4.087634063932969
2025-03-26 13:55:06.882,2.1257562913355526
2025-03-26 13:55:06.892,-1.7223214269222267
2025-03-26 13:55:06.892,-4.252453404917687
2025-03-26 13:55:06.892,-3.5325510128537427
2025-03-26 13:55:06.892,-0.1090106697835716
2025-03-26 13:55:06.892,3.6180841300584756
2025-03-26 13:55:06.900,4.8419336249929374
2025-03-26 13:55:06.900,2.113182029648053
2025-03-26 13:55:06.901,-2.8917941796989504
2025-03-26 13:55:06.901,-5.629414362606046
2025-03-26 13:55:06.901,-2.8046042278381296
2025-03-26 13:55:06.910,3.0916527594199654
2025-03-26 13:55:06.910,5.509540051148589
2025-03-26 13:55:06.910,1.517151343855131
2025-03-26 13:55:06.910,-4.165206021297992
2025-03-26 13:55:06.910,-4.728485754410611
2025-03-26 13:55:06.920,0.5254906407076594
2025-03-26 13:55:06.920,5.596022177448294
2025-03-26 13:55:06.920,4.696253378827228
2025-03-26 13:55:06.920,-1.7404119185224642
2025-03-26 13:55:06.930,-7.494842267577194
2025-03-26 13:55:06.930,-6.291206463513553
2025-03-26 13:55:06.930,1.8880712038981033
2025-03-26 13:55:06.930,9.580589900605386
2025-03-26 13:55:06.930,8.489377316467467
2025-03-26 13:55:06.940,-1.3751777212392828
2025-03-26 13:55:06.940,-10.501417053075617
2025-03-26 13:55:06.940,-9.555808667729801
2025-03-26 13:55:06.940,0.4122452283611989
2025-03-26 13:55:06.940,9.19337532391948
2025-03-26 13:55:06.950,8.621117351302004
2025-03-26 13:55:06.950,0.685356403701496
2025-03-26 13:55:06.950,-6.000917043138917
2025-03-26 13:55:06.950,-5.952418627603204
2025-03-26 13:55:06.950,-1.3562179212505703
2025-03-26 13:55:06.960,2.2637264828327566
2025-03-26 13:55:06.960,2.5157920898825554
2025-03-26 13:55:06.960,1.2394964018762824
2025-03-26 13:55:06.960,0.6458021518940662
2025-03-26 13:55:06.960,0.5021426475891575
2025-03-26 13:55:06.968,-0.5103371708464157
2025-03-26 13:55:06.968,-2.10932334829901
2025-03-26 13:55:06.968,-2.3440159331916735
2025-03-26 13:55:06.968,-0.16157936760890207
2025-03-26 13:55:06.978,2.697759812177385
2025-03-26 13:55:06.978,3.0686805213616495
2025-03-26 13:55:06.978,-0.007326644719016201
2025-03-26 13:55:06.978,-3.467366492539229
2025-03-26 13:55:06.978,-3.1708178541188117
2025-03-26 13:55:06.988,1.0675974937465709
2025-03-26 13:55:06.988,4.644923049787919
2025-03-26 13:55:06.988,3.2829003238651993
2025-03-26 13:55:06.988,-1.9333986237008653
2025-03-26 13:55:06.988,-5.701731587158715
2025-03-26 13:55:06.998,-4.137827032799105
2025-03-26 13:55:06.998,1.5380600427223063
2025-03-26 13:55:06.998,6.32027245124748
2025-03-26 13:55:06.998,5.7501685977739285
2025-03-26 13:55:06.998,-0.15300879164564235
2025-03-26 13:55:07.007,-6.331852550316342
2025-03-26 13:55:07.007,-6.903035316806722
2025-03-26 13:55:07.007,-1.1152748738865634
2025-03-26 13:55:07.007,5.411583889373135
2025-03-26 13:55:07.007,6.438623683761723
2025-03-26 13:55:07.016,1.6402103224508744
2025-03-26 13:55:07.017,-3.6220540574302196
2025-03-26 13:55:07.017,-4.539264124750535
2025-03-26 13:55:07.017,-1.4669656995649105
2025-03-26 13:55:07.026,1.7008030526772955
2025-03-26 13:55:07.026,2.2414133476176303
2025-03-26 13:55:07.026,0.7784918477163543
2025-03-26 13:55:07.027,-0.4679596705206834
2025-03-26 13:55:07.027,-0.40098417260792185
2025-03-26 13:55:07.036,0.20662944875128564
2025-03-26 13:55:07.036,0.13319304889750613
2025-03-26 13:55:07.036,-0.6398482734389507
2025-03-26 13:55:07.036,-0.9692912653275292
2025-03-26 13:55:07.036,-0.19324522220622853
2025-03-26 13:55:07.046,0.8295613697292458
2025-03-26 13:55:07.046,0.8515980562930777
2025-03-26 13:55:07.046,0.02201416144169195
2025-03-26 13:55:07.046,-0.3384158408703098
2025-03-26 13:55:07.046,0.25357265408123686
2025-03-26 13:55:07.056,0.6434450736263049
2025-03-26 13:55:07.056,-0.25213110006993766
2025-03-26 13:55:07.056,-1.6766809450581979
2025-03-26 13:55:07.057,-1.8036041664903486
2025-03-26 13:55:07.057,0.024309427951474546
2025-03-26 13:55:07.066,2.5084923285336362
2025-03-26 13:55:07.066,3.5617525605208944
2025-03-26 13:55:07.066,1.7642843104054609
2025-03-26 13:55:07.066,-2.4494640283941775
2025-03-26 13:55:07.066,-5.978951377252996
2025-03-26 13:55:07.076,-4.685299438342255
2025-03-26 13:55:07.076,1.9174542513507857
2025-03-26 13:55:07.076,8.131363299793291
2025-03-26 13:55:07.076,7.059407773654292
2025-03-26 13:55:07.076,-1.1586564647048123
2025-03-26 13:55:07.084,-8.403950041264507
2025-03-26 13:55:07.084,-7.34543117698811
2025-03-26 13:55:07.084,0.3197754107803758
2025-03-26 13:55:07.084,6.20051864153534
2025-03-26 13:55:07.094,5.056252089974925
2025-03-26 13:55:07.094,0.013326475546987626
2025-03-26 13:55:07.094,-2.5845763384550877
2025-03-26 13:55:07.094,-1.1540407405185
2025-03-26 13:55:07.094,0.5671407040005767
2025-03-26 13:55:07.104,-0.27480720308644135
2025-03-26 13:55:07.104,-2.065415465247853
2025-03-26 13:55:07.104,-1.8819443957484612
2025-03-26 13:55:07.104,0.4284232484398086
2025-03-26 13:55:07.104,2.744850307043581
2025-03-26 13:55:07.114,3.394671996317692
2025-03-26 13:55:07.114,1.9311540688224975
2025-03-26 13:55:07.114,-1.2082636512205545
2025-03-26 13:55:07.114,-4.192279242657291
2025-03-26 13:55:07.114,-4.285638884566248
2025-03-26 13:55:07.124,-0.7529548319137047
2025-03-26 13:55:07.124,3.439148775584976
2025-03-26 13:55:07.124,4.472529038236374
2025-03-26 13:55:07.124,1.851568235129086
2025-03-26 13:55:07.124,-1.5074152823811153
2025-03-26 13:55:07.134,-2.8379811063374367
2025-03-26 13:55:07.134,-1.8652282149421868
2025-03-26 13:55:07.134,-0.015377698367119233
2025-03-26 13:55:07.134,1.2108143875729398
2025-03-26 13:55:07.134,1.0336062332920635
2025-03-26 13:55:07.144,-0.14442002172171553
2025-03-26 13:55:07.144,-0.795247542249122
2025-03-26 13:55:07.144,0.1784078085600392
2025-03-26 13:55:07.144,1.6974581159081559
2025-03-26 13:55:07.144,1.433326411005224
2025-03-26 13:55:07.154,-1.051340240257959
2025-03-26 13:55:07.154,-3.1905432745740505
2025-03-26 13:55:07.154,-2.2952189043187845
2025-03-26 13:55:07.154,1.109974067117383
2025-03-26 13:55:07.154,3.662026371362527
2025-03-26 13:55:07.162,2.701831517326156
2025-03-26 13:55:07.162,-0.915741237254328
2025-03-26 13:55:07.162,-3.5020945674124695
2025-03-26 13:55:07.162,-2.2165043532449453
2025-03-26 13:55:07.162,1.6465695145875667
2025-03-26 13:55:07.174,3.5902735821405534
2025-03-26 13:55:07.174,0.8999189283783545
2025-03-26 13:55:07.174,-3.692359934476919
2025-03-26 13:55:07.174,-4.486865216319356
2025-03-26 13:55:07.174,0.5833581419909859
2025-03-26 13:55:07.182,6.568784704263232
2025-03-26 13:55:07.182,6.090617926058654
2025-03-26 13:55:07.182,-1.9436677904054127
2025-03-26 13:55:07.182,-9.461755571332755
2025-03-26 13:55:07.192,-7.381488151497011
2025-03-26 13:55:07.192,3.264023072767463
2025-03-26 13:55:07.192,11.170495160079234
2025-03-26 13:55:07.192,7.4010608130964854
2025-03-26 13:55:07.192,-4.003670158935351
2025-03-26 13:55:07.202,-10.718762353844415
2025-03-26 13:55:07.202,-6.3194155952988185
2025-03-26 13:55:07.202,3.3656471094548417
2025-03-26 13:55:07.202,8.220040576506761
2025-03-26 13:55:07.202,4.969044099805171
2025-03-26 13:55:07.212,-1.3472885106102264
2025-03-26 13:55:07.212,-4.699602567461491
2025-03-26 13:55:07.212,-3.860225029759232
2025-03-26 13:55:07.212,-1.2133328522804203
2025-03-26 13:55:07.212,1.2539820926221976
2025-03-26 13:55:07.222,3.01700030352416
2025-03-26 13:55:07.222,3.3946668796766657
2025-03-26 13:55:07.222,1.361247657294989
2025-03-26 13:55:07.222,-2.344440009727997
2025-03-26 13:55:07.222,-4.566677723929185
2025-03-26 13:55:07.230,-2.784331943182612
2025-03-26 13:55:07.230,1.6003156046772546
2025-03-26 13:55:07.230,4.394107646106555
2025-03-26 13:55:07.230,3.163925758162471
2025-03-26 13:55:07.231,-0.39971786190717157
2025-03-26 13:55:07.240,-2.923992227349008
2025-03-26 13:55:07.240,-2.978128952724541
2025-03-26 13:55:07.240,-1.4503354879434287
2025-03-26 13:55:07.240,0.5909303296968555
2025-03-26 13:55:07.250,2.6644621760684606
2025-03-26 13:55:07.250,3.6623973667758687
2025-03-26 13:55:07.250,1.9486679759979035
2025-03-26 13:55:07.250,-2.1610824473472223
2025-03-26 13:55:07.250,-5.308974286045436
2025-03-26 13:55:07.260,-4.164664017760666
2025-03-26 13:55:07.260,0.689652870483221
2025-03-26 13:55:07.260,5.160663184252125
2025-03-26 13:55:07.260,5.765363248216855
2025-03-26 13:55:07.260,2.3479250294225373
2025-03-26 13:55:07.270,-2.7546672175593265
2025-03-26 13:55:07.270,-6.476500255293263
2025-03-26 13:55:07.270,-6.048765106885572
2025-03-26 13:55:07.270,-0.7565433296710105
2025-03-26 13:55:07.270,6.003261348151676
2025-03-26 13:55:07.278,8.297668552015454
2025-03-26 13:55:07.278,3.4596380691034936
2025-03-26 13:55:07.278,-4.2927134027904765
2025-03-26 13:55:07.278,-7.807137517914308
2025-03-26 13:55:07.288,-4.429995718866429
2025-03-26 13:55:07.288,1.8324979339760965
2025-03-26 13:55:07.288,5.3015641186153
2025-03-26 13:55:07.288,4.112402812757126
2025-03-26 13:55:07.288,0.49402588147405774
2025-03-26 13:55:07.298,-2.55338386892805
2025-03-26 13:55:07.298,-3.4630267949430436
2025-03-26 13:55:07.298,-2.008588137018364
2025-03-26 13:55:07.298,0.9535843344983531
2025-03-26 13:55:07.298,3.261255494805522
2025-03-26 13:55:07.308,2.5812337963873118
2025-03-26 13:55:07.308,-0.9060706748874082
2025-03-26 13:55:07.308,-3.701030709601729
2025-03-26 13:55:07.308,-2.4668329440302563
2025-03-26 13:55:07.308,1.7128475202913531
2025-03-26 13:55:07.316,4.167797931864682
2025-03-26 13:55:07.316,2.191853988322039
2025-03-26 13:55:07.316,-1.8523193929913484
2025-03-26 13:55:07.316,-3.8277113635446276
2025-03-26 13:55:07.317,-2.526152878946125
2025-03-26 13:55:07.326,0.25530487829843374
2025-03-26 13:55:07.326,2.6276875900990824
2025-03-26 13:55:07.326,3.590218052966334
2025-03-26 13:55:07.327,2.34211300610563
2025-03-26 13:55:07.338,-0.959501998064544
2025-03-26 13:55:07.338,-4.069586257416254
2025-03-26 13:55:07.338,-4.259396157682687
2025-03-26 13:55:07.338,-1.23079086460579
2025-03-26 13:55:07.338,2.6645733049544646
2025-03-26 13:55:07.338,4.8109552243718445
2025-03-26 13:55:07.346,3.9351540948781536
2025-03-26 13:55:07.346,0.19020362704550922
2025-03-26 13:55:07.346,-4.491894223844587
2025-03-26 13:55:07.346,-6.423134420408654
2025-03-26 13:55:07.356,-2.9517776532457765
2025-03-26 13:55:07.356,3.774019957130675
2025-03-26 13:55:07.356,7.62487893088134
2025-03-26 13:55:07.356,4.661225718082749
2025-03-26 13:55:07.356,-2.3805888886540227
2025-03-26 13:55:07.364,-6.995486832484413
2025-03-26 13:55:07.364,-5.546357904500236
2025-03-26 13:55:07.364,0.02829752545760139
2025-03-26 13:55:07.364,5.052200780504869
2025-03-26 13:55:07.374,6.047897893447005
2025-03-26 13:55:07.374,2.5611298312906667
2025-03-26 13:55:07.374,-2.8211180512766494
2025-03-26 13:55:07.374,-5.914700268839554
2025-03-26 13:55:07.374,-4.090412465562065
2025-03-26 13:55:07.384,0.9928220589966251
2025-03-26 13:55:07.384,4.631514243798389
2025-03-26 13:55:07.384,3.842818548071278
2025-03-26 13:55:07.384,0.25619481543382927
2025-03-26 13:55:07.384,-2.32681187424719
2025-03-26 13:55:07.394,-2.2805602310124025
2025-03-26 13:55:07.394,-0.967106951054709
2025-03-26 13:55:07.394,-0.005419353210422261
2025-03-26 13:55:07.395,0.5494248917212597
2025-03-26 13:55:07.395,1.148188480861545
2025-03-26 13:55:07.404,1.3670844702935396
2025-03-26 13:55:07.404,0.5335414481044555
2025-03-26 13:55:07.404,-0.9010308537147389
2025-03-26 13:55:07.404,-1.5823439004384077
2025-03-26 13:55:07.404,-0.8469493392446403
2025-03-26 13:55:07.414,0.5074172613045496
2025-03-26 13:55:07.414,1.1728041212473004
2025-03-26 13:55:07.414,0.6597667091501467
2025-03-26 13:55:07.414,-0.4031672197246182
2025-03-26 13:55:07.414,-0.9266134278375183
2025-03-26 13:55:07.424,-0.26921282357496296
2025-03-26 13:55:07.424,1.0597456821014481
2025-03-26 13:55:07.424,1.5214374503257657
2025-03-26 13:55:07.424,0.012473860947594631
2025-03-26 13:55:07.424,-2.4026568606334946
2025-03-26 13:55:07.434,-2.9312173465571347
2025-03-26 13:55:07.434,-0.17646227011797358
2025-03-26 13:55:07.434,3.4930646334019166
2025-03-26 13:55:07.434,4.021777207907831
2025-03-26 13:55:07.434,0.4819139677747737
2025-03-26 13:55:07.442,-3.4127590097381044
2025-03-26 13:55:07.442,-3.5205429850629275
2025-03-26 13:55:07.442,-0.15901148013576352
2025-03-26 13:55:07.442,2.467670311275284
2025-03-26 13:55:07.453,1.4887908306035784
2025-03-26 13:55:07.453,-1.282650027049103
2025-03-26 13:55:07.453,-1.8175342746612428
2025-03-26 13:55:07.453,0.9718556119256808
2025-03-26 13:55:07.453,3.597775362010703
2025-03-26 13:55:07.462,2.0362331127946534
2025-03-26 13:55:07.462,-2.999993685288589
2025-03-26 13:55:07.462,-5.971955792008145
2025-03-26 13:55:07.462,-2.644334214130936
2025-03-26 13:55:07.462,4.247294107292705
2025-03-26 13:55:07.472,7.263257089238344
2025-03-26 13:55:07.472,2.8162857030175377
2025-03-26 13:55:07.472,-4.331345265672069
2025-03-26 13:55:07.473,-6.6373725260393694
2025-03-26 13:55:07.473,-2.421397654275939
2025-03-26 13:55:07.482,3.13298825946815
2025-03-26 13:55:07.482,4.69300002819725
2025-03-26 13:55:07.482,2.0139952512734376
2025-03-26 13:55:07.482,-1.4787447365831907
2025-03-26 13:55:07.482,-2.943283742034424
2025-03-26 13:55:07.492,-1.9691244767038565
2025-03-26 13:55:07.492,0.27450921006309875
2025-03-26 13:55:07.492,2.178568452322931
2025-03-26 13:55:07.492,2.3251002207367515
2025-03-26 13:55:07.492,0.35229319112714785
2025-03-26 13:55:07.502,-2.236763301548995
2025-03-26 13:55:07.502,-2.8813950491632307
2025-03-26 13:55:07.502,-0.5375243289900177
2025-03-26 13:55:07.502,2.6591509012861705
2025-03-26 13:55:07.502,3.2502129013263175
2025-03-26 13:55:07.512,0.363151051858034
2025-03-26 13:55:07.512,-2.9780885041185563
2025-03-26 13:55:07.512,-3.1678969712612175
2025-03-26 13:55:07.512,-0.158173794241126
2025-03-26 13:55:07.512,2.682829693220319
2025-03-26 13:55:07.522,2.6551033682931715
2025-03-26 13:55:07.522,0.4564579929736821
2025-03-26 13:55:07.522,-1.4597654461637157
2025-03-26 13:55:07.522,-1.9334467629832588
2025-03-26 13:55:07.522,-1.4408047834684008
2025-03-26 13:55:07.532,-0.3247461391793501
2025-03-26 13:55:07.532,1.4685842149837889
2025-03-26 13:55:07.532,2.7871085751834896
2025-03-26 13:55:07.532,1.5349610246928946
2025-03-26 13:55:07.532,-2.036821382822266
2025-03-26 13:55:07.540,-3.9668520182829035
2025-03-26 13:55:07.540,-1.0510320329600755
2025-03-26 13:55:07.541,3.9172732830665313
2025-03-26 13:55:07.541,4.48633924184575
2025-03-26 13:55:07.541,-0.9964190940257573
2025-03-26 13:55:07.550,-6.14556474268032
2025-03-26 13:55:07.550,-4.122137202686741
2025-03-26 13:55:07.550,3.270935130652347
2025-03-26 13:55:07.550,7.325056906059052
2025-03-26 13:55:07.560,3.177487134976371
2025-03-26 13:55:07.560,-4.354384865112643
2025-03-26 13:55:07.560,-7.007313370888035
2025-03-26 13:55:07.560,-2.6358876297293725
2025-03-26 13:55:07.560,3.6090933702443126
2025-03-26 13:55:07.570,5.9663195031654075
2025-03-26 13:55:07.570,3.2981348759021216
2025-03-26 13:55:07.570,-1.5797953357741181
2025-03-26 13:55:07.570,-5.01261326104561
2025-03-26 13:55:07.570,-4.5996148441475215
2025-03-26 13:55:07.578,-0.4886433172659552
2025-03-26 13:55:07.578,4.139375356470791
2025-03-26 13:55:07.579,5.1544959438907005
2025-03-26 13:55:07.579,1.536916309410583
2025-03-26 13:55:07.579,-3.0641728988025525
2025-03-26 13:55:07.588,-4.086246159873556
2025-03-26 13:55:07.588,-1.1977458965157433
2025-03-26 13:55:07.588,1.6792555576376176
2025-03-26 13:55:07.588,1.5785079604339711
2025-03-26 13:55:07.598,-0.04888043219905652
2025-03-26 13:55:07.598,-0.10128797204835088
2025-03-26 13:55:07.598,1.4107987076829542
2025-03-26 13:55:07.598,1.4241866655698034
2025-03-26 13:55:07.598,-1.3877007428474646
2025-03-26 13:55:07.608,-3.9150027179373246
2025-03-26 13:55:07.608,-2.2817667226813603
2025-03-26 13:55:07.608,2.562321031023022
2025-03-26 13:55:07.608,5.159575005885705
2025-03-26 13:55:07.608,2.1839243307930656
2025-03-26 13:55:07.618,-3.106889740893221
2025-03-26 13:55:07.618,-4.747179759985797
2025-03-26 13:55:07.618,-1.3026596628542733
2025-03-26 13:55:07.618,2.8457312287693584
2025-03-26 13:55:07.618,3.232434910231928
2025-03-26 13:55:07.628,0.2606403050941807
2025-03-26 13:55:07.628,-2.2394480489353423
2025-03-26 13:55:07.628,-1.834311275670685
2025-03-26 13:55:07.628,0.4305334682427011
2025-03-26 13:55:07.628,2.016784778364663
2025-03-26 13:55:07.638,1.5419218905839607
2025-03-26 13:55:07.638,-0.5102145161675224
2025-03-26 13:55:07.638,-2.49117206733739
2025-03-26 13:55:07.638,-2.5728435499962257
2025-03-26 13:55:07.638,-0.05156265840963943
2025-03-26 13:55:07.646,3.4091592805885034
2025-03-26 13:55:07.646,4.408879530140501
2025-03-26 13:55:07.646,1.0194345612358546
2025-03-26 13:55:07.646,-4.316273363858947
2025-03-26 13:55:07.656,-6.2145987166911265
2025-03-26 13:55:07.656,-1.8578918619624547
2025-03-26 13:55:07.656,5.0745767127041885
2025-03-26 13:55:07.657,7.3088962601588525
2025-03-26 13:55:07.657,1.8182679860410766
2025-03-26 13:55:07.666,-5.92801854876205
2025-03-26 13:55:07.666,-7.325236861945494
2025-03-26 13:55:07.666,-0.5711265178668119
2025-03-26 13:55:07.666,6.7435301338027385
2025-03-26 13:55:07.666,6.362286318433594
2025-03-26 13:55:07.676,-1.00266860220187
2025-03-26 13:55:07.676,-6.939333382278078
2025-03-26 13:55:07.676,-5.274590718765871
2025-03-26 13:55:07.676,1.6786139454197841
2025-03-26 13:55:07.676,6.632636144938943
2025-03-26 13:55:07.686,4.966051577867275
2025-03-26 13:55:07.686,-1.4563876447612192
2025-03-26 13:55:07.686,-6.508232364598004
2025-03-26 13:55:07.686,-5.362083980568882
2025-03-26 13:55:07.686,1.0346092138119833
2025-03-26 13:55:07.694,6.533594373973296
2025-03-26 13:55:07.694,5.648898698097236
2025-03-26 13:55:07.695,-0.6848342924184778
2025-03-26 13:55:07.695,-5.922390737701343
2025-03-26 13:55:07.704,-4.979969077037685
2025-03-26 13:55:07.704,0.36623932564390477
2025-03-26 13:55:07.704,4.110956440852385
2025-03-26 13:55:07.704,3.158887841784219
2025-03-26 13:55:07.704,-0.0031504867257639013
2025-03-26 13:55:07.714,-1.5742770217299626
2025-03-26 13:55:07.714,-0.9873572725668074
2025-03-26 13:55:07.714,-0.16839489091146717
2025-03-26 13:55:07.714,-0.21938258443094977
2025-03-26 13:55:07.714,-0.6064675463606448
2025-03-26 13:55:07.724,-0.5962832099585788
2025-03-26 13:55:07.724,0.10095472174080254
2025-03-26 13:55:07.724,1.4444331193704434
2025-03-26 13:55:07.724,2.49869902651383
2025-03-26 13:55:07.724,1.5430966621628528
2025-03-26 13:55:07.734,-1.6776340877056077
2025-03-26 13:55:07.734,-4.360603722014208
2025-03-26 13:55:07.734,-3.1966140162402263
2025-03-26 13:55:07.734,1.3149779416054823
2025-03-26 13:55:07.735,4.749405863135337
2025-03-26 13:55:07.744,3.65566662310981
2025-03-26 13:55:07.744,-0.5530276132089805
2025-03-26 13:55:07.744,-3.4783754277420833
2025-03-26 13:55:07.744,-2.7516412122067817
2025-03-26 13:55:07.744,-0.0780395741496224
2025-03-26 13:55:07.754,1.4905698737551056
2025-03-26 13:55:07.754,1.0823092316272445
2025-03-26 13:55:07.754,0.2040854485858931
2025-03-26 13:55:07.754,0.1823544443412584
2025-03-26 13:55:07.754,0.5453311816679622
2025-03-26 13:55:07.764,0.14091058519512775
2025-03-26 13:55:07.764,-0.9670542422986688
2025-03-26 13:55:07.764,-1.4894637097415877
2025-03-26 13:55:07.764,-0.6766820798415016
2025-03-26 13:55:07.764,0.6585063773856644
2025-03-26 13:55:07.774,1.2761928349191607
2025-03-26 13:55:07.774,1.0812019581508294
2025-03-26 13:55:07.774,0.7472550753959556
2025-03-26 13:55:07.774,0.17804570002141387
2025-03-26 13:55:07.774,-1.2585864115515228
2025-03-26 13:55:07.782,-2.7667902149486414
2025-03-26 13:55:07.782,-2.122685085928758
2025-03-26 13:55:07.783,1.2033509725649785
2025-03-26 13:55:07.783,4.225193173335679
2025-03-26 13:55:07.783,3.4812411600672473
2025-03-26 13:55:07.794,-0.6090891406118294
2025-03-26 13:55:07.794,-4.053376146585412
2025-03-26 13:55:07.794,-3.8439234208024082
2025-03-26 13:55:07.794,-0.7718584111137304
2025-03-26 13:55:07.794,2.307114012380293
2025-03-26 13:55:07.802,3.4431215034069034
2025-03-26 13:55:07.802,2.3894528295929165
2025-03-26 13:55:07.802,-0.07800584122647389
2025-03-26 13:55:07.802,-2.5172848764260523
2025-03-26 13:55:07.814,-3.2113124236549266
2025-03-26 13:55:07.814,-1.4491814112111367
2025-03-26 13:55:07.814,1.401638627549045
2025-03-26 13:55:07.814,2.823320361670426
2025-03-26 13:55:07.814,1.6475410844967924
2025-03-26 13:55:07.814,-0.6489200640265191
2025-03-26 13:55:07.822,-1.6435412939894405
2025-03-26 13:55:07.822,-0.755454499334232
2025-03-26 13:55:07.822,0.3940443614413897
2025-03-26 13:55:07.822,0.3893881106692123
2025-03-26 13:55:07.832,-0.2400323945015001
2025-03-26 13:55:07.832,-0.2296186551879768
2025-03-26 13:55:07.833,0.3634936129749078
2025-03-26 13:55:07.833,0.39398720193697806
2025-03-26 13:55:07.833,-0.3548914502138341
2025-03-26 13:55:07.833,-0.5809650792749395
2025-03-26 13:55:07.842,0.596478824810618
2025-03-26 13:55:07.842,1.8462752487832428
2025-03-26 13:55:07.842,0.8784622689943817
2025-03-26 13:55:07.842,-2.2779833842545485
2025-03-26 13:55:07.852,-4.271478596206306
2025-03-26 13:55:07.852,-1.9250406851434796
2025-03-26 13:55:07.852,3.4196981516393863
2025-03-26 13:55:07.852,6.484511384952419
2025-03-26 13:55:07.852,3.675661008161597
2025-03-26 13:55:07.862,-2.757691336901579
2025-03-26 13:55:07.862,-6.939832552770022
2025-03-26 13:55:07.862,-5.222414533582889
2025-03-26 13:55:07.862,0.6248152430233413
2025-03-26 13:55:07.862,5.436204060272971
2025-03-26 13:55:07.872,5.3539047367890955
2025-03-26 13:55:07.872,1.0395857207884345
2025-03-26 13:55:07.872,-3.2318672117733875
2025-03-26 13:55:07.872,-3.771660232843969
2025-03-26 13:55:07.872,-0.9077642498177051
2025-03-26 13:55:07.882,1.8389117216488235
2025-03-26 13:55:07.882,1.7274678075524306
2025-03-26 13:55:07.882,-0.5328442027141217
2025-03-26 13:55:07.882,-2.0077515583946988
2025-03-26 13:55:07.882,-0.859502255306098
2025-03-26 13:55:07.892,1.8199881688252155
2025-03-26 13:55:07.892,3.2270079806937564
2025-03-26 13:55:07.892,1.6532745797540955
2025-03-26 13:55:07.892,-1.7985286745525475
2025-03-26 13:55:07.892,-4.119415966165516
2025-03-26 13:55:07.902,-3.1301670939039474
2025-03-26 13:55:07.902,0.4209170790910364
2025-03-26 13:55:07.902,3.4872636550337965
2025-03-26 13:55:07.902,3.6507718558775117
2025-03-26 13:55:07.902,1.3499666564511263
2025-03-26 13:55:07.912,-1.072447479182822
2025-03-26 13:55:07.912,-2.191943238660397
2025-03-26 13:55:07.912,-2.4536533107979186
2025-03-26 13:55:07.912,-2.288670424216243
2025-03-26 13:55:07.912,-0.7960260677020291
2025-03-26 13:55:07.922,2.4445830599986023
2025-03-26 13:55:07.922,5.133325224839351
2025-03-26 13:55:07.922,3.856048862405428
2025-03-26 13:55:07.922,-1.4952205075054634
2025-03-26 13:55:07.922,-6.332973534584038
2025-03-26 13:55:07.930,-5.736669341811364
2025-03-26 13:55:07.930,0.11576866262512125
2025-03-26 13:55:07.930,5.837381490384455
2025-03-26 13:55:07.930,6.191521084050571
2025-03-26 13:55:07.940,1.0768828652654792
2025-03-26 13:55:07.940,-4.647208207671613
2025-03-26 13:55:07.940,-5.7912780953278125
2025-03-26 13:55:07.940,-1.5401486136550182
2025-03-26 13:55:07.940,3.822717771370482
2025-03-26 13:55:07.950,5.003652610954934
2025-03-26 13:55:07.950,1.0640876728028223
2025-03-26 13:55:07.950,-3.5186480687842288
2025-03-26 13:55:07.950,-3.7965319923768597
2025-03-26 13:55:07.950,0.058062307837529414
2025-03-26 13:55:07.960,3.2504500768701656
2025-03-26 13:55:07.960,2.285574668002098
2025-03-26 13:55:07.960,-1.1800338773082615
2025-03-26 13:55:07.960,-2.920010451247539
2025-03-26 13:55:07.960,-1.1676820133311707
2025-03-26 13:55:07.971,1.9371838632084106
2025-03-26 13:55:07.971,3.0841996073219726
2025-03-26 13:55:07.971,1.0220901313393655
2025-03-26 13:55:07.971,-2.457203102652136
2025-03-26 13:55:07.971,-4.033705249198234
2025-03-26 13:55:07.980,-1.782998257597471
2025-03-26 13:55:07.980,2.681630329141189
2025-03-26 13:55:07.980,5.217458302069806
2025-03-26 13:55:07.980,3.0325953742989658
2025-03-26 13:55:07.980,-2.267198689058957
2025-03-26 13:55:07.988,-5.858120670455806
2025-03-26 13:55:07.989,-4.226992078350948
2025-03-26 13:55:07.989,1.3293062784890908
2025-03-26 13:55:07.989,5.7238178809630496
2025-03-26 13:55:07.998,4.843092848372948
2025-03-26 13:55:07.998,-0.4479393550294579
2025-03-26 13:55:07.998,-5.108161062968544
2025-03-26 13:55:07.998,-4.839492321932224
2025-03-26 13:55:07.998,-0.14576174245436907
2025-03-26 13:55:08.008,4.407758850728184
2025-03-26 13:55:08.008,4.6486011288340086
2025-03-26 13:55:08.008,0.5838659027900872
2025-03-26 13:55:08.008,-3.7723751143171778
2025-03-26 13:55:08.008,-4.2877107867220925
2025-03-26 13:55:08.018,-0.7732112586129448
2025-03-26 13:55:08.018,2.9346301967915474
2025-03-26 13:55:08.018,3.2220299627266593
2025-03-26 13:55:08.018,0.5178001301232352
2025-03-26 13:55:08.018,-1.7595422052440677
2025-03-26 13:55:08.028,-1.437584235519859
2025-03-26 13:55:08.028,0.3294367297317591
2025-03-26 13:55:08.028,0.9856081649375937
2025-03-26 13:55:08.028,-0.413889914684334
2025-03-26 13:55:08.028,-2.157665740336263
2025-03-26 13:55:08.038,-1.513650443719443
2025-03-26 13:55:08.038,2.01147748585112
2025-03-26 13:55:08.038,4.905144184087792
2025-03-26 13:55:08.038,2.8359871595956094
2025-03-26 13:55:08.038,-3.338897868412594
2025-03-26 13:55:08.046,-6.9359190295565325
2025-03-26 13:55:08.047,-3.232254894919889
2025-03-26 13:55:08.047,3.8327358101904894
2025-03-26 13:55:08.047,6.160090372561321
2025-03-26 13:55:08.047,1.8678007833202865
2025-03-26 13:55:08.058,-2.8513162898706543
2025-03-26 13:55:08.058,-2.639203262295112
2025-03-26 13:55:08.058,0.4057674094260314
2025-03-26 13:55:08.058,1.0523424578406024
2025-03-26 13:55:08.058,-1.2907876332583905
2025-03-26 13:55:08.066,-2.4541898760710246
2025-03-26 13:55:08.067,-0.011078498425380542
2025-03-26 13:55:08.067,3.3600659225550373
2025-03-26 13:55:08.067,3.661791529574381
2025-03-26 13:55:08.067,0.5346142867501185
2025-03-26 13:55:08.078,-2.9165111145006604
2025-03-26 13:55:08.078,-3.910370834682011
2025-03-26 13:55:08.078,-2.0833356947711694
2025-03-26 13:55:08.078,1.1939739526498165
2025-03-26 13:55:08.078,3.7075609309818165
2025-03-26 13:55:08.086,3.2250856507768164
2025-03-26 13:55:08.087,-0.32602232369524764
2025-03-26 13:55:08.087,-3.530812602681338
2025-03-26 13:55:08.087,-2.6488035858535803
2025-03-26 13:55:08.087,1.3868892448054886
2025-03-26 13:55:08.096,3.3846044865543794
2025-03-26 13:55:08.097,0.4331846095077015
2025-03-26 13:55:08.097,-3.8790339532301417
2025-03-26 13:55:08.097,-3.6151390165509834
2025-03-26 13:55:08.097,1.9589945933253619
2025-03-26 13:55:08.106,6.828938594455763
2025-03-26 13:55:08.106,4.791658158622466
2025-03-26 13:55:08.106,-3.169842026421932
2025-03-26 13:55:08.106,-9.107832229432544
2025-03-26 13:55:08.116,-6.356078512422548
2025-03-26 13:55:08.116,2.8750168154224607
2025-03-26 13:55:08.116,9.401163953087108
2025-03-26 13:55:08.116,6.888833109033924
2025-03-26 13:55:08.117,-1.5130669318502346
2025-03-26 13:55:08.126,-7.240330572727082
2025-03-26 13:55:08.126,-5.751249871048358
2025-03-26 13:55:08.126,-0.2080883233541545
2025-03-26 13:55:08.126,3.612440585308857
2025-03-26 13:55:08.126,3.6027568502709766
2025-03-26 13:55:08.136,1.641754828114342
2025-03-26 13:55:08.136,-0.1975057359893523
2025-03-26 13:55:08.136,-1.4499170089361784
2025-03-26 13:55:08.136,-2.047053911724542
2025-03-26 13:55:08.136,-1.7087602314837291
2025-03-26 13:55:08.146,-0.7096720688669963
2025-03-26 13:55:08.146,0.4883646492674281
2025-03-26 13:55:08.146,2.1557858388071884
2025-03-26 13:55:08.146,3.8703915801056272
2025-03-26 13:55:08.146,2.9184742524646405
2025-03-26 13:55:08.156,-2.465932418092425
2025-03-26 13:55:08.156,-8.065688112428424
2025-03-26 13:55:08.156,-6.326374079069409
2025-03-26 13:55:08.156,3.519796015914362
2025-03-26 13:55:08.156,11.601227016322813
2025-03-26 13:55:08.164,7.925201550710059
2025-03-26 13:55:08.164,-4.689274897891378
2025-03-26 13:55:08.164,-12.698212417207255
2025-03-26 13:55:08.164,-7.489846284250836
2025-03-26 13:55:08.174,4.753098565977865
2025-03-26 13:55:08.174,10.876234032232174
2025-03-26 13:55:08.174,5.80800727750564
2025-03-26 13:55:08.174,-3.3178734747644993
2025-03-26 13:55:08.174,-7.002981644227137
2025-03-26 13:55:08.182,-3.6349475829895175
2025-03-26 13:55:08.183,1.207801609344462
2025-03-26 13:55:08.183,2.7688320553715315
2025-03-26 13:55:08.183,1.5250790988721281
2025-03-26 13:55:08.183,0.3734428202842329
2025-03-26 13:55:08.194,0.31852867165937937
2025-03-26 13:55:08.194,0.11065384307935429
2025-03-26 13:55:08.194,-1.0854597785521127
2025-03-26 13:55:08.194,-2.054874256077556
2025-03-26 13:55:08.194,-0.9666226617530864
2025-03-26 13:55:08.202,1.7671083227937683
2025-03-26 13:55:08.202,3.0508502833857936
2025-03-26 13:55:08.203,0.7377349175775958
2025-03-26 13:55:08.203,-2.882774374114498
2025-03-26 13:55:08.203,-3.3292039429395164
2025-03-26 13:55:08.213,0.17112627106277944
2025-03-26 13:55:08.213,3.4166598751399806
2025-03-26 13:55:08.213,2.7433178142221584
2025-03-26 13:55:08.213,-0.490105379003131
2025-03-26 13:55:08.213,-2.407181178197812
2025-03-26 13:55:08.222,-1.7109266825836147
2025-03-26 13:55:08.222,-0.2716296517227916
2025-03-26 13:55:08.222,0.2995254451699427
2025-03-26 13:55:08.222,0.46982970777739597
2025-03-26 13:55:08.232,1.1287606098892222
2025-03-26 13:55:08.232,1.7561645545999751
2025-03-26 13:55:08.232,1.085045308442267
2025-03-26 13:55:08.232,-0.9802445180095168
2025-03-26 13:55:08.232,-2.834414870506473
2025-03-26 13:55:08.242,-2.6599691049198366
2025-03-26 13:55:08.242,-0.2657219796333472
2025-03-26 13:55:08.242,2.5787781941177585
2025-03-26 13:55:08.242,3.5701942858785722
2025-03-26 13:55:08.242,1.7892273140247859
2025-03-26 13:55:08.252,-1.4230084204513402
2025-03-26 13:55:08.252,-3.4111347153313467
2025-03-26 13:55:08.252,-2.4890923330512904
2025-03-26 13:55:08.252,0.3549070404004438
2025-03-26 13:55:08.252,2.3510801334355453
2025-03-26 13:55:08.262,1.8819435994081515
2025-03-26 13:55:08.262,0.09000787795969314
2025-03-26 13:55:08.262,-0.8893505572537275
2025-03-26 13:55:08.262,-0.6300846746508972
2025-03-26 13:55:08.262,-0.3528980062850359
2025-03-26 13:55:08.272,-0.5488737490615901
2025-03-26 13:55:08.272,-0.18798338187330882
2025-03-26 13:55:08.272,1.1593074638421628
2025-03-26 13:55:08.272,1.7886019372766628
2025-03-26 13:55:08.272,0.007354430580919766
2025-03-26 13:55:08.282,-2.665240006998635
2025-03-26 13:55:08.282,-2.5388547911148143
2025-03-26 13:55:08.282,1.1776075705246378
2025-03-26 13:55:08.282,4.211318402238313
2025-03-26 13:55:08.282,2.208989352181543
2025-03-26 13:55:08.292,-2.9781601637173254
2025-03-26 13:55:08.292,-4.808704449499365
2025-03-26 13:55:08.292,-0.5227114654482289
2025-03-26 13:55:08.292,4.6153326492553495
2025-03-26 13:55:08.292,3.848091490622369
2025-03-26 13:55:08.300,-1.9522624337078152
2025-03-26 13:55:08.301,-5.147994500805098
2025-03-26 13:55:08.301,-1.5000225594500824
2025-03-26 13:55:08.301,4.100789773251993
2025-03-26 13:55:08.310,4.2300285481771125
2025-03-26 13:55:08.310,-1.1877978327587178
2025-03-26 13:55:08.310,-5.043440713741559
2025-03-26 13:55:08.310,-2.5468808288866556
2025-03-26 13:55:08.310,2.921151611646724
2025-03-26 13:55:08.320,4.689663945968604
2025-03-26 13:55:08.321,1.0813162792200723
2025-03-26 13:55:08.321,-3.329159723362537
2025-03-26 13:55:08.321,-3.7200534626899024
2025-03-26 13:55:08.321,-0.20498054010483535
2025-03-26 13:55:08.330,3.1138878189129926
2025-03-26 13:55:08.330,2.9008621547327422
2025-03-26 13:55:08.330,-0.2512446886151149
2025-03-26 13:55:08.330,-2.9020162946220704
2025-03-26 13:55:08.330,-2.438905430841607
2025-03-26 13:55:08.340,0.4330622008558267
2025-03-26 13:55:08.340,2.7098584816522413
2025-03-26 13:55:08.340,2.2623485449812915
2025-03-26 13:55:08.340,-0.25950373793755166
2025-03-26 13:55:08.341,-2.4408776857356345
2025-03-26 13:55:08.350,-2.475311679185372
2025-03-26 13:55:08.350,-0.47427833126471297
2025-03-26 13:55:08.350,1.9722580700282268
2025-03-26 13:55:08.350,3.0372217305321207
2025-03-26 13:55:08.350,1.7897356286400266
2025-03-26 13:55:08.360,-1.0745704729534373
2025-03-26 13:55:08.360,-3.3614923791194378
2025-03-26 13:55:08.360,-2.963796589958905
2025-03-26 13:55:08.360,-0.07301667156257141
2025-03-26 13:55:08.360,2.579157375287961
2025-03-26 13:55:08.370,2.6173520685519938
2025-03-26 13:55:08.370,0.852167339511804
2025-03-26 13:55:08.370,-0.14647319894569202
2025-03-26 13:55:08.370,-0.08393226775239175
2025-03-26 13:55:08.370,-1.1548267723375563
2025-03-26 13:55:08.380,-3.4369596716043698
2025-03-26 13:55:08.380,-3.215831653353328
2025-03-26 13:55:08.380,1.4264444582869853
2025-03-26 13:55:08.380,5.98288016090419
2025-03-26 13:55:08.380,4.643896947039364
2025-03-26 13:55:08.390,-1.2842886663619761
2025-03-26 13:55:08.390,-4.829471754674307
2025-03-26 13:55:08.390,-3.055570464005293
2025-03-26 13:55:08.390,-0.22058937013600263
2025-03-26 13:55:08.390,-0.06846727587203483
2025-03-26 13:55:08.400,-0.21886350128750842
2025-03-26 13:55:08.400,2.521738844088936
2025-03-26 13:55:08.400,5.374502144537662
2025-03-26 13:55:08.400,3.068651435343061
2025-03-26 13:55:08.400,-3.57862874982443
2025-03-26 13:55:08.408,-7.554008164221021
2025-03-26 13:55:08.409,-4.5206338546868015
2025-03-26 13:55:08.409,2.1020208873844406
2025-03-26 13:55:08.409,6.125451308336124
2025-03-26 13:55:08.418,5.339489654077007
2025-03-26 13:55:08.418,1.422768254083373
2025-03-26 13:55:08.418,-3.6020732167046576
2025-03-26 13:55:08.419,-7.314794292498782
2025-03-26 13:55:08.419,-5.6388100760044395
2025-03-26 13:55:08.428,2.930646832522816
2025-03-26 13:55:08.428,11.550976757062786
2025-03-26 13:55:08.428,9.377712566946826
2025-03-26 13:55:08.428,-4.721210286996995
2025-03-26 13:55:08.428,-16.808665371601908
2025-03-26 13:55:08.437,-11.94922289150444
2025-03-26 13:55:08.437,6.964347789316045
2025-03-26 13:55:08.437,19.9860750326182
2025-03-26 13:55:08.437,12.295873322489753
2025-03-26 13:55:08.449,-7.942866955487991
2025-03-26 13:55:08.449,-18.440711413339447
2025-03-26 13:55:08.449,-8.740283295212585
2025-03-26 13:55:08.449,8.01521006743629
2025-03-26 13:55:08.449,12.010643406114092
2025-03-26 13:55:08.456,1.1161741556743106
2025-03-26 13:55:08.456,-8.093288014456984
2025-03-26 13:55:08.456,-3.2344490847703575
2025-03-26 13:55:08.456,7.7088588219177385
2025-03-26 13:55:08.456,8.122025732885351
2025-03-26 13:55:08.464,-4.163174922781843
2025-03-26 13:55:08.465,-13.728347847358888
2025-03-26 13:55:08.465,-7.829545722643019
2025-03-26 13:55:08.465,7.403060112580345
2025-03-26 13:55:08.474,14.97948936452648
2025-03-26 13:55:08.474,7.297077951413941
2025-03-26 13:55:08.474,-6.441671484949434
2025-03-26 13:55:08.474,-12.114802690764812
2025-03-26 13:55:08.474,-5.949610889872644
2025-03-26 13:55:08.482,3.5099986180281917
2025-03-26 13:55:08.483,6.632413376132217
2025-03-26 13:55:08.483,3.0555840592546404
2025-03-26 13:55:08.483,-0.33492951503642676
2025-03-26 13:55:08.483,0.12698162264609641
2025-03-26 13:55:08.493,0.4073607425496126
2025-03-26 13:55:08.493,-3.559386276012685
2025-03-26 13:55:08.493,-7.356798684473191
2025-03-26 13:55:08.493,-2.613746479289238
2025-03-26 13:55:08.493,9.547377113821806
2025-03-26 13:55:08.502,15.26112291661298
2025-03-26 13:55:08.502,3.4229079701442373
2025-03-26 13:55:08.502,-17.206595201769833
2025-03-26 13:55:08.502,-23.504613661671122
2025-03-26 13:55:08.510,-4.389653841413625
2025-03-26 13:55:08.511,22.855261828979486
2025-03-26 13:55:08.511,29.278844646088032
2025-03-26 13:55:08.511,6.764693083422243
2025-03-26 13:55:08.520,-22.142763084590428
2025-03-26 13:55:08.520,-28.913616744891
2025-03-26 13:55:08.520,-9.245140461309404
2025-03-26 13:55:08.520,14.76208497631788
2025-03-26 13:55:08.520,20.35067876897349
2025-03-26 13:55:08.530,7.5158028365628695
2025-03-26 13:55:08.530,-4.937821322924186
2025-03-26 13:55:08.530,-3.998707004318388
2025-03-26 13:55:08.530,2.2655197476271507
2025-03-26 13:55:08.530,-2.2725549444495754
2025-03-26 13:55:08.538,-16.537336376577525
2025-03-26 13:55:08.539,-19.093897238480036
2025-03-26 13:55:08.539,4.093404279094084
2025-03-26 13:55:08.539,34.73161766167809
2025-03-26 13:55:08.546,36.85346389598537
2025-03-26 13:55:08.546,-0.4916766227481577
2025-03-26 13:55:08.547,-44.21355769813432
2025-03-26 13:55:08.547,-49.1258359650306
2025-03-26 13:55:08.547,-6.779604172888988
2025-03-26 13:55:08.556,43.60173335214055
2025-03-26 13:55:08.556,53.721014500906705
2025-03-26 13:55:08.556,13.830655535939984
2025-03-26 13:55:08.556,-37.56313945686633
2025-03-26 13:55:08.564,-51.09093729155423
2025-03-26 13:55:08.564,-15.467844535926982
2025-03-26 13:55:08.565,31.18739141966273
2025-03-26 13:55:08.565,41.75039315460568
2025-03-26 13:55:08.574,10.044088521590627
2025-03-26 13:55:08.574,-25.67439070457606
2025-03-26 13:55:08.574,-28.45689074919288
2025-03-26 13:55:08.574,-2.0149785784256533
2025-03-26 13:55:08.574,20.385081659858756
2025-03-26 13:55:08.582,17.117684945353982
2025-03-26 13:55:08.582,-2.2414725814298566
2025-03-26 13:55:08.582,-15.114246311757316
2025-03-26 13:55:08.582,-11.836347975757308
2025-03-26 13:55:08.593,0.04246257060759728
2025-03-26 13:55:08.593,9.177609986674772
2025-03-26 13:55:08.593,10.838188658006269
2025-03-26 13:55:08.593,6.244356810524325
2025-03-26 13:55:08.593,-1.6368709341255123
2025-03-26 13:55:08.601,-9.217013067179309
2025-03-26 13:55:08.601,-12.101882010211064
2025-03-26 13:55:08.601,-7.041552976626363
2025-03-26 13:55:08.601,4.5597257540678005
2025-03-26 13:55:08.610,15.09161404215331
2025-03-26 13:55:08.610,14.872018989507458
2025-03-26 13:55:08.610,1.390446578275673
2025-03-26 13:55:08.610,-15.202676784035063
2025-03-26 13:55:08.610,-19.626373192016214
2025-03-26 13:55:08.619,-6.7429027679243845
2025-03-26 13:55:08.619,12.413822138246672
2025-03-26 13:55:08.619,20.95852707216925
2025-03-26 13:55:08.619,11.494434542780484
2025-03-26 13:55:08.628,-7.834632069820643
2025-03-26 13:55:08.628,-20.1965032686507
2025-03-26 13:55:08.628,-14.310168095124054
2025-03-26 13:55:08.628,4.566411007524251
2025-03-26 13:55:08.628,18.20610010753738
2025-03-26 13:55:08.636,13.182150072133261
2025-03-26 13:55:08.637,-4.739076421321821
2025-03-26 13:55:08.637,-16.37235113972589
2025-03-26 13:55:08.637,-9.522374267083816
