timestamp,bandpass_and_notch
2025-03-30 14:47:03.836,0.11119626497021445
2025-03-30 14:47:03.837,-33.544600188018045
2025-03-30 14:47:03.837,-34.07879381673857
2025-03-30 14:47:03.837,-13.8115493362263
2025-03-30 14:47:03.837,-3.056023194397431
2025-03-30 14:47:04.838,-5.8350798738399465
2025-03-30 14:47:05.405,-6.791118720630134
2025-03-30 14:47:05.405,-0.4459825632445187
2025-03-30 14:47:05.405,3.6142199734550164
2025-03-30 14:47:05.405,-4.205204623517839
2025-03-30 14:47:05.417,-18.05942216996767
2025-03-30 14:47:05.417,-16.16863954258489
2025-03-30 14:47:05.417,14.60264857720098
2025-03-30 14:47:05.417,51.71560432347304
2025-03-30 14:47:05.417,51.72601506414433
2025-03-30 14:47:05.422,2.4716593147938006
2025-03-30 14:47:05.423,-52.95718956379776
2025-03-30 14:47:05.423,-59.20187695443367
2025-03-30 14:47:05.423,-10.282504028933094
2025-03-30 14:47:05.431,44.35629655116804
2025-03-30 14:47:05.431,54.47487265887584
2025-03-30 14:47:05.431,18.759906728756356
2025-03-30 14:47:05.431,-22.668388734930264
2025-03-30 14:47:05.431,-35.170221208293015
2025-03-30 14:47:05.440,-19.80735633289175
2025-03-30 14:47:05.440,-0.5237792314027934
2025-03-30 14:47:05.440,6.838335575027383
2025-03-30 14:47:05.441,6.189113965500058
2025-03-30 14:47:05.450,6.919489456846186
2025-03-30 14:47:05.450,8.243728903281806
2025-03-30 14:47:05.450,2.758205677947983
2025-03-30 14:47:05.450,-8.970812673009508
2025-03-30 14:47:05.450,-15.571824090397039
2025-03-30 14:47:05.460,-8.739157077866897
2025-03-30 14:47:05.460,5.42769695976985
2025-03-30 14:47:05.460,13.323185095139682
2025-03-30 14:47:05.460,9.50710733163739
2025-03-30 14:47:05.460,0.9390572838712139
2025-03-30 14:47:05.468,-3.5463279015251983
2025-03-30 14:47:05.468,-3.0728413081062
2025-03-30 14:47:05.468,-2.384470972040661
2025-03-30 14:47:05.468,-3.402997107399942
2025-03-30 14:47:05.478,-2.9750993589617702
2025-03-30 14:47:05.478,1.446020393690325
2025-03-30 14:47:05.478,7.01330121852637
2025-03-30 14:47:05.478,8.01481527839027
2025-03-30 14:47:05.478,2.376460656676808
2025-03-30 14:47:05.488,-5.591132491492803
2025-03-30 14:47:05.488,-9.205454913389932
2025-03-30 14:47:05.488,-5.809451630970303
2025-03-30 14:47:05.488,1.0578333533093336
2025-03-30 14:47:05.488,5.564519936822995
2025-03-30 14:47:05.498,5.038789218746903
2025-03-30 14:47:05.498,1.465192234202358
2025-03-30 14:47:05.498,-1.560614419861262
2025-03-30 14:47:05.498,-2.4101208763709066
2025-03-30 14:47:05.498,-1.9688180383906677
2025-03-30 14:47:05.508,-1.4441226025552445
2025-03-30 14:47:05.508,-0.5866202278272786
2025-03-30 14:47:05.508,1.3525392696410754
2025-03-30 14:47:05.508,3.369607288343314
2025-03-30 14:47:05.508,2.8853900650116024
2025-03-30 14:47:05.518,-0.9337180460350631
2025-03-30 14:47:05.518,-4.956455958099589
2025-03-30 14:47:05.518,-4.696384684409278
2025-03-30 14:47:05.518,0.6532936798211368
2025-03-30 14:47:05.518,6.6152798347301704
2025-03-30 14:47:05.526,7.359763377132842
2025-03-30 14:47:05.527,1.3657258809535344
2025-03-30 14:47:05.527,-6.625826138575149
2025-03-30 14:47:05.527,-9.471928451236334
2025-03-30 14:47:05.527,-4.243030322103643
2025-03-30 14:47:05.537,4.5829509696898185
2025-03-30 14:47:05.537,9.094833950710314
2025-03-30 14:47:05.537,5.636563593439923
2025-03-30 14:47:05.537,-1.81291801458407
2025-03-30 14:47:05.537,-6.196966701182904
2025-03-30 14:47:05.548,-4.585082243334355
2025-03-30 14:47:05.548,-0.12063943384949599
2025-03-30 14:47:05.548,2.5134574938981453
2025-03-30 14:47:05.548,2.0244010812685227
2025-03-30 14:47:05.548,0.48158205001226606
2025-03-30 14:47:05.556,-0.20796676759172067
2025-03-30 14:47:05.556,-0.17417464774728797
2025-03-30 14:47:05.556,-0.21980862715200428
2025-03-30 14:47:05.556,-0.31634242804561524
2025-03-30 14:47:05.566,-0.11112682325227631
2025-03-30 14:47:05.567,0.18966449509163236
2025-03-30 14:47:05.567,0.21510496695462195
2025-03-30 14:47:05.567,0.020790185904388855
2025-03-30 14:47:05.567,-0.22579443134187763
2025-03-30 14:47:05.567,-0.5085727725215841
2025-03-30 14:47:05.576,-0.5481455695227031
2025-03-30 14:47:05.576,0.10213366609722555
2025-03-30 14:47:05.576,1.0888711814719938
2025-03-30 14:47:05.576,1.2264994939440832
2025-03-30 14:47:05.586,0.10220884849653113
2025-03-30 14:47:05.587,-1.0554777870356031
2025-03-30 14:47:05.587,-0.9606059971652829
2025-03-30 14:47:05.587,-0.06878123967367057
2025-03-30 14:47:05.587,0.2239635401896699
2025-03-30 14:47:05.596,-0.27947892094237
2025-03-30 14:47:05.596,-0.41591651500829313
2025-03-30 14:47:05.596,0.4281406398826332
2025-03-30 14:47:05.596,1.3453070548797428
2025-03-30 14:47:05.596,1.1738820263945842
2025-03-30 14:47:05.606,-0.04267944411992736
2025-03-30 14:47:05.606,-1.321936204759933
2025-03-30 14:47:05.606,-1.8690925248534318
2025-03-30 14:47:05.606,-1.3484446202203726
2025-03-30 14:47:05.606,0.35011212647751233
2025-03-30 14:47:05.614,2.5014027155488527
2025-03-30 14:47:05.614,3.036436673261165
2025-03-30 14:47:05.615,0.43153262838535994
2025-03-30 14:47:05.615,-3.3677717124098643
2025-03-30 14:47:05.615,-3.9414400775175427
2025-03-30 14:47:05.625,0.08729403706909442
2025-03-30 14:47:05.625,4.218649516268839
2025-03-30 14:47:05.625,3.2603037494463467
2025-03-30 14:47:05.625,-1.5988404037566508
2025-03-30 14:47:05.625,-4.048989536328693
2025-03-30 14:47:05.634,-1.181556553031199
2025-03-30 14:47:05.634,2.6530887318812217
2025-03-30 14:47:05.635,2.20791461781077
2025-03-30 14:47:05.635,-1.309741106932169
2025-03-30 14:47:05.644,-2.3940374986925392
2025-03-30 14:47:05.644,0.6156424295302311
2025-03-30 14:47:05.644,3.260715531441779
2025-03-30 14:47:05.644,1.4099236944656255
2025-03-30 14:47:05.645,-2.9515705495264126
2025-03-30 14:47:05.654,-4.286799568510879
2025-03-30 14:47:05.654,-0.5951727778732777
2025-03-30 14:47:05.654,4.06106841341339
2025-03-30 14:47:05.654,4.367816872804781
2025-03-30 14:47:05.654,-0.062109143330020045
2025-03-30 14:47:05.664,-4.285813934318653
2025-03-30 14:47:05.664,-3.6861185215840178
2025-03-30 14:47:05.664,0.867105595671749
2025-03-30 14:47:05.665,4.165282270856356
2025-03-30 14:47:05.665,2.673901622568343
2025-03-30 14:47:05.674,-1.5729682894105328
2025-03-30 14:47:05.674,-3.6601640955418775
2025-03-30 14:47:05.674,-1.634762285434827
2025-03-30 14:47:05.674,1.6622491213061967
2025-03-30 14:47:05.675,2.536778766916035
2025-03-30 14:47:05.684,0.6413161771661948
2025-03-30 14:47:05.684,-1.39093546561444
2025-03-30 14:47:05.684,-1.3114303582101683
2025-03-30 14:47:05.684,0.5525989629029542
2025-03-30 14:47:05.685,1.8498614025626396
2025-03-30 14:47:05.694,0.6340709234493422
2025-03-30 14:47:05.694,-2.22575942583195
2025-03-30 14:47:05.694,-3.3352816545102417
2025-03-30 14:47:05.694,-0.5349999278400764
2025-03-30 14:47:05.694,3.8228732623457735
2025-03-30 14:47:05.704,4.851010323294143
2025-03-30 14:47:05.704,0.8316717853756959
2025-03-30 14:47:05.704,-4.333059121832659
2025-03-30 14:47:05.704,-5.314680238038627
2025-03-30 14:47:05.704,-1.271604872893196
2025-03-30 14:47:05.714,3.4782153312073563
2025-03-30 14:47:05.714,4.427800783851616
2025-03-30 14:47:05.714,1.4488221612197658
2025-03-30 14:47:05.714,-1.8841401597931287
2025-03-30 14:47:05.714,-2.62456071297112
2025-03-30 14:47:05.724,-1.1497674013026384
2025-03-30 14:47:05.724,0.3129647362523379
2025-03-30 14:47:05.724,0.6725812188800075
2025-03-30 14:47:05.724,0.617166828153809
2025-03-30 14:47:05.724,0.8087352353315996
2025-03-30 14:47:05.734,0.7377941479785484
2025-03-30 14:47:05.734,-0.19518504058730526
2025-03-30 14:47:05.734,-1.3160426759691457
2025-03-30 14:47:05.734,-1.2952769436141927
2025-03-30 14:47:05.734,-0.0068472033808264915
2025-03-30 14:47:05.744,1.081386829422132
2025-03-30 14:47:05.744,0.8353864117901351
2025-03-30 14:47:05.744,0.07955751602951182
2025-03-30 14:47:05.744,0.22505981043149761
2025-03-30 14:47:05.744,0.7008464726397281
2025-03-30 14:47:05.754,-0.3720003506233484
2025-03-30 14:47:05.754,-2.5636030069507663
2025-03-30 14:47:05.754,-2.566255929939475
2025-03-30 14:47:05.754,1.0986895148278009
2025-03-30 14:47:05.754,4.754592519339913
2025-03-30 14:47:05.764,3.588385129897013
2025-03-30 14:47:05.764,-1.7938158113696256
2025-03-30 14:47:05.764,-5.528316399010729
2025-03-30 14:47:05.764,-3.5029051117799765
2025-03-30 14:47:05.764,1.894151198149944
2025-03-30 14:47:05.772,4.9021479811810185
2025-03-30 14:47:05.772,2.8735872862428513
2025-03-30 14:47:05.773,-1.4828307451472484
2025-03-30 14:47:05.773,-3.6537258511700825
2025-03-30 14:47:05.773,-2.0097187195744177
2025-03-30 14:47:05.784,1.0917656864513534
2025-03-30 14:47:05.784,2.2658048473147825
2025-03-30 14:47:05.784,0.7404440621573956
2025-03-30 14:47:05.784,-1.1439650853101682
2025-03-30 14:47:05.784,-0.9762188780680321
2025-03-30 14:47:05.792,0.8255225586217801
2025-03-30 14:47:05.793,1.725938349875394
2025-03-30 14:47:05.793,0.3034259689602556
2025-03-30 14:47:05.793,-2.03385209283542
2025-03-30 14:47:05.793,-2.6551819668240126
2025-03-30 14:47:05.804,-0.5944684524134407
2025-03-30 14:47:05.804,2.3362857031178055
2025-03-30 14:47:05.804,3.294506669779758
2025-03-30 14:47:05.804,1.3199698204531973
2025-03-30 14:47:05.804,-1.6371798471323187
2025-03-30 14:47:05.812,-2.8261700585124276
2025-03-30 14:47:05.812,-1.5830693102322413
2025-03-30 14:47:05.812,0.3633084143259951
2025-03-30 14:47:05.812,1.232047533239875
2025-03-30 14:47:05.822,0.9747298047929128
2025-03-30 14:47:05.822,0.5497273612580222
2025-03-30 14:47:05.822,0.3785144590323581
2025-03-30 14:47:05.823,0.19964606930669845
2025-03-30 14:47:05.823,-0.18231843744756274
2025-03-30 14:47:05.832,-0.7153672590307336
2025-03-30 14:47:05.832,-1.2271664714152475
2025-03-30 14:47:05.832,-1.2780435757219402
2025-03-30 14:47:05.832,-0.42940435176706215
2025-03-30 14:47:05.832,1.0473798312045304
2025-03-30 14:47:05.842,2.2682283028168078
2025-03-30 14:47:05.842,2.473646234782286
2025-03-30 14:47:05.842,1.1419920869637865
2025-03-30 14:47:05.842,-1.7938974408404564
2025-03-30 14:47:05.842,-4.680578372374895
2025-03-30 14:47:05.852,-4.303126444413167
2025-03-30 14:47:05.852,0.49934558207133617
2025-03-30 14:47:05.852,5.887878258014293
2025-03-30 14:47:05.852,6.1963490528318275
2025-03-30 14:47:05.852,0.5951203119673083
2025-03-30 14:47:05.862,-5.323620243749595
2025-03-30 14:47:05.862,-5.69428152690004
2025-03-30 14:47:05.862,-0.8750796999794317
2025-03-30 14:47:05.862,3.5236867409294588
2025-03-30 14:47:05.862,3.396330670558549
2025-03-30 14:47:05.872,0.23794298357596527
2025-03-30 14:47:05.872,-1.70270591814535
2025-03-30 14:47:05.872,-0.7593745098786917
2025-03-30 14:47:05.872,0.8896470964529546
2025-03-30 14:47:05.872,0.6779357604094323
2025-03-30 14:47:05.880,-1.0723029025220643
2025-03-30 14:47:05.881,-1.8715039921673635
2025-03-30 14:47:05.881,-0.4019048893142619
2025-03-30 14:47:05.881,1.784819495612661
2025-03-30 14:47:05.881,2.1831124474131824
2025-03-30 14:47:05.890,0.3899982375990565
2025-03-30 14:47:05.890,-1.5076293292288827
2025-03-30 14:47:05.891,-1.6026566378300522
2025-03-30 14:47:05.891,-0.35572586436419806
2025-03-30 14:47:05.900,0.46885077725417423
2025-03-30 14:47:05.900,0.36556501798754004
2025-03-30 14:47:05.900,0.40343723805431203
2025-03-30 14:47:05.900,0.9997537437062464
2025-03-30 14:47:05.901,0.8201970096524824
2025-03-30 14:47:05.910,-1.0362499417693454
2025-03-30 14:47:05.910,-2.6675498408899223
2025-03-30 14:47:05.911,-1.1643158223185195
2025-03-30 14:47:05.911,2.840439273493917
2025-03-30 14:47:05.911,4.513162017604443
2025-03-30 14:47:05.920,0.5772711135004638
2025-03-30 14:47:05.921,-5.434539853777504
2025-03-30 14:47:05.921,-6.33727855594421
2025-03-30 14:47:05.921,-0.015775798539185648
2025-03-30 14:47:05.921,7.266483322934694
2025-03-30 14:47:05.930,7.619292242235491
2025-03-30 14:47:05.930,0.4013844150101325
2025-03-30 14:47:05.930,-7.137021294770356
2025-03-30 14:47:05.930,-7.762577032886342
2025-03-30 14:47:05.930,-1.5229946566731198
2025-03-30 14:47:05.940,5.157533617572076
2025-03-30 14:47:05.940,6.508771180463769
2025-03-30 14:47:05.940,2.530730589105118
2025-03-30 14:47:05.940,-2.363492604952186
2025-03-30 14:47:05.940,-4.271662446944081
2025-03-30 14:47:05.950,-2.7653330467367367
2025-03-30 14:47:05.950,0.022901137408860447
2025-03-30 14:47:05.950,1.9259218993127556
2025-03-30 14:47:05.950,2.1563582532107444
2025-03-30 14:47:05.951,1.0973355920536263
2025-03-30 14:47:05.960,-0.3821498059943129
2025-03-30 14:47:05.960,-1.3170441241019049
2025-03-30 14:47:05.960,-1.0584338071458732
2025-03-30 14:47:05.960,0.11633765145992332
2025-03-30 14:47:05.960,0.9854740960967353
2025-03-30 14:47:05.970,0.5145153621412348
2025-03-30 14:47:05.970,-0.8522747559551186
2025-03-30 14:47:05.970,-1.4067254950904768
2025-03-30 14:47:05.970,-0.08785630176275175
2025-03-30 14:47:05.971,1.9184088054416597
2025-03-30 14:47:05.980,2.1336546822711604
2025-03-30 14:47:05.980,-0.22345957083313744
2025-03-30 14:47:05.980,-2.7556828827596633
2025-03-30 14:47:05.980,-2.3739895323472626
2025-03-30 14:47:05.980,0.7854787579201676
2025-03-30 14:47:05.990,3.111410953043819
2025-03-30 14:47:05.990,1.7911964455727176
2025-03-30 14:47:05.990,-1.6116593747959302
2025-03-30 14:47:05.990,-2.9963374279747015
2025-03-30 14:47:05.990,-0.7801340973582949
2025-03-30 14:47:06.000,2.2357905191540732
2025-03-30 14:47:06.000,2.472972549735258
2025-03-30 14:47:06.000,-0.04147982193248151
2025-03-30 14:47:06.000,-2.0470581098309384
2025-03-30 14:47:06.000,-1.4646204944270949
2025-03-30 14:47:06.010,0.16162757525814445
2025-03-30 14:47:06.010,0.4635130347969667
2025-03-30 14:47:06.010,-0.025919208852064377
2025-03-30 14:47:06.011,0.852081425879453
2025-03-30 14:47:06.011,2.4725686207812063
2025-03-30 14:47:06.020,1.4736551144962544
2025-03-30 14:47:06.020,-2.7085111093502072
2025-03-30 14:47:06.020,-5.373203762239031
2025-03-30 14:47:06.020,-2.2577973587203095
2025-03-30 14:47:06.020,4.027846784353072
2025-03-30 14:47:06.030,6.450184979717236
2025-03-30 14:47:06.030,2.225732814049134
2025-03-30 14:47:06.030,-3.7438993807678056
2025-03-30 14:47:06.030,-5.049575899125799
2025-03-30 14:47:06.030,-1.3456461729179914
2025-03-30 14:47:06.040,2.1497349798017344
2025-03-30 14:47:06.040,1.8340502900368834
2025-03-30 14:47:06.040,-0.18378909838628105
2025-03-30 14:47:06.040,-0.09402148003368262
2025-03-30 14:47:06.040,1.7105290272240952
2025-03-30 14:47:06.050,1.4453066900079914
2025-03-30 14:47:06.050,-1.8225983134651573
2025-03-30 14:47:06.050,-3.9737044850488235
2025-03-30 14:47:06.050,-1.474146218486027
2025-03-30 14:47:06.050,3.1218218844601604
2025-03-30 14:47:06.059,4.161442366610979
2025-03-30 14:47:06.059,0.4655761098891669
2025-03-30 14:47:06.059,-3.264688046755403
2025-03-30 14:47:06.059,-2.906879149637164
2025-03-30 14:47:06.059,0.2159303174722207
2025-03-30 14:47:06.070,2.1787785789862175
2025-03-30 14:47:06.070,1.6794106554080617
2025-03-30 14:47:06.070,0.3815363351096439
2025-03-30 14:47:06.070,-0.45525249996792166
2025-03-30 14:47:06.070,-1.2292862039380779
2025-03-30 14:47:06.079,-1.9754470952816316
2025-03-30 14:47:06.079,-1.2807437616789548
2025-03-30 14:47:06.079,1.426599667063765
2025-03-30 14:47:06.079,3.676703919324808
2025-03-30 14:47:06.079,2.283822466930811
2025-03-30 14:47:06.088,-1.9709941664743935
2025-03-30 14:47:06.089,-4.310667271577872
2025-03-30 14:47:06.089,-1.8570408272318686
2025-03-30 14:47:06.089,2.3539307329547317
2025-03-30 14:47:06.098,3.224598972425659
2025-03-30 14:47:06.098,0.23718352586706798
2025-03-30 14:47:06.098,-2.2520410138936424
2025-03-30 14:47:06.099,-1.1712468859517662
2025-03-30 14:47:06.099,1.4297920605648098
2025-03-30 14:47:06.108,1.7883303511276825
2025-03-30 14:47:06.108,-0.34177027946629557
2025-03-30 14:47:06.108,-1.9026129752334824
2025-03-30 14:47:06.108,-1.0928596838109432
2025-03-30 14:47:06.109,0.531449487839437
2025-03-30 14:47:06.119,0.8088464571424743
2025-03-30 14:47:06.119,0.0318809259668478
2025-03-30 14:47:06.119,0.05241135542413279
2025-03-30 14:47:06.119,1.1529616728774854
2025-03-30 14:47:06.119,1.403685297340604
2025-03-30 14:47:06.128,-0.46443103317908624
2025-03-30 14:47:06.128,-2.756824211088819
2025-03-30 14:47:06.128,-2.6215226425646967
2025-03-30 14:47:06.128,0.2182984317386354
2025-03-30 14:47:06.128,2.918067435920972
2025-03-30 14:47:06.138,2.946001992949178
2025-03-30 14:47:06.138,0.786686961437576
2025-03-30 14:47:06.138,-1.3956523155631357
2025-03-30 14:47:06.138,-2.4397357032025577
2025-03-30 14:47:06.138,-2.32926432645628
2025-03-30 14:47:06.148,-0.8927675794253974
2025-03-30 14:47:06.148,1.681814404072505
2025-03-30 14:47:06.149,3.554116416290197
2025-03-30 14:47:06.149,2.5775368873956266
2025-03-30 14:47:06.149,-0.7834092568191898
2025-03-30 14:47:06.158,-3.4526921892489764
2025-03-30 14:47:06.158,-3.1096538281764845
2025-03-30 14:47:06.158,-0.48289527592020565
2025-03-30 14:47:06.158,1.9959494941053069
2025-03-30 14:47:06.158,2.778467625135382
2025-03-30 14:47:06.166,1.9025989673490795
2025-03-30 14:47:06.167,0.016146013731218357
2025-03-30 14:47:06.167,-2.10743003550585
2025-03-30 14:47:06.167,-3.137669608011579
2025-03-30 14:47:06.167,-1.6852997508351084
2025-03-30 14:47:06.176,1.7221901328252356
2025-03-30 14:47:06.177,3.9948307369876765
2025-03-30 14:47:06.177,2.410757013895739
2025-03-30 14:47:06.177,-1.7912110764733011
2025-03-30 14:47:06.177,-4.222770807045226
2025-03-30 14:47:06.187,-2.299279626218357
2025-03-30 14:47:06.187,1.7737629440997222
2025-03-30 14:47:06.187,3.748943187960049
2025-03-30 14:47:06.187,2.067969337729393
2025-03-30 14:47:06.187,-1.189817814167128
2025-03-30 14:47:06.196,-3.144055337112285
2025-03-30 14:47:06.196,-2.4589648982754904
2025-03-30 14:47:06.197,0.38891899875150693
2025-03-30 14:47:06.197,3.325392203801547
2025-03-30 14:47:06.206,3.493891907533491
2025-03-30 14:47:06.206,-0.06567655225841637
2025-03-30 14:47:06.207,-4.281573020711317
2025-03-30 14:47:06.207,-4.494120345731029
2025-03-30 14:47:06.207,0.1324829116591418
2025-03-30 14:47:06.216,4.98317785281723
2025-03-30 14:47:06.216,4.877666585979069
2025-03-30 14:47:06.216,-0.08624714252720783
2025-03-30 14:47:06.217,-4.667629213592842
2025-03-30 14:47:06.217,-4.362010506809312
2025-03-30 14:47:06.226,-0.11934513911736722
2025-03-30 14:47:06.226,3.328703199075281
2025-03-30 14:47:06.227,3.0338777122020026
2025-03-30 14:47:06.227,0.4563381174274425
2025-03-30 14:47:06.227,-1.3815823179754763
2025-03-30 14:47:06.236,-1.630491530781268
2025-03-30 14:47:06.236,-1.3213995229975743
2025-03-30 14:47:06.236,-0.6496748580476186
2025-03-30 14:47:06.237,1.121711218184707
2025-03-30 14:47:06.237,3.035226944541887
2025-03-30 14:47:06.246,2.2958367175764454
2025-03-30 14:47:06.246,-1.7263220152243661
2025-03-30 14:47:06.246,-5.11230881756391
2025-03-30 14:47:06.246,-3.3670049128138966
2025-03-30 14:47:06.246,2.6251148471063317
2025-03-30 14:47:06.256,6.69888935902641
2025-03-30 14:47:06.256,4.080734525755108
2025-03-30 14:47:06.256,-3.0799634311467585
2025-03-30 14:47:06.256,-7.586076637882152
2025-03-30 14:47:06.256,-4.550083480312113
2025-03-30 14:47:06.266,3.2890920210845684
2025-03-30 14:47:06.266,7.976363912899109
2025-03-30 14:47:06.266,4.540342107453886
2025-03-30 14:47:06.266,-3.5345681688949533
2025-03-30 14:47:06.266,-7.879709811994211
2025-03-30 14:47:06.276,-4.171416560910635
2025-03-30 14:47:06.276,3.5200536302666228
2025-03-30 14:47:06.276,7.4324217938483566
2025-03-30 14:47:06.276,4.079585832123073
2025-03-30 14:47:06.276,-2.9213903599601263
2025-03-30 14:47:06.286,-6.9723311929999925
2025-03-30 14:47:06.286,-4.624429027166732
2025-03-30 14:47:06.286,1.7446985710849587
2025-03-30 14:47:06.286,6.391305101691044
2025-03-30 14:47:06.286,5.40888397664909
2025-03-30 14:47:06.294,0.032450424590117044
2025-03-30 14:47:06.295,-4.994827612444592
2025-03-30 14:47:06.295,-5.934222740177024
2025-03-30 14:47:06.295,-2.5955633292006857
2025-03-30 14:47:06.295,2.5532443567583183
2025-03-30 14:47:06.305,6.160365930027584
2025-03-30 14:47:06.305,5.40408368399968
2025-03-30 14:47:06.305,0.10377814438998251
2025-03-30 14:47:06.305,-5.8121445712011175
2025-03-30 14:47:06.305,-6.936635014146855
2025-03-30 14:47:06.315,-1.9661884134994676
2025-03-30 14:47:06.315,4.358117708587208
2025-03-30 14:47:06.315,6.156806509721398
2025-03-30 14:47:06.315,2.58678518332094
2025-03-30 14:47:06.315,-2.0311717866159493
2025-03-30 14:47:06.324,-3.5919506881540477
2025-03-30 14:47:06.325,-2.104228734238255
2025-03-30 14:47:06.325,-0.18430065116515082
2025-03-30 14:47:06.325,0.653416768182558
2025-03-30 14:47:06.325,1.0263895214863652
2025-03-30 14:47:06.335,1.6218621790276988
2025-03-30 14:47:06.335,1.6039396090023177
2025-03-30 14:47:06.335,-0.07360619994529083
2025-03-30 14:47:06.335,-2.3812265803639585
2025-03-30 14:47:06.344,-2.717182517227382
2025-03-30 14:47:06.344,-0.22000175006874362
2025-03-30 14:47:06.345,2.613097202957006
2025-03-30 14:47:06.345,2.7127963908069406
2025-03-30 14:47:06.345,0.138676507546064
2025-03-30 14:47:06.354,-2.1975653800012873
2025-03-30 14:47:06.354,-2.12501586829814
2025-03-30 14:47:06.354,-0.31210418766683545
2025-03-30 14:47:06.354,1.1843139671145597
2025-03-30 14:47:06.354,1.3291401761811883
2025-03-30 14:47:06.364,0.6656151004785787
2025-03-30 14:47:06.364,0.13722943709162858
2025-03-30 14:47:06.364,-0.09153533596974872
2025-03-30 14:47:06.364,-0.6021026838871919
2025-03-30 14:47:06.364,-1.525435243908983
2025-03-30 14:47:06.374,-1.689002241675405
2025-03-30 14:47:06.374,0.13000643813649648
2025-03-30 14:47:06.374,2.8057860420461163
2025-03-30 14:47:06.374,3.124299759703562
2025-03-30 14:47:06.374,-0.17235187731144322
2025-03-30 14:47:06.384,-3.677718355717723
2025-03-30 14:47:06.384,-2.926340520879847
2025-03-30 14:47:06.384,1.4641570374500996
2025-03-30 14:47:06.384,3.8906785808041393
2025-03-30 14:47:06.384,0.9998387287106836
2025-03-30 14:47:06.394,-3.5386601238716944
2025-03-30 14:47:06.394,-3.6306296162589367
2025-03-30 14:47:06.394,1.2245737607558307
2025-03-30 14:47:06.394,5.197328822757298
2025-03-30 14:47:06.394,3.4127189891129386
2025-03-30 14:47:06.404,-2.294909747524723
2025-03-30 14:47:06.404,-5.795819583670196
2025-03-30 14:47:06.404,-3.5106308467757636
2025-03-30 14:47:06.404,2.1092000418743786
2025-03-30 14:47:06.404,5.4384778468324795
2025-03-30 14:47:06.413,3.464830385933663
2025-03-30 14:47:06.413,-1.3399028959445969
2025-03-30 14:47:06.413,-4.036403888389127
2025-03-30 14:47:06.413,-2.6935775862587708
2025-03-30 14:47:06.413,0.21760953552668538
2025-03-30 14:47:06.424,1.697663595494017
2025-03-30 14:47:06.424,1.5202452133294218
2025-03-30 14:47:06.424,0.9610458873348878
2025-03-30 14:47:06.424,0.30729454116070326
2025-03-30 14:47:06.424,-0.7146339280552186
2025-03-30 14:47:06.433,-1.3796944078437972
2025-03-30 14:47:06.433,-0.7297800310959985
2025-03-30 14:47:06.433,0.6141239367836667
2025-03-30 14:47:06.433,0.9515811967000589
2025-03-30 14:47:06.433,-0.18190477101303598
2025-03-30 14:47:06.443,-1.2517785839766742
2025-03-30 14:47:06.443,-0.6033032595972958
2025-03-30 14:47:06.443,1.3648386481788466
2025-03-30 14:47:06.443,2.367764577432355
2025-03-30 14:47:06.443,0.8008965594176496
2025-03-30 14:47:06.452,-2.0563426590031346
2025-03-30 14:47:06.452,-3.1069103258567115
2025-03-30 14:47:06.453,-1.044273305349067
2025-03-30 14:47:06.453,1.8873916169887512
2025-03-30 14:47:06.462,2.5749342826470465
2025-03-30 14:47:06.462,0.8375903233756162
2025-03-30 14:47:06.463,-0.7857764284590014
2025-03-30 14:47:06.463,-0.7933672611404927
2025-03-30 14:47:06.463,-0.4081094438991788
2025-03-30 14:47:06.472,-0.8941514774915236
2025-03-30 14:47:06.472,-1.1473253515234865
2025-03-30 14:47:06.473,0.3002340555608202
2025-03-30 14:47:06.473,2.199696229235533
2025-03-30 14:47:06.473,1.9328728696466486
2025-03-30 14:47:06.482,-0.4296436503041879
2025-03-30 14:47:06.482,-1.9215924840140766
2025-03-30 14:47:06.483,-0.9901262302152306
2025-03-30 14:47:06.483,0.2985260850093046
2025-03-30 14:47:06.483,-0.34279539155977035
2025-03-30 14:47:06.493,-1.565871820284795
2025-03-30 14:47:06.493,-0.13708303850159054
2025-03-30 14:47:06.493,3.746997885570662
2025-03-30 14:47:06.493,5.235282475506903
2025-03-30 14:47:06.493,0.5788639726348166
2025-03-30 14:47:06.502,-6.811213825143818
2025-03-30 14:47:06.502,-8.67286178970606
2025-03-30 14:47:06.502,-1.4652601341815061
2025-03-30 14:47:06.502,8.181406490221562
2025-03-30 14:47:06.503,10.018119077817643
2025-03-30 14:47:06.512,1.9036810237830708
2025-03-30 14:47:06.512,-7.439406155181603
2025-03-30 14:47:06.512,-8.36388220135598
2025-03-30 14:47:06.512,-1.1037618821751822
2025-03-30 14:47:06.512,5.380478064673543
2025-03-30 14:47:06.522,4.491322619167761
2025-03-30 14:47:06.522,-0.891132740415173
2025-03-30 14:47:06.522,-3.315748756593607
2025-03-30 14:47:06.522,-0.3715059879231835
2025-03-30 14:47:06.522,3.19794723383368
2025-03-30 14:47:06.532,2.3320022878311883
2025-03-30 14:47:06.532,-2.1387657805817373
2025-03-30 14:47:06.532,-5.056142131824191
2025-03-30 14:47:06.532,-3.008347161037095
2025-03-30 14:47:06.532,2.403417991852756
2025-03-30 14:47:06.541,6.414440941958568
2025-03-30 14:47:06.541,5.219778551262019
2025-03-30 14:47:06.541,-0.8523086799114485
2025-03-30 14:47:06.541,-7.0958820026664045
2025-03-30 14:47:06.541,-7.89205892316408
2025-03-30 14:47:06.552,-1.8115013319169666
2025-03-30 14:47:06.552,6.353036448095724
2025-03-30 14:47:06.552,9.393795932627388
2025-03-30 14:47:06.552,4.3933448705373666
2025-03-30 14:47:06.552,-4.160374294349253
2025-03-30 14:47:06.561,-8.484023020826765
2025-03-30 14:47:06.561,-5.14787711035045
2025-03-30 14:47:06.561,1.7624252953809747
2025-03-30 14:47:06.561,5.432788971496827
2025-03-30 14:47:06.561,3.4638504006491693
2025-03-30 14:47:06.570,-0.5930771578956566
2025-03-30 14:47:06.570,-2.136929108029104
2025-03-30 14:47:06.571,-0.532596795774827
2025-03-30 14:47:06.571,1.096711190445056
2025-03-30 14:47:06.580,0.21312270034753222
2025-03-30 14:47:06.580,-2.0102503242965617
2025-03-30 14:47:06.581,-2.339751657219288
2025-03-30 14:47:06.581,0.2502203192594275
2025-03-30 14:47:06.581,3.101173795027365
2025-03-30 14:47:06.590,3.061359330989665
2025-03-30 14:47:06.590,0.18112335879175037
2025-03-30 14:47:06.590,-2.5986865654490017
2025-03-30 14:47:06.590,-2.8261452681558454
2025-03-30 14:47:06.590,-0.7608752276326133
2025-03-30 14:47:06.600,1.3702594090914784
2025-03-30 14:47:06.600,1.6292255043843724
2025-03-30 14:47:06.600,0.19993558079744336
2025-03-30 14:47:06.600,-0.6934860489679773
2025-03-30 14:47:06.600,0.5872998381109615
2025-03-30 14:47:06.609,2.3842408958566903
2025-03-30 14:47:06.609,1.2306266320145558
2025-03-30 14:47:06.609,-3.075050777652588
2025-03-30 14:47:06.609,-5.793379416419849
2025-03-30 14:47:06.609,-2.678346122445956
2025-03-30 14:47:06.619,4.031175745874136
2025-03-30 14:47:06.619,7.501237711185003
2025-03-30 14:47:06.619,4.133045176915233
2025-03-30 14:47:06.619,-2.5282685073483173
2025-03-30 14:47:06.619,-6.202106266315493
2025-03-30 14:47:06.630,-4.517382635463415
2025-03-30 14:47:06.630,-0.24479317219029315
2025-03-30 14:47:06.630,2.832056497677426
2025-03-30 14:47:06.630,3.459693846329119
2025-03-30 14:47:06.630,2.4250200556939725
2025-03-30 14:47:06.638,0.4743851027923148
2025-03-30 14:47:06.639,-1.863880655643259
2025-03-30 14:47:06.639,-3.2142835367189613
2025-03-30 14:47:06.639,-2.0714253693649973
2025-03-30 14:47:06.649,0.8883467827771936
2025-03-30 14:47:06.649,2.7057611840236078
2025-03-30 14:47:06.649,1.5795626172138522
2025-03-30 14:47:06.649,-0.5924263566408364
2025-03-30 14:47:06.649,-0.8206662211592646
2025-03-30 14:47:06.658,0.4715229957809944
2025-03-30 14:47:06.658,0.08947581967880018
2025-03-30 14:47:06.658,-2.4071442900037843
2025-03-30 14:47:06.659,-2.9300351858626157
2025-03-30 14:47:06.659,1.1697344261874247
2025-03-30 14:47:06.668,5.769507252144411
2025-03-30 14:47:06.668,4.385798777850579
2025-03-30 14:47:06.668,-2.6454572403727923
2025-03-30 14:47:06.668,-7.436681932886733
2025-03-30 14:47:06.669,-4.266887295824502
2025-03-30 14:47:06.678,3.191351449302445
2025-03-30 14:47:06.678,6.705331139649118
2025-03-30 14:47:06.678,3.377716560114829
2025-03-30 14:47:06.678,-2.1822246651976993
2025-03-30 14:47:06.678,-4.494355286828744
2025-03-30 14:47:06.688,-2.8261801640572783
2025-03-30 14:47:06.688,0.09938877786281919
2025-03-30 14:47:06.688,2.159981136945724
2025-03-30 14:47:06.688,2.9039721714711915
2025-03-30 14:47:06.689,2.104966217968181
2025-03-30 14:47:06.698,-0.418169362984308
2025-03-30 14:47:06.698,-3.314667820066542
2025-03-30 14:47:06.698,-3.809438420039787
2025-03-30 14:47:06.698,-0.6614718396497776
2025-03-30 14:47:06.698,3.5973822608358863
2025-03-30 14:47:06.708,4.774099009988905
2025-03-30 14:47:06.708,1.4791727861936057
2025-03-30 14:47:06.708,-3.3346143653748226
2025-03-30 14:47:06.708,-5.271298244386673
2025-03-30 14:47:06.708,-2.449620396691132
2025-03-30 14:47:06.718,2.843135907269786
2025-03-30 14:47:06.718,5.765642325211967
2025-03-30 14:47:06.718,3.1565606553910053
2025-03-30 14:47:06.718,-2.7396597083017373
2025-03-30 14:47:06.719,-5.821280762611844
2025-03-30 14:47:06.728,-2.8433542527235987
2025-03-30 14:47:06.728,2.5290737494735365
2025-03-30 14:47:06.728,4.299649856714243
2025-03-30 14:47:06.728,1.638538683963263
2025-03-30 14:47:06.728,-1.0322667994911194
2025-03-30 14:47:06.737,-0.9665489079886322
2025-03-30 14:47:06.737,-0.3916503639174369
2025-03-30 14:47:06.737,-1.7069269397848843
2025-03-30 14:47:06.737,-2.8455671141729892
2025-03-30 14:47:06.746,-0.4253138937120256
2025-03-30 14:47:06.746,4.160994566265326
2025-03-30 14:47:06.746,5.386135819026118
2025-03-30 14:47:06.747,0.808574850813246
2025-03-30 14:47:06.747,-5.0227240864833895
2025-03-30 14:47:06.756,-5.687664179738742
2025-03-30 14:47:06.756,-0.6560486290081808
2025-03-30 14:47:06.756,4.223915529851313
2025-03-30 14:47:06.757,3.9190307418314116
2025-03-30 14:47:06.757,-0.1548816174058112
2025-03-30 14:47:06.766,-2.6645451977313845
2025-03-30 14:47:06.766,-1.1157889337653957
2025-03-30 14:47:06.766,1.6282179591067176
2025-03-30 14:47:06.766,1.4877782981824155
2025-03-30 14:47:06.767,-1.5725652798502814
2025-03-30 14:47:06.776,-3.4896056286248673
2025-03-30 14:47:06.776,-1.2178703601436578
2025-03-30 14:47:06.776,3.2076824207341086
2025-03-30 14:47:06.776,4.804534621112595
2025-03-30 14:47:06.776,1.559908975217447
2025-03-30 14:47:06.786,-3.152975043960455
2025-03-30 14:47:06.786,-4.577846682154501
2025-03-30 14:47:06.786,-1.847099388204135
2025-03-30 14:47:06.786,1.744843844685759
2025-03-30 14:47:06.787,2.925026888993021
2025-03-30 14:47:06.795,1.5000154393391774
2025-03-30 14:47:06.795,-0.49002094257196693
2025-03-30 14:47:06.795,-1.1836522169113397
2025-03-30 14:47:06.795,-0.24382319053938803
2025-03-30 14:47:06.795,1.0061177731859328
2025-03-30 14:47:06.805,0.5849069554870301
2025-03-30 14:47:06.805,-1.8246912535867534
2025-03-30 14:47:06.805,-3.4789696077771746
2025-03-30 14:47:06.805,-1.1730714098098072
2025-03-30 14:47:06.805,4.053425462535373
2025-03-30 14:47:06.814,6.53795457155156
2025-03-30 14:47:06.815,2.1675436403688058
2025-03-30 14:47:06.815,-5.668863308107563
2025-03-30 14:47:06.815,-8.570795085633504
2025-03-30 14:47:06.825,-2.5918326194368273
2025-03-30 14:47:06.825,6.345107095555599
2025-03-30 14:47:06.825,8.57895067152583
2025-03-30 14:47:06.825,1.8754174134568378
2025-03-30 14:47:06.825,-5.975920653681831
2025-03-30 14:47:06.834,-6.538617903006354
2025-03-30 14:47:06.835,-0.3910188487629669
2025-03-30 14:47:06.835,4.647973027190112
2025-03-30 14:47:06.835,3.491478607678372
2025-03-30 14:47:06.835,-0.991301722959456
2025-03-30 14:47:06.844,-2.8954958702398965
2025-03-30 14:47:06.845,-0.7098756755347598
2025-03-30 14:47:06.845,1.849530592259608
2025-03-30 14:47:06.845,1.2452352913912081
2025-03-30 14:47:06.845,-1.5055222000991892
2025-03-30 14:47:06.854,-2.3638313204011565
2025-03-30 14:47:06.855,0.40804970033422716
2025-03-30 14:47:06.855,3.563070410519401
2025-03-30 14:47:06.855,2.615308805494879
2025-03-30 14:47:06.855,-2.09856769525258
2025-03-30 14:47:06.865,-5.120156483670499
2025-03-30 14:47:06.865,-2.5220309009495043
2025-03-30 14:47:06.865,2.977278917475318
2025-03-30 14:47:06.865,5.3021953178787955
2025-03-30 14:47:06.865,2.2915890958720464
2025-03-30 14:47:06.874,-2.3699125006841375
2025-03-30 14:47:06.875,-4.095891451584059
2025-03-30 14:47:06.875,-2.1862802321455437
2025-03-30 14:47:06.875,0.7509492955958155
2025-03-30 14:47:06.875,2.3645446418951077
2025-03-30 14:47:06.884,2.250425147251285
2025-03-30 14:47:06.885,0.9782723286021231
2025-03-30 14:47:06.885,-0.8995363811010284
2025-03-30 14:47:06.885,-2.5046696981255927
2025-03-30 14:47:06.885,-2.4172221877468743
2025-03-30 14:47:06.894,-0.0023126391701051296
2025-03-30 14:47:06.895,3.0261136046034727
2025-03-30 14:47:06.895,3.514134893366769
2025-03-30 14:47:06.895,0.3164349627818679
2025-03-30 14:47:06.895,-3.635114322935312
2025-03-30 14:47:06.904,-4.029407086595741
2025-03-30 14:47:06.905,-0.189784957052448
2025-03-30 14:47:06.905,3.8129244848117105
2025-03-30 14:47:06.905,3.771373175341432
2025-03-30 14:47:06.905,0.07436522145633179
2025-03-30 14:47:06.914,-3.20099363053155
2025-03-30 14:47:06.915,-3.1258075963220247
2025-03-30 14:47:06.915,-0.4667738708455377
2025-03-30 14:47:06.915,2.112961591942436
2025-03-30 14:47:06.915,2.737102054365934
2025-03-30 14:47:06.924,1.1981857761724437
2025-03-30 14:47:06.925,-1.239509944835963
2025-03-30 14:47:06.925,-2.539360353625866
2025-03-30 14:47:06.925,-1.5880669745385871
2025-03-30 14:47:06.925,0.5346508942443481
2025-03-30 14:47:06.933,1.8254035779012332
2025-03-30 14:47:06.933,1.6371663643375716
2025-03-30 14:47:06.933,0.7078288383614605
2025-03-30 14:47:06.933,-0.44902348370842027
2025-03-30 14:47:06.934,-1.7192199234161274
2025-03-30 14:47:06.943,-2.344188710513595
2025-03-30 14:47:06.943,-1.2755676589684144
2025-03-30 14:47:06.943,1.2514943747417893
2025-03-30 14:47:06.943,3.4275368419175902
2025-03-30 14:47:06.944,3.3336165088053966
2025-03-30 14:47:06.953,0.506052652359137
2025-03-30 14:47:06.953,-3.428822064077172
2025-03-30 14:47:06.953,-5.376941852206195
2025-03-30 14:47:06.953,-3.032075376455365
2025-03-30 14:47:06.963,2.433997118120902
2025-03-30 14:47:06.963,6.427522368347305
2025-03-30 14:47:06.963,4.997642992582208
2025-03-30 14:47:06.963,-0.8543890773058646
2025-03-30 14:47:06.963,-5.789946343730404
2025-03-30 14:47:06.973,-5.500516653780344
2025-03-30 14:47:06.973,-0.8490731184118282
2025-03-30 14:47:06.973,3.661815760713855
2025-03-30 14:47:06.973,4.639360440751007
2025-03-30 14:47:06.973,2.27200559914367
2025-03-30 14:47:06.974,-1.0399976257652555
2025-03-30 14:47:06.983,-3.0891581187805786
2025-03-30 14:47:06.983,-2.9390031788522872
2025-03-30 14:47:06.983,-0.9234217499633618
2025-03-30 14:47:06.983,1.5726411003649088
2025-03-30 14:47:06.984,2.698161840282447
2025-03-30 14:47:06.993,1.4622316108361426
2025-03-30 14:47:06.993,-0.9946966597114366
2025-03-30 14:47:06.993,-2.008070027023911
2025-03-30 14:47:06.993,-0.27252989151866386
2025-03-30 14:47:07.003,2.043273496226576
2025-03-30 14:47:07.003,1.4758796088982642
2025-03-30 14:47:07.003,-2.0133163863214953
2025-03-30 14:47:07.003,-4.135733415692365
2025-03-30 14:47:07.003,-1.4641959939732154
2025-03-30 14:47:07.013,3.6465040387716225
2025-03-30 14:47:07.013,5.427205827947125
2025-03-30 14:47:07.013,1.8120730611556013
2025-03-30 14:47:07.013,-3.043162419039997
2025-03-30 14:47:07.013,-4.195905359889459
2025-03-30 14:47:07.023,-1.8338559004391597
2025-03-30 14:47:07.023,0.18454268990441505
2025-03-30 14:47:07.023,0.3714894993727996
2025-03-30 14:47:07.023,1.0821589471001196
2025-03-30 14:47:07.023,3.4835778453365496
2025-03-30 14:47:07.033,4.271580487972823
2025-03-30 14:47:07.033,0.12081895733604034
2025-03-30 14:47:07.033,-6.140133813889871
2025-03-30 14:47:07.033,-7.456583040460179
2025-03-30 14:47:07.033,-1.2916961525700803
2025-03-30 14:47:07.043,6.460380760882024
2025-03-30 14:47:07.043,8.03374188031737
2025-03-30 14:47:07.043,2.4078060138645108
2025-03-30 14:47:07.043,-4.471076629535277
2025-03-30 14:47:07.043,-6.655097110368683
2025-03-30 14:47:07.052,-3.335360974459902
2025-03-30 14:47:07.053,1.9563532336867877
2025-03-30 14:47:07.053,4.923167775128774
2025-03-30 14:47:07.053,3.4610225551164864
2025-03-30 14:47:07.053,-0.8825598730312556
2025-03-30 14:47:07.063,-3.9265202510795603
2025-03-30 14:47:07.063,-2.6742333588177463
2025-03-30 14:47:07.063,1.3926982754508173
2025-03-30 14:47:07.063,3.7359544310158816
2025-03-30 14:47:07.063,1.8011125293724435
2025-03-30 14:47:07.073,-2.1761901256216984
2025-03-30 14:47:07.073,-3.830730315736667
2025-03-30 14:47:07.073,-1.508571835884404
2025-03-30 14:47:07.073,2.182990258518603
2025-03-30 14:47:07.073,3.4963893697871082
2025-03-30 14:47:07.082,1.5519664951440695
2025-03-30 14:47:07.083,-1.215505108774318
2025-03-30 14:47:07.083,-2.2397973196573573
2025-03-30 14:47:07.083,-1.4368473756484008
2025-03-30 14:47:07.083,-0.3111650051223219
2025-03-30 14:47:07.093,0.40660868546317813
2025-03-30 14:47:07.093,1.0598372606065234
2025-03-30 14:47:07.093,1.560927168771069
2025-03-30 14:47:07.093,1.0660956566563355
2025-03-30 14:47:07.093,-0.5563376955909378
2025-03-30 14:47:07.103,-1.9513496183293833
2025-03-30 14:47:07.103,-1.6281691920300518
2025-03-30 14:47:07.103,0.2317389290966849
2025-03-30 14:47:07.103,1.7569619236690626
2025-03-30 14:47:07.103,1.2997377311036538
2025-03-30 14:47:07.112,-0.6257737706722386
2025-03-30 14:47:07.113,-1.6279653703661077
2025-03-30 14:47:07.113,-0.21141341374248948
2025-03-30 14:47:07.113,1.9746564082292277
2025-03-30 14:47:07.113,1.796961313439232
2025-03-30 14:47:07.122,-1.189250724651826
2025-03-30 14:47:07.123,-3.5789295501755913
2025-03-30 14:47:07.123,-2.123659457378858
2025-03-30 14:47:07.123,2.0035262840742427
2025-03-30 14:47:07.123,4.324025500503456
2025-03-30 14:47:07.131,2.2877075833268927
2025-03-30 14:47:07.131,-1.8294949090721264
2025-03-30 14:47:07.131,-3.6915957693228347
2025-03-30 14:47:07.131,-1.7624679525108935
2025-03-30 14:47:07.141,1.3251224458418867
2025-03-30 14:47:07.141,2.0410779693492196
2025-03-30 14:47:07.141,0.020538974072389637
2025-03-30 14:47:07.141,-1.5490661471799914
2025-03-30 14:47:07.141,0.06231811113645366
2025-03-30 14:47:07.151,3.0820615532177076
2025-03-30 14:47:07.151,2.761600417745342
2025-03-30 14:47:07.151,-2.180988434390074
2025-03-30 14:47:07.151,-6.504289051366413
2025-03-30 14:47:07.151,-4.220734473716742
2025-03-30 14:47:07.161,3.37903652053212
2025-03-30 14:47:07.161,8.339109843372547
2025-03-30 14:47:07.161,5.179082568786173
2025-03-30 14:47:07.161,-2.82897923286948
2025-03-30 14:47:07.161,-7.664204756578854
2025-03-30 14:47:07.171,-5.300282562074242
2025-03-30 14:47:07.171,1.0033698545239722
2025-03-30 14:47:07.171,5.226584062727909
2025-03-30 14:47:07.171,4.572620902681192
2025-03-30 14:47:07.171,0.8434614409139505
2025-03-30 14:47:07.181,-2.467464052462966
2025-03-30 14:47:07.181,-3.2773379882619906
2025-03-30 14:47:07.181,-1.775157579053515
2025-03-30 14:47:07.181,0.45709389375074727
2025-03-30 14:47:07.181,1.7875438117384481
2025-03-30 14:47:07.190,1.6031516037136844
2025-03-30 14:47:07.191,0.5429691680304775
2025-03-30 14:47:07.191,-0.36615351124377493
2025-03-30 14:47:07.191,-0.7932954989453725
2025-03-30 14:47:07.191,-1.0223793346112264
2025-03-30 14:47:07.201,-0.9351311292328902
2025-03-30 14:47:07.201,0.06050318859896009
2025-03-30 14:47:07.201,1.673456457961222
2025-03-30 14:47:07.201,2.1674756372555395
2025-03-30 14:47:07.201,0.21244202291345488
2025-03-30 14:47:07.211,-2.8283499573212403
2025-03-30 14:47:07.211,-3.5205524267609283
2025-03-30 14:47:07.211,-0.1038051791114129
2025-03-30 14:47:07.211,4.572326156846495
2025-03-30 14:47:07.211,5.118609936238959
2025-03-30 14:47:07.221,-0.27228067546927603
2025-03-30 14:47:07.221,-6.509444468706065
2025-03-30 14:47:07.221,-6.421727048127582
2025-03-30 14:47:07.221,0.7021369945181738
2025-03-30 14:47:07.221,7.4267356572025305
2025-03-30 14:47:07.230,6.470333205937976
2025-03-30 14:47:07.231,-0.7717962204839315
2025-03-30 14:47:07.231,-6.16816022760842
2025-03-30 14:47:07.231,-4.704765140088264
2025-03-30 14:47:07.231,0.32428915276656406
2025-03-30 14:47:07.240,2.748560291062504
2025-03-30 14:47:07.241,1.456567862023052
2025-03-30 14:47:07.241,0.3278701732408449
2025-03-30 14:47:07.241,1.4800337207107335
2025-03-30 14:47:07.241,2.106540724134298
2025-03-30 14:47:07.251,-0.7658446175169883
2025-03-30 14:47:07.251,-4.832803119667055
2025-03-30 14:47:07.251,-4.604032195408063
2025-03-30 14:47:07.251,1.1499614244642784
2025-03-30 14:47:07.251,6.506219509865266
2025-03-30 14:47:07.261,4.886684247809444
2025-03-30 14:47:07.261,-2.340140517749646
2025-03-30 14:47:07.261,-6.535948076223824
2025-03-30 14:47:07.261,-2.353999097258938
2025-03-30 14:47:07.261,4.82241025547794
2025-03-30 14:47:07.269,5.254047362858088
2025-03-30 14:47:07.269,-2.1764727597432456
2025-03-30 14:47:07.269,-7.721593983108889
2025-03-30 14:47:07.269,-3.2988728249149992
2025-03-30 14:47:07.270,6.372805463667516
2025-03-30 14:47:07.279,9.259618442556395
2025-03-30 14:47:07.279,1.3788362301272707
2025-03-30 14:47:07.279,-8.056463475655425
2025-03-30 14:47:07.279,-8.24566477216297
2025-03-30 14:47:07.288,0.18230807385482128
2025-03-30 14:47:07.289,6.964426674553529
2025-03-30 14:47:07.289,5.181709744302645
2025-03-30 14:47:07.289,-1.4514009690661684
2025-03-30 14:47:07.289,-4.680060686698319
2025-03-30 14:47:07.299,-1.8219027053379557
2025-03-30 14:47:07.299,2.4476101251157276
2025-03-30 14:47:07.299,2.9327079591948824
2025-03-30 14:47:07.299,-0.20558463663312954
2025-03-30 14:47:07.299,-2.829389758229707
2025-03-30 14:47:07.312,-2.192642036359811
2025-03-30 14:47:07.312,0.47751153003419144
2025-03-30 14:47:07.312,2.2222569119813693
2025-03-30 14:47:07.312,1.8009410279730125
2025-03-30 14:47:07.312,0.33211939105496724
2025-03-30 14:47:07.318,-0.785397263095819
2025-03-30 14:47:07.318,-1.345297747670413
2025-03-30 14:47:07.318,-1.4785511369934028
2025-03-30 14:47:07.318,-0.6455174685937978
2025-03-30 14:47:07.319,1.299290086800657
2025-03-30 14:47:07.328,2.7139789994124146
2025-03-30 14:47:07.329,1.4496592669208896
2025-03-30 14:47:07.329,-2.1333287827147487
2025-03-30 14:47:07.329,-4.456909520878201
2025-03-30 14:47:07.329,-2.0658098818432777
2025-03-30 14:47:07.338,3.9281102233397265
2025-03-30 14:47:07.338,7.393195563174394
2025-03-30 14:47:07.338,3.015244944416763
2025-03-30 14:47:07.339,-6.441439079910097
2025-03-30 14:47:07.339,-10.882678244728726
2025-03-30 14:47:07.347,-3.8110832644252293
2025-03-30 14:47:07.347,8.50232346230703
2025-03-30 14:47:07.347,12.662914320281788
2025-03-30 14:47:07.347,3.709412526354192
2025-03-30 14:47:07.356,-8.610083903778648
2025-03-30 14:47:07.357,-11.237919644378024
2025-03-30 14:47:07.357,-2.676764229586368
2025-03-30 14:47:07.357,6.684543935199647
2025-03-30 14:47:07.357,7.567879437906801
2025-03-30 14:47:07.367,1.2991699750992156
2025-03-30 14:47:07.367,-4.087463790005032
2025-03-30 14:47:07.367,-3.83379492109842
2025-03-30 14:47:07.367,-0.23103023426899733
2025-03-30 14:47:07.367,2.02941988688097
2025-03-30 14:47:07.376,1.402962192660451
2025-03-30 14:47:07.377,-0.1646887267226433
2025-03-30 14:47:07.377,-0.6472216539808888
2025-03-30 14:47:07.377,-0.20555125186428727
2025-03-30 14:47:07.377,-0.2106948035212096
2025-03-30 14:47:07.386,-0.889782769864278
2025-03-30 14:47:07.387,-0.7117742261470458
2025-03-30 14:47:07.387,1.3584873988454031
2025-03-30 14:47:07.387,3.4221320555166708
2025-03-30 14:47:07.387,2.099188741798131
2025-03-30 14:47:07.396,-2.7270277315926035
2025-03-30 14:47:07.397,-6.246747963591936
2025-03-30 14:47:07.397,-3.823952462262321
2025-03-30 14:47:07.397,2.9105731264220127
2025-03-30 14:47:07.397,7.296074658772447
2025-03-30 14:47:07.405,5.1410979130516665
2025-03-30 14:47:07.405,-0.9604459899170354
2025-03-30 14:47:07.405,-5.344989181829148
2025-03-30 14:47:07.405,-5.328213487630546
2025-03-30 14:47:07.405,-2.30343635282178
2025-03-30 14:47:07.416,1.3724201731717374
2025-03-30 14:47:07.417,4.198353551524804
2025-03-30 14:47:07.417,4.831892621088935
2025-03-30 14:47:07.417,2.279981910548261
2025-03-30 14:47:07.417,-2.2043565735175705
2025-03-30 14:47:07.427,-5.056737083122869
2025-03-30 14:47:07.427,-3.743991151974962
2025-03-30 14:47:07.427,0.2912753174452748
2025-03-30 14:47:07.427,3.108250446953802
2025-03-30 14:47:07.427,2.6161257199901233
2025-03-30 14:47:07.435,0.5337121874992217
2025-03-30 14:47:07.435,-0.3090408715106463
2025-03-30 14:47:07.435,0.2671248048076216
2025-03-30 14:47:07.435,-0.044069532051403765
2025-03-30 14:47:07.445,-2.1273906814009504
2025-03-30 14:47:07.445,-3.3813264625561827
2025-03-30 14:47:07.445,-1.0050084711976115
2025-03-30 14:47:07.445,3.4914866530863566
2025-03-30 14:47:07.445,5.202064754472274
2025-03-30 14:47:07.455,1.727828838873224
2025-03-30 14:47:07.455,-3.513613065028144
2025-03-30 14:47:07.455,-5.062392193606388
2025-03-30 14:47:07.455,-1.637539657577053
2025-03-30 14:47:07.455,2.6683255055812976
2025-03-30 14:47:07.465,3.291452132802177
2025-03-30 14:47:07.465,0.3155311949721452
2025-03-30 14:47:07.465,-1.9594055903445577
2025-03-30 14:47:07.465,-0.4930521719712975
2025-03-30 14:47:07.465,2.426213152859231
2025-03-30 14:47:07.475,1.9546876886212
2025-03-30 14:47:07.475,-2.551688351123486
2025-03-30 14:47:07.475,-5.699333482471749
2025-03-30 14:47:07.475,-2.533128015954073
2025-03-30 14:47:07.475,4.544333799316516
2025-03-30 14:47:07.485,7.814991597568179
2025-03-30 14:47:07.485,3.2901427956986975
2025-03-30 14:47:07.485,-4.469932365650498
2025-03-30 14:47:07.485,-7.6427320814755015
2025-03-30 14:47:07.485,-3.748756826213957
2025-03-30 14:47:07.495,2.5698543098363116
2025-03-30 14:47:07.495,5.4714999547284515
2025-03-30 14:47:07.495,3.619920388396669
2025-03-30 14:47:07.495,-0.09973979104456071
2025-03-30 14:47:07.495,-2.585867812259123
2025-03-30 14:47:07.505,-2.9304426017315652
2025-03-30 14:47:07.505,-1.7350548312284635
2025-03-30 14:47:07.505,0.20802555362449723
2025-03-30 14:47:07.505,1.9938183953133441
2025-03-30 14:47:07.505,2.412563389481049
2025-03-30 14:47:07.514,0.915976876948943
2025-03-30 14:47:07.515,-1.253631787466001
2025-03-30 14:47:07.515,-1.9400901096275485
2025-03-30 14:47:07.515,-0.5631448897066941
2025-03-30 14:47:07.515,0.9903259936725123
2025-03-30 14:47:07.523,0.6969601543784874
2025-03-30 14:47:07.523,-0.8696616109452081
2025-03-30 14:47:07.523,-1.214227371240594
2025-03-30 14:47:07.524,0.63948026728532
2025-03-30 14:47:07.524,2.5607748368730805
2025-03-30 14:47:07.533,1.8691192176205436
2025-03-30 14:47:07.533,-1.2465988846175289
2025-03-30 14:47:07.533,-3.7553318945322456
2025-03-30 14:47:07.533,-3.012346637260913
2025-03-30 14:47:07.543,0.5963555535426273
2025-03-30 14:47:07.543,4.042543067206189
2025-03-30 14:47:07.543,4.31538029214781
2025-03-30 14:47:07.543,1.0140892258419054
2025-03-30 14:47:07.543,-3.199063320812459
2025-03-30 14:47:07.553,-4.813042594877526
2025-03-30 14:47:07.553,-2.57574667894536
2025-03-30 14:47:07.553,1.407603379942203
2025-03-30 14:47:07.553,3.7536668467257646
2025-03-30 14:47:07.553,2.98835274766366
2025-03-30 14:47:07.563,0.5353674424727428
2025-03-30 14:47:07.563,-1.324720136278572
2025-03-30 14:47:07.563,-1.8388569270326607
2025-03-30 14:47:07.563,-1.7267560282031111
2025-03-30 14:47:07.563,-1.4008791923377413
2025-03-30 14:47:07.573,-0.33724997476185314
2025-03-30 14:47:07.573,1.6054827889605388
2025-03-30 14:47:07.573,3.120279993562835
2025-03-30 14:47:07.573,2.516745078179222
2025-03-30 14:47:07.573,-0.19506730429697025
2025-03-30 14:47:07.583,-2.9423040343046414
2025-03-30 14:47:07.583,-3.642895645674925
2025-03-30 14:47:07.583,-2.0853627665326977
2025-03-30 14:47:07.583,0.617630685992326
2025-03-30 14:47:07.583,3.38279274990719
2025-03-30 14:47:07.593,4.826889299731082
2025-03-30 14:47:07.593,2.9212878666876008
2025-03-30 14:47:07.593,-2.488379270087916
2025-03-30 14:47:07.593,-7.16133814212399
2025-03-30 14:47:07.593,-5.6563189850599
2025-03-30 14:47:07.602,1.7216256258876557
2025-03-30 14:47:07.603,7.739026582930878
2025-03-30 14:47:07.603,6.113243850247163
2025-03-30 14:47:07.603,-1.0478158006313252
2025-03-30 14:47:07.603,-6.01198560719045
2025-03-30 14:47:07.612,-4.586216538532882
2025-03-30 14:47:07.613,0.1529162431317091
2025-03-30 14:47:07.613,2.99894205107713
2025-03-30 14:47:07.613,2.5025064507956056
2025-03-30 14:47:07.613,0.7200061711110827
2025-03-30 14:47:07.622,-0.49364730588008904
2025-03-30 14:47:07.623,-0.9212550898053926
2025-03-30 14:47:07.623,-0.8294910137432759
2025-03-30 14:47:07.623,-0.3663091656187976
2025-03-30 14:47:07.623,0.007590691230414555
2025-03-30 14:47:07.633,-0.13011412602511585
2025-03-30 14:47:07.633,-0.27474877281299975
2025-03-30 14:47:07.633,0.42958306740217456
2025-03-30 14:47:07.633,1.5530484394979907
2025-03-30 14:47:07.633,1.4757271390054059
2025-03-30 14:47:07.643,-0.37958412435214495
2025-03-30 14:47:07.643,-2.387069412729527
2025-03-30 14:47:07.643,-2.4849699817331543
2025-03-30 14:47:07.643,-0.44515941920472524
2025-03-30 14:47:07.643,2.106168954614156
2025-03-30 14:47:07.651,3.221926866896673
2025-03-30 14:47:07.651,1.8656908365686382
2025-03-30 14:47:07.651,-1.304562382165957
2025-03-30 14:47:07.651,-3.752927887094278
2025-03-30 14:47:07.652,-2.8607232454962426
2025-03-30 14:47:07.661,0.9770012849225493
2025-03-30 14:47:07.661,3.9269829138702206
2025-03-30 14:47:07.661,2.736333525464556
2025-03-30 14:47:07.661,-1.295945027481787
2025-03-30 14:47:07.671,-3.7036824560613493
2025-03-30 14:47:07.671,-2.0345831688507077
2025-03-30 14:47:07.671,1.6148435280249178
2025-03-30 14:47:07.671,3.3276134924867478
2025-03-30 14:47:07.672,1.562667365955555
2025-03-30 14:47:07.681,-1.6307515361799654
2025-03-30 14:47:07.681,-2.9093940805722314
2025-03-30 14:47:07.681,-1.0418130925455913
2025-03-30 14:47:07.681,1.6671354461171979
2025-03-30 14:47:07.681,1.8647916920729348
2025-03-30 14:47:07.691,-0.5273132174467973
2025-03-30 14:47:07.691,-1.780440462856215
2025-03-30 14:47:07.691,0.5290165073451518
2025-03-30 14:47:07.691,3.3467628949862016
2025-03-30 14:47:07.691,1.7417827552995888
2025-03-30 14:47:07.701,-3.7127422946797335
2025-03-30 14:47:07.701,-6.383271377448881
2025-03-30 14:47:07.701,-1.7705562054955195
2025-03-30 14:47:07.701,6.004676615368124
2025-03-30 14:47:07.701,8.320366836716946
2025-03-30 14:47:07.711,2.142143399938142
2025-03-30 14:47:07.711,-6.19246017732325
2025-03-30 14:47:07.711,-8.160844135471198
2025-03-30 14:47:07.711,-2.595511147241114
2025-03-30 14:47:07.712,3.87692135307769
2025-03-30 14:47:07.720,5.416956930205649
2025-03-30 14:47:07.721,2.9875599687283514
2025-03-30 14:47:07.721,0.6257313047245551
2025-03-30 14:47:07.721,-0.9103692132010912
2025-03-30 14:47:07.721,-3.288084900870629
2025-03-30 14:47:07.731,-5.342915455986741
2025-03-30 14:47:07.731,-3.3739988852061433
2025-03-30 14:47:07.731,2.738558835836154
2025-03-30 14:47:07.731,7.458587417683922
2025-03-30 14:47:07.731,5.699473442158308
2025-03-30 14:47:07.741,-0.9054436884053787
2025-03-30 14:47:07.741,-5.882091074024311
2025-03-30 14:47:07.741,-5.252067620121791
2025-03-30 14:47:07.741,-1.1267282928735778
2025-03-30 14:47:07.741,1.9705745831145123
2025-03-30 14:47:07.750,2.4303162264303872
2025-03-30 14:47:07.751,1.9555105806976978
2025-03-30 14:47:07.751,1.8112977703233821
2025-03-30 14:47:07.751,0.9899547977893028
2025-03-30 14:47:07.751,-1.3158322475778983
2025-03-30 14:47:07.761,-3.3570859818295333
2025-03-30 14:47:07.761,-2.7409020044257506
2025-03-30 14:47:07.761,0.05233552127410308
2025-03-30 14:47:07.761,1.9604792785688319
2025-03-30 14:47:07.761,1.348236418180534
2025-03-30 14:47:07.771,0.18336415857985897
2025-03-30 14:47:07.771,1.1390019713598243
2025-03-30 14:47:07.771,3.2270005115759757
2025-03-30 14:47:07.771,2.200142151708474
2025-03-30 14:47:07.771,-3.567013780107517
2025-03-30 14:47:07.779,-8.97799262973312
2025-03-30 14:47:07.779,-6.741292679391259
2025-03-30 14:47:07.779,3.396557739057758
2025-03-30 14:47:07.780,12.371495444907081
2025-03-30 14:47:07.789,10.803556836915309
2025-03-30 14:47:07.789,-0.5642077419211642
2025-03-30 14:47:07.789,-11.236608262090009
2025-03-30 14:47:07.789,-11.773425989014564
2025-03-30 14:47:07.789,-2.891012748896639
2025-03-30 14:47:07.799,6.513734693074845
2025-03-30 14:47:07.799,8.948491574948816
2025-03-30 14:47:07.799,4.5908053620760665
2025-03-30 14:47:07.799,-1.1410346021260742
2025-03-30 14:47:07.799,-3.898783371614818
2025-03-30 14:47:07.809,-3.4136140995813875
2025-03-30 14:47:07.809,-1.8497289106692771
2025-03-30 14:47:07.809,-0.8744338455703538
2025-03-30 14:47:07.809,-0.28653051787382855
2025-03-30 14:47:07.809,1.1416259986256743
2025-03-30 14:47:07.819,3.5235945088857816
2025-03-30 14:47:07.819,4.734055777601802
2025-03-30 14:47:07.819,2.251945315786116
2025-03-30 14:47:07.819,-3.3957031389975785
2025-03-30 14:47:07.819,-7.725498341390636
2025-03-30 14:47:07.829,-6.068708049406457
2025-03-30 14:47:07.829,1.2284768184310384
2025-03-30 14:47:07.829,8.078790596405089
2025-03-30 14:47:07.829,8.174663431968039
2025-03-30 14:47:07.829,1.379113865379785
2025-03-30 14:47:07.839,-6.026581389274038
2025-03-30 14:47:07.839,-7.65612691412242
2025-03-30 14:47:07.839,-3.038227698836973
2025-03-30 14:47:07.839,2.8405258743996122
2025-03-30 14:47:07.839,5.139813039064184
2025-03-30 14:47:07.849,3.3120659383169975
2025-03-30 14:47:07.849,0.01403064973834428
2025-03-30 14:47:07.849,-2.358990170259372
2025-03-30 14:47:07.849,-2.9672103965708563
2025-03-30 14:47:07.849,-1.6530355234431624
2025-03-30 14:47:07.858,1.0781215084025626
2025-03-30 14:47:07.859,3.179579710467504
2025-03-30 14:47:07.859,2.2048578417684093
2025-03-30 14:47:07.859,-1.5745083317162571
2025-03-30 14:47:07.859,-4.362773708555017
2025-03-30 14:47:07.868,-2.629469239009356
2025-03-30 14:47:07.869,2.4722713417926965
2025-03-30 14:47:07.869,5.743658523668763
2025-03-30 14:47:07.869,3.5147693000944953
2025-03-30 14:47:07.869,-2.2069774106128537
2025-03-30 14:47:07.877,-5.909198271498553
2025-03-30 14:47:07.877,-4.399896873932587
2025-03-30 14:47:07.877,0.3974047884684429
2025-03-30 14:47:07.878,4.138557435899183
2025-03-30 14:47:07.878,4.394940498827329
2025-03-30 14:47:07.887,1.997908490942263
2025-03-30 14:47:07.887,-0.9418766716570911
2025-03-30 14:47:07.887,-3.114600139679574
2025-03-30 14:47:07.887,-3.8881440403208556
2025-03-30 14:47:07.897,-2.429591745651883
2025-03-30 14:47:07.897,1.2918225617524346
2025-03-30 14:47:07.897,4.753555492918114
2025-03-30 14:47:07.897,4.373675617318293
2025-03-30 14:47:07.897,-0.055187878836145454
2025-03-30 14:47:07.907,-4.144815446318118
2025-03-30 14:47:07.907,-3.835342398490903
2025-03-30 14:47:07.907,-0.29610147674554843
2025-03-30 14:47:07.907,2.0344801494160483
2025-03-30 14:47:07.908,1.3394658169347442
2025-03-30 14:47:07.917,-0.038382769392612676
2025-03-30 14:47:07.917,0.2803324166443113
2025-03-30 14:47:07.917,1.4858398101652797
2025-03-30 14:47:07.917,1.2172759907220077
2025-03-30 14:47:07.917,-1.1124686468582343
2025-03-30 14:47:07.927,-3.4830150905229695
2025-03-30 14:47:07.927,-3.1928728857577444
2025-03-30 14:47:07.927,0.39913097298059946
2025-03-30 14:47:07.927,4.5117388406602625
2025-03-30 14:47:07.927,4.930572944832455
2025-03-30 14:47:07.937,0.5049365579479725
2025-03-30 14:47:07.937,-4.744391503117275
2025-03-30 14:47:07.937,-5.41240604870723
2025-03-30 14:47:07.937,-0.720430202309096
2025-03-30 14:47:07.937,4.419157143680974
2025-03-30 14:47:07.947,4.765954640037045
2025-03-30 14:47:07.947,0.3412985296666481
2025-03-30 14:47:07.947,-3.949923768741745
2025-03-30 14:47:07.947,-3.777540464751214
2025-03-30 14:47:07.947,0.2800574471459902
2025-03-30 14:47:07.956,3.7719898328219243
2025-03-30 14:47:07.957,3.1007930422701215
2025-03-30 14:47:07.957,-0.972864514643669
2025-03-30 14:47:07.957,-4.175675677822178
2025-03-30 14:47:07.957,-2.9738899601403315
2025-03-30 14:47:07.966,1.6879414970217548
2025-03-30 14:47:07.967,4.9796288317229696
2025-03-30 14:47:07.967,3.1154675317200273
2025-03-30 14:47:07.967,-2.2743845627745465
2025-03-30 14:47:07.967,-5.518538789887433
2025-03-30 14:47:07.976,-3.033504758820442
2025-03-30 14:47:07.977,2.629926758908374
2025-03-30 14:47:07.977,5.490894654478377
2025-03-30 14:47:07.977,2.5320327330589665
2025-03-30 14:47:07.977,-3.1152233506018567
2025-03-30 14:47:07.986,-5.363608702780591
2025-03-30 14:47:07.987,-1.5784333036053284
2025-03-30 14:47:07.987,4.212058818871195
2025-03-30 14:47:07.987,5.319149228924577
2025-03-30 14:47:07.987,0.15529817352928538
2025-03-30 14:47:07.995,-5.354339946182875
2025-03-30 14:47:07.995,-4.686954460911506
2025-03-30 14:47:07.995,1.1716080531899573
2025-03-30 14:47:07.996,5.113798370292764
2025-03-30 14:47:07.996,3.0479542489604015
2025-03-30 14:47:08.005,-1.4929644291837258
2025-03-30 14:47:08.005,-2.931409558736001
2025-03-30 14:47:08.005,-0.9192431817007849
2025-03-30 14:47:08.006,0.5722441120912088
2025-03-30 14:47:08.006,-0.22368578939859132
2025-03-30 14:47:08.015,-0.7962368309406789
2025-03-30 14:47:08.015,0.8911567311747891
2025-03-30 14:47:08.015,2.7485182635772714
2025-03-30 14:47:08.015,1.5989790003042998
2025-03-30 14:47:08.025,-1.8663462864492453
2025-03-30 14:47:08.025,-3.620622495062327
2025-03-30 14:47:08.025,-1.544588085149606
2025-03-30 14:47:08.025,1.9002350446880658
2025-03-30 14:47:08.025,2.91976272416131
2025-03-30 14:47:08.034,0.9266814383355682
2025-03-30 14:47:08.035,-1.337251640357082
2025-03-30 14:47:08.035,-1.537619170852571
2025-03-30 14:47:08.035,-0.21995015392049744
2025-03-30 14:47:08.035,0.6257193537757411
2025-03-30 14:47:08.045,0.35016818462457505
2025-03-30 14:47:08.045,0.030200751806737307
2025-03-30 14:47:08.045,0.3607640753678583
2025-03-30 14:47:08.045,0.42909467216693087
2025-03-30 14:47:08.045,-0.6505455365220413
2025-03-30 14:47:08.054,-1.7843372476798995
2025-03-30 14:47:08.055,-1.0510166654895947
2025-03-30 14:47:08.055,1.3672713879815186
2025-03-30 14:47:08.055,2.9537693741876776
2025-03-30 14:47:08.055,1.9065718096495277
2025-03-30 14:47:08.064,-0.8376307215355532
2025-03-30 14:47:08.065,-2.999409430738534
2025-03-30 14:47:08.065,-3.162618888202392
2025-03-30 14:47:08.065,-1.2257133658935644
2025-03-30 14:47:08.065,1.9081616136150175
2025-03-30 14:47:08.073,4.241345976851427
2025-03-30 14:47:08.073,3.530761514369591
2025-03-30 14:47:08.073,-0.3362689880937333
2025-03-30 14:47:08.073,-4.248941473996082
2025-03-30 14:47:08.073,-4.5375517900770435
2025-03-30 14:47:08.085,-0.9519550469631699
2025-03-30 14:47:08.085,2.959705831508626
2025-03-30 14:47:08.085,3.748784026564406
2025-03-30 14:47:08.085,1.502190466646064
2025-03-30 14:47:08.085,-1.040094153504716
2025-03-30 14:47:08.093,-1.8832999486174598
2025-03-30 14:47:08.093,-1.3264259599850412
2025-03-30 14:47:08.093,-0.5452814350867285
2025-03-30 14:47:08.093,0.09294068488308191
2025-03-30 14:47:08.103,0.7958980877333477
2025-03-30 14:47:08.103,1.2410353023578558
2025-03-30 14:47:08.103,0.7630207766202887
2025-03-30 14:47:08.103,-0.38571590362466707
2025-03-30 14:47:08.104,-0.9789253886330319
2025-03-30 14:47:08.104,-0.4629235651230264
2025-03-30 14:47:08.113,0.2137428854441508
2025-03-30 14:47:08.113,0.0966651595569607
2025-03-30 14:47:08.113,-0.3249407873358511
2025-03-30 14:47:08.113,-0.14193679593071618
2025-03-30 14:47:08.123,0.36670466864635287
2025-03-30 14:47:08.123,0.4595910689146472
2025-03-30 14:47:08.123,0.45224800780655255
2025-03-30 14:47:08.123,0.8182416860043332
2025-03-30 14:47:08.123,0.5010580317556999
2025-03-30 14:47:08.124,-1.5583850734390035
2025-03-30 14:47:08.133,-3.4382770236426796
2025-03-30 14:47:08.133,-1.7192501455114804
2025-03-30 14:47:08.133,3.10466543247875
2025-03-30 14:47:08.134,5.562272757804409
2025-03-30 14:47:08.134,1.8487597051916493
2025-03-30 14:47:08.143,-4.3209548661883215
2025-03-30 14:47:08.143,-5.594043914141477
2025-03-30 14:47:08.143,-0.359384821866326
2025-03-30 14:47:08.144,4.885779801695737
2025-03-30 14:47:08.144,3.7678210929998004
2025-03-30 14:47:08.153,-1.842583897463383
2025-03-30 14:47:08.153,-4.5827921528358075
2025-03-30 14:47:08.153,-1.370540139546823
2025-03-30 14:47:08.153,3.0434165030131104
2025-03-30 14:47:08.163,3.0599460191778483
2025-03-30 14:47:08.163,-0.46899425649174364
2025-03-30 14:47:08.163,-2.3833325383495163
2025-03-30 14:47:08.163,-0.696826120983647
2025-03-30 14:47:08.164,1.3674967492846568
2025-03-30 14:47:08.173,0.6818137473193122
2025-03-30 14:47:08.173,-1.4220344296251475
2025-03-30 14:47:08.173,-1.5341579337128988
2025-03-30 14:47:08.173,0.7805981035804397
2025-03-30 14:47:08.173,2.447539140332438
2025-03-30 14:47:08.183,1.2147441881514178
2025-03-30 14:47:08.183,-1.3812117533542063
2025-03-30 14:47:08.183,-2.26042207909808
2025-03-30 14:47:08.183,-0.7493593888826482
2025-03-30 14:47:08.183,1.1252876508273895
2025-03-30 14:47:08.192,1.6154387659725669
2025-03-30 14:47:08.193,0.7952523902648734
2025-03-30 14:47:08.193,-0.6425888595020154
2025-03-30 14:47:08.193,-2.010758849270656
2025-03-30 14:47:08.193,-1.7882742988674114
2025-03-30 14:47:08.203,1.1697940531570519
2025-03-30 14:47:08.203,4.460199614383152
2025-03-30 14:47:08.203,3.2181955548045327
2025-03-30 14:47:08.203,-3.142039247423093
2025-03-30 14:47:08.203,-7.860941104931746
2025-03-30 14:47:08.213,-4.238960114094783
2025-03-30 14:47:08.213,5.008833097270881
2025-03-30 14:47:08.213,9.784195380472312
2025-03-30 14:47:08.213,4.544905184085433
2025-03-30 14:47:08.213,-5.003014396231699
2025-03-30 14:47:08.221,-8.825645249539404
2025-03-30 14:47:08.221,-4.015962579640573
2025-03-30 14:47:08.221,3.1073182404105437
2025-03-30 14:47:08.221,5.439940489621834
2025-03-30 14:47:08.222,2.661164979307964
2025-03-30 14:47:08.231,-0.5285315778358854
2025-03-30 14:47:08.231,-1.2568600571980002
2025-03-30 14:47:08.231,-0.9445125469807836
2025-03-30 14:47:08.231,-1.5257534996230429
2025-03-30 14:47:08.241,-2.07837295430827
2025-03-30 14:47:08.241,-0.6049474670528319
2025-03-30 14:47:08.241,2.350162685854335
2025-03-30 14:47:08.241,3.803916007916556
2025-03-30 14:47:08.241,1.922187642262986
2025-03-30 14:47:08.251,-1.8033366781067126
2025-03-30 14:47:08.251,-4.1755644382876556
2025-03-30 14:47:08.251,-3.264233257708302
2025-03-30 14:47:08.251,0.25918358628044547
2025-03-30 14:47:08.252,3.782394332015297
2025-03-30 14:47:08.261,4.508298887446483
2025-03-30 14:47:08.261,1.5843371166919225
2025-03-30 14:47:08.261,-2.7684203179816986
2025-03-30 14:47:08.261,-4.802218021530104
2025-03-30 14:47:08.261,-2.7803591436207418
2025-03-30 14:47:08.271,1.1014538382456507
2025-03-30 14:47:08.271,3.041356029896786
2025-03-30 14:47:08.271,1.966610053504164
2025-03-30 14:47:08.271,0.553494105939356
2025-03-30 14:47:08.271,1.154481656779805
2025-03-30 14:47:08.281,1.8829194456591472
2025-03-30 14:47:08.281,-0.9378711257071659
2025-03-30 14:47:08.281,-6.307129919324067
2025-03-30 14:47:08.281,-7.628994627896049
2025-03-30 14:47:08.281,-0.6926236016373275
2025-03-30 14:47:08.289,9.239395527125412
2025-03-30 14:47:08.289,11.877634800166065
2025-03-30 14:47:08.289,3.679407485930825
2025-03-30 14:47:08.290,-7.698193583962806
2025-03-30 14:47:08.299,-11.821603251169773
2025-03-30 14:47:08.299,-6.202040436885442
2025-03-30 14:47:08.299,2.789781749048163
2025-03-30 14:47:08.299,7.751918245829604
2025-03-30 14:47:08.300,6.61990702999929
2025-03-30 14:47:08.300,2.060006506613157
2025-03-30 14:47:08.309,-2.497321531104274
2025-03-30 14:47:08.309,-4.908774760128875
2025-03-30 14:47:08.309,-4.1937871584398865
2025-03-30 14:47:08.309,-0.8159740026633673
2025-03-30 14:47:08.319,2.700191948824695
2025-03-30 14:47:08.319,3.30057920506142
2025-03-30 14:47:08.319,0.7126245354366171
2025-03-30 14:47:08.319,-1.7610290073814574
2025-03-30 14:47:08.319,-1.0251596989263991
2025-03-30 14:47:08.329,1.8064877544508353
2025-03-30 14:47:08.329,2.63586581544429
2025-03-30 14:47:08.329,-0.38532409498926107
2025-03-30 14:47:08.329,-4.2327167847976
2025-03-30 14:47:08.329,-4.382731747677359
2025-03-30 14:47:08.339,-0.11408815675570258
2025-03-30 14:47:08.339,4.544734870831605
2025-03-30 14:47:08.339,5.200645130086939
2025-03-30 14:47:08.339,1.6453756971433724
2025-03-30 14:47:08.339,-2.4706073759521616
2025-03-30 14:47:08.349,-3.917167461842228
2025-03-30 14:47:08.349,-2.7289030010391637
2025-03-30 14:47:08.349,-0.7375317049683988
2025-03-30 14:47:08.349,1.1703288828687997
2025-03-30 14:47:08.349,2.971636640955653
2025-03-30 14:47:08.359,3.57804202866398
2025-03-30 14:47:08.359,1.285385425981409
2025-03-30 14:47:08.359,-3.097015121399764
2025-03-30 14:47:08.359,-5.389116580921651
2025-03-30 14:47:08.359,-2.328583769687029
2025-03-30 14:47:08.369,3.668140719971398
2025-03-30 14:47:08.369,6.172931130034045
2025-03-30 14:47:08.369,2.0848787344309727
2025-03-30 14:47:08.369,-4.230632873093846
2025-03-30 14:47:08.369,-5.792428299257631
2025-03-30 14:47:08.377,-1.2305138539809866
2025-03-30 14:47:08.377,3.8853380547842575
2025-03-30 14:47:08.377,4.087006721398614
2025-03-30 14:47:08.378,0.2549997342351618
2025-03-30 14:47:08.378,-2.4731298575778085
2025-03-30 14:47:08.387,-1.5408710892416053
2025-03-30 14:47:08.387,0.5832264872246451
2025-03-30 14:47:08.387,0.7227336215982104
2025-03-30 14:47:08.388,-0.6760245304712791
2025-03-30 14:47:08.388,-0.9767852197493114
2025-03-30 14:47:08.397,0.42836699443795545
2025-03-30 14:47:08.397,1.4997302562061605
2025-03-30 14:47:08.397,0.7856232209066797
2025-03-30 14:47:08.397,-0.66051560195767
2025-03-30 14:47:08.407,-1.0125117049486545
2025-03-30 14:47:08.407,-0.07276942046293455
2025-03-30 14:47:08.407,0.7322850155864177
2025-03-30 14:47:08.407,0.25632702185439815
2025-03-30 14:47:08.407,-0.9982894321679239
2025-03-30 14:47:08.417,-1.4504651266016497
2025-03-30 14:47:08.417,-0.22166704420070324
2025-03-30 14:47:08.417,1.779262438745337
2025-03-30 14:47:08.417,2.6049667940925705
2025-03-30 14:47:08.417,1.1565586258768998
2025-03-30 14:47:08.427,-1.5806846503202696
2025-03-30 14:47:08.427,-3.2553410147069664
2025-03-30 14:47:08.427,-2.3276424372134925
2025-03-30 14:47:08.427,0.44679600521985835
2025-03-30 14:47:08.427,2.7705833913446005
2025-03-30 14:47:08.437,2.8516726050089973
2025-03-30 14:47:08.437,0.7420308049572648
2025-03-30 14:47:08.437,-1.771818299889016
2025-03-30 14:47:08.437,-2.4779718807905793
2025-03-30 14:47:08.437,-0.7389408959234618
2025-03-30 14:47:08.447,1.4851409486936276
2025-03-30 14:47:08.447,1.4838641259994667
2025-03-30 14:47:08.447,-0.829236846165988
2025-03-30 14:47:08.447,-2.3441288691661297
2025-03-30 14:47:08.447,-0.5124677664801377
2025-03-30 14:47:08.456,2.982603609671251
2025-03-30 14:47:08.457,3.7617905337060824
2025-03-30 14:47:08.457,0.1480132218337832
2025-03-30 14:47:08.457,-4.315508440755585
2025-03-30 14:47:08.457,-4.735278433310092
2025-03-30 14:47:08.467,-0.5328786946792495
2025-03-30 14:47:08.467,3.993508981867339
2025-03-30 14:47:08.467,4.594398017127561
2025-03-30 14:47:08.467,1.3391403442474121
2025-03-30 14:47:08.467,-2.271911783598054
2025-03-30 14:47:08.475,-3.3145513880669952
2025-03-30 14:47:08.475,-1.7993327696781125
2025-03-30 14:47:08.475,0.2795997720410621
2025-03-30 14:47:08.476,1.2515077992810817
2025-03-30 14:47:08.485,1.09711974539356
2025-03-30 14:47:08.485,0.9151821964705223
2025-03-30 14:47:08.485,1.1740173956936009
2025-03-30 14:47:08.485,0.8211127227044551
2025-03-30 14:47:08.486,-1.1164734752366012
2025-03-30 14:47:08.486,-3.2843785019786993
2025-03-30 14:47:08.495,-2.88474883818925
2025-03-30 14:47:08.495,0.6073357918848747
2025-03-30 14:47:08.495,4.023246323511939
2025-03-30 14:47:08.496,3.909299678091683
2025-03-30 14:47:08.505,0.47578547624430634
2025-03-30 14:47:08.505,-2.9283234682544355
2025-03-30 14:47:08.505,-3.6255556205649655
2025-03-30 14:47:08.505,-1.7783011231031278
2025-03-30 14:47:08.506,0.7837893400418249
2025-03-30 14:47:08.515,2.5052083490776487
2025-03-30 14:47:08.515,2.65596688506566
2025-03-30 14:47:08.515,1.1538250236087104
2025-03-30 14:47:08.515,-1.2262224394605041
2025-03-30 14:47:08.515,-2.822148764559086
2025-03-30 14:47:08.525,-2.184671264588437
2025-03-30 14:47:08.525,0.37786038598518856
2025-03-30 14:47:08.525,2.6331146367794833
2025-03-30 14:47:08.525,2.353174253036332
2025-03-30 14:47:08.525,-0.29017621502082613
2025-03-30 14:47:08.535,-2.5572278765341334
2025-03-30 14:47:08.535,-1.9516844348689482
2025-03-30 14:47:08.535,0.8196282888548652
2025-03-30 14:47:08.535,2.4766914830350486
2025-03-30 14:47:08.535,1.1106698662722363
2025-03-30 14:47:08.545,-1.3916404126500175
2025-03-30 14:47:08.545,-1.8294793290572897
2025-03-30 14:47:08.545,0.056766931931589604
2025-03-30 14:47:08.545,1.4228906575491453
2025-03-30 14:47:08.545,0.4904178904780159
2025-03-30 14:47:08.553,-1.023938442784001
2025-03-30 14:47:08.553,-0.7142196662843867
2025-03-30 14:47:08.553,0.8610769907793723
2025-03-30 14:47:08.554,1.1694419142615755
2025-03-30 14:47:08.554,-0.40718233927657344
2025-03-30 14:47:08.563,-1.651788064413369
2025-03-30 14:47:08.563,-0.6336107102206278
2025-03-30 14:47:08.563,1.6221310859412614
2025-03-30 14:47:08.564,2.216711747569735
2025-03-30 14:47:08.564,-0.16374939705645133
2025-03-30 14:47:08.573,-3.187220624670211
2025-03-30 14:47:08.573,-2.919385511722045
2025-03-30 14:47:08.574,1.3602488370822963
2025-03-30 14:47:08.574,5.182176440763079
2025-03-30 14:47:08.574,3.502564166231596
2025-03-30 14:47:08.583,-2.7552978009140316
2025-03-30 14:47:08.583,-6.857685660269056
2025-03-30 14:47:08.584,-3.8893867808763396
2025-03-30 14:47:08.584,3.303697441369243
2025-03-30 14:47:08.593,7.243219659925371
2025-03-30 14:47:08.593,4.1611175875766335
2025-03-30 14:47:08.593,-2.312764692854691
2025-03-30 14:47:08.593,-5.781960150991154
2025-03-30 14:47:08.593,-3.895493682824983
2025-03-30 14:47:08.603,0.31327241745638057
2025-03-30 14:47:08.603,2.8263088037786988
2025-03-30 14:47:08.603,2.665331405676311
2025-03-30 14:47:08.603,1.3699613912933577
2025-03-30 14:47:08.604,0.17225039130416248
2025-03-30 14:47:08.613,-0.8865828975231793
2025-03-30 14:47:08.613,-1.7108645868370684
2025-03-30 14:47:08.613,-1.6652627336835946
2025-03-30 14:47:08.613,-0.5607341095378676
2025-03-30 14:47:08.613,0.8637890326288065
2025-03-30 14:47:08.623,1.6392735861643526
2025-03-30 14:47:08.623,1.20872217516797
2025-03-30 14:47:08.623,-0.26773526244623247
2025-03-30 14:47:08.623,-1.5414391612898075
2025-03-30 14:47:08.623,-0.9464674171869999
2025-03-30 14:47:08.633,1.3318972519103682
2025-03-30 14:47:08.633,2.3881155857563416
2025-03-30 14:47:08.633,-0.108094744304093
2025-03-30 14:47:08.633,-3.905324673363074
2025-03-30 14:47:08.633,-3.8453017015155995
2025-03-30 14:47:08.643,1.4361503652071705
2025-03-30 14:47:08.643,6.527784297056641
2025-03-30 14:47:08.643,5.05942413131249
2025-03-30 14:47:08.643,-2.318290828696685
2025-03-30 14:47:08.643,-7.955876210532736
2025-03-30 14:47:08.653,-5.625478932964711
2025-03-30 14:47:08.653,2.4370257612655264
2025-03-30 14:47:08.653,7.895682534047761
2025-03-30 14:47:08.653,5.371101216748319
2025-03-30 14:47:08.653,-1.9579617479202838
2025-03-30 14:47:08.663,-6.3802415366643634
2025-03-30 14:47:08.663,-4.253889969933265
2025-03-30 14:47:08.663,0.986146812181506
2025-03-30 14:47:08.663,3.907626461807903
2025-03-30 14:47:08.663,2.840337529820709
2025-03-30 14:47:08.671,0.026157906802283776
2025-03-30 14:47:08.671,-1.8040099592391472
2025-03-30 14:47:08.671,-1.627591269624435
2025-03-30 14:47:08.672,-0.16476673638722497
2025-03-30 14:47:08.672,0.958953534177842
2025-03-30 14:47:08.681,0.5841655610059568
2025-03-30 14:47:08.681,-0.7098450732889842
2025-03-30 14:47:08.681,-1.1155327609472858
2025-03-30 14:47:08.682,0.16531171426003588
2025-03-30 14:47:08.691,1.7183809424354144
2025-03-30 14:47:08.691,1.5650911151291282
2025-03-30 14:47:08.691,-0.31243529334046044
2025-03-30 14:47:08.691,-1.8780805735848745
2025-03-30 14:47:08.691,-1.5806667340739833
2025-03-30 14:47:08.701,-0.1865702515933791
2025-03-30 14:47:08.701,0.5990192034012582
2025-03-30 14:47:08.701,0.6811358396573337
2025-03-30 14:47:08.701,1.2604740309536764
2025-03-30 14:47:08.701,1.9984681953694214
2025-03-30 14:47:08.711,0.7300334797710935
2025-03-30 14:47:08.711,-2.712389809329705
2025-03-30 14:47:08.711,-4.565027239710221
2025-03-30 14:47:08.711,-1.598602057071258
2025-03-30 14:47:08.712,3.6873437204911106
2025-03-30 14:47:08.721,5.371350625496287
2025-03-30 14:47:08.721,1.5352254128938587
2025-03-30 14:47:08.721,-3.343362251184786
2025-03-30 14:47:08.721,-4.125884325292178
2025-03-30 14:47:08.721,-0.9507829379446033
2025-03-30 14:47:08.731,1.9323010755056989
2025-03-30 14:47:08.731,1.8618886863857076
2025-03-30 14:47:08.731,0.3145327781272913
2025-03-30 14:47:08.731,-0.1715678509779923
2025-03-30 14:47:08.731,0.33269647801761437
2025-03-30 14:47:08.741,-0.056328993541697674
2025-03-30 14:47:08.741,-1.5056317315022012
2025-03-30 14:47:08.741,-1.7950317951379444
2025-03-30 14:47:08.741,0.34711992621236226
2025-03-30 14:47:08.741,2.824864661539824
2025-03-30 14:47:08.751,2.45150681452644
2025-03-30 14:47:08.751,-0.8689719095649406
2025-03-30 14:47:08.751,-3.611053765434961
2025-03-30 14:47:08.751,-2.6486814012336506
2025-03-30 14:47:08.751,1.0830494499747885
2025-03-30 14:47:08.759,3.6989259428591375
2025-03-30 14:47:08.759,2.7074184667329617
2025-03-30 14:47:08.759,-0.6023582044426815
2025-03-30 14:47:08.760,-3.0102091942665994
2025-03-30 14:47:08.760,-2.706305016168698
2025-03-30 14:47:08.771,-0.4759027272947173
2025-03-30 14:47:08.771,1.7247545347512359
2025-03-30 14:47:08.771,2.5710874406952695
2025-03-30 14:47:08.771,1.8216610010479575
2025-03-30 14:47:08.771,-0.15018254455387464
2025-03-30 14:47:08.779,-2.4556005852597713
2025-03-30 14:47:08.779,-3.4471221155149734
2025-03-30 14:47:08.779,-1.5119224579727681
2025-03-30 14:47:08.780,2.7939468966123155
2025-03-30 14:47:08.780,5.7167131989326245
2025-03-30 14:47:08.789,3.2115999384993095
2025-03-30 14:47:08.789,-3.837130813338762
2025-03-30 14:47:08.789,-8.545357238880793
2025-03-30 14:47:08.790,-4.716578672015
2025-03-30 14:47:08.799,5.084767881884918
2025-03-30 14:47:08.799,10.714933583954366
2025-03-30 14:47:08.799,5.502813057635761
2025-03-30 14:47:08.799,-5.470202432726398
2025-03-30 14:47:08.799,-10.642148904407192
2025-03-30 14:47:08.809,-5.077441755453511
2025-03-30 14:47:08.809,4.405814035120284
2025-03-30 14:47:08.809,7.886811903727396
2025-03-30 14:47:08.809,3.445942923909902
2025-03-30 14:47:08.809,-2.440519984087334
2025-03-30 14:47:08.819,-3.7887396872875794
2025-03-30 14:47:08.819,-1.2259759519686637
2025-03-30 14:47:08.819,0.8490908320054874
2025-03-30 14:47:08.819,0.3966976980619906
2025-03-30 14:47:08.819,-0.7544395831165362
2025-03-30 14:47:08.829,-0.39955174363386947
2025-03-30 14:47:08.829,1.0905184326475352
2025-03-30 14:47:08.829,1.7768523092492725
2025-03-30 14:47:08.829,0.8713538188439968
2025-03-30 14:47:08.829,-0.6392521311065207
2025-03-30 14:47:08.839,-1.620456461599172
2025-03-30 14:47:08.839,-1.8111071997221646
2025-03-30 14:47:08.839,-1.1139119532148742
2025-03-30 14:47:08.839,0.7841574045946308
2025-03-30 14:47:08.839,3.094296716632794
2025-03-30 14:47:08.849,3.2509205001503547
2025-03-30 14:47:08.849,-0.3641205228096423
2025-03-30 14:47:08.849,-4.838775066203955
2025-03-30 14:47:08.849,-4.529399574919021
2025-03-30 14:47:08.849,1.623312146063287
2025-03-30 14:47:08.857,6.815594782841598
2025-03-30 14:47:08.857,3.927814012562131
2025-03-30 14:47:08.857,-4.522508543510158
2025-03-30 14:47:08.858,-8.242237724039677
2025-03-30 14:47:08.858,-2.002131531727538
2025-03-30 14:47:08.867,7.183632680973285
2025-03-30 14:47:08.867,8.433497320361544
2025-03-30 14:47:08.867,0.3167416770059136
2025-03-30 14:47:08.868,-7.740127188794579
2025-03-30 14:47:08.877,-7.123317679574173
2025-03-30 14:47:08.877,0.2927784053870093
2025-03-30 14:47:08.877,5.807649536829356
2025-03-30 14:47:08.877,4.7397054978056
2025-03-30 14:47:08.878,0.3308099802562597
2025-03-30 14:47:08.887,-2.4088316422941176
2025-03-30 14:47:08.887,-2.639308690178827
2025-03-30 14:47:08.887,-2.0099722077940436
2025-03-30 14:47:08.887,-0.655531412550576
2025-03-30 14:47:08.888,1.8561551450364393
2025-03-30 14:47:08.897,3.5988472549610107
2025-03-30 14:47:08.897,2.0596823319201727
2025-03-30 14:47:08.897,-1.6657751825078388
2025-03-30 14:47:08.897,-3.6067504721645003
2025-03-30 14:47:08.898,-2.0072497866111436
2025-03-30 14:47:08.907,0.8122844288227318
2025-03-30 14:47:08.907,1.9984481954388433
2025-03-30 14:47:08.907,1.3789091820202743
2025-03-30 14:47:08.908,0.45676145308461763
2025-03-30 14:47:08.908,-0.059861477298515334
2025-03-30 14:47:08.917,-0.5400408588676788
2025-03-30 14:47:08.917,-1.0702835580275951
2025-03-30 14:47:08.917,-1.0627909491319607
2025-03-30 14:47:08.917,-0.3006300457495891
2025-03-30 14:47:08.918,0.5309648329554668
2025-03-30 14:47:08.927,0.8444562581828505
2025-03-30 14:47:08.927,0.9304354514385649
2025-03-30 14:47:08.927,1.0058609008527344
2025-03-30 14:47:08.927,0.3420324410620854
2025-03-30 14:47:08.928,-1.3992246616239594
2025-03-30 14:47:08.937,-2.6306289905714304
2025-03-30 14:47:08.937,-1.3949087913364862
2025-03-30 14:47:08.937,1.585895492641205
2025-03-30 14:47:08.937,3.1632349169238503
2025-03-30 14:47:08.937,1.608752011744459
2025-03-30 14:47:08.947,-1.203603747071864
2025-03-30 14:47:08.947,-2.3112681711292105
2025-03-30 14:47:08.947,-1.1987078039621797
2025-03-30 14:47:08.947,0.33544866930354283
2025-03-30 14:47:08.947,0.9345833607506933
2025-03-30 14:47:08.955,0.7743938457549864
2025-03-30 14:47:08.955,0.3414481806424532
2025-03-30 14:47:08.956,-0.2171172941423256
2025-03-30 14:47:08.956,-0.4967036086381143
2025-03-30 14:47:08.956,-0.07435712121123661
2025-03-30 14:47:08.967,0.45341915023181967
2025-03-30 14:47:08.967,0.03728442207489522
2025-03-30 14:47:08.967,-0.9562103094004862
2025-03-30 14:47:08.967,-0.8819907495894131
2025-03-30 14:47:08.967,0.6227411130260117
2025-03-30 14:47:08.975,1.6608193887631557
2025-03-30 14:47:08.975,0.708808194448853
2025-03-30 14:47:08.975,-0.9712564319250255
2025-03-30 14:47:08.976,-1.098446082084367
2025-03-30 14:47:08.976,0.18134094443891793
2025-03-30 14:47:08.987,0.563361907092467
2025-03-30 14:47:08.987,-0.6980646659794536
2025-03-30 14:47:08.987,-1.3934662632877715
2025-03-30 14:47:08.987,0.3363547176312258
2025-03-30 14:47:08.988,2.7942938651258107
2025-03-30 14:47:08.997,2.532634021400984
2025-03-30 14:47:08.997,-0.98901212883129
2025-03-30 14:47:08.997,-4.1648663638305115
2025-03-30 14:47:08.997,-3.298673470653588
2025-03-30 14:47:08.997,0.9882127344662062
2025-03-30 14:47:09.007,4.341221375473481
2025-03-30 14:47:09.007,3.4511510806434225
2025-03-30 14:47:09.007,-0.5355799782889049
2025-03-30 14:47:09.007,-3.5400690122337912
2025-03-30 14:47:09.007,-2.9290027047888025
2025-03-30 14:47:09.015,0.0862756791024398
2025-03-30 14:47:09.015,2.2753003459860226
2025-03-30 14:47:09.016,1.9602603220619599
2025-03-30 14:47:09.016,0.2386820381475889
2025-03-30 14:47:09.016,-0.9754511275586635
2025-03-30 14:47:09.027,-1.0766628491745491
2025-03-30 14:47:09.027,-0.6359023680159623
2025-03-30 14:47:09.027,-0.08878075503472926
2025-03-30 14:47:09.027,0.6060912197720552
2025-03-30 14:47:09.027,1.2456143382156883
2025-03-30 14:47:09.035,1.0416420633526855
2025-03-30 14:47:09.035,-0.5025933231020929
2025-03-30 14:47:09.036,-2.3211726957062844
2025-03-30 14:47:09.036,-2.130471831315313
2025-03-30 14:47:09.036,0.8884484571612883
2025-03-30 14:47:09.045,3.9911883971787914
2025-03-30 14:47:09.045,3.1498325426344413
2025-03-30 14:47:09.045,-1.7818224075263633
2025-03-30 14:47:09.046,-5.683615565581814
2025-03-30 14:47:09.055,-3.66731581654202
2025-03-30 14:47:09.055,2.638130963299667
2025-03-30 14:47:09.055,6.344995162678613
2025-03-30 14:47:09.055,3.3171921875307167
2025-03-30 14:47:09.056,-2.8658738946619566
2025-03-30 14:47:09.065,-5.304274260127908
2025-03-30 14:47:09.065,-1.9910326760684252
2025-03-30 14:47:09.065,2.403031211745161
2025-03-30 14:47:09.066,2.927326781472248
2025-03-30 14:47:09.066,0.25624800826086835
2025-03-30 14:47:09.075,-1.3360242470175023
2025-03-30 14:47:09.075,-0.3251273287951647
2025-03-30 14:47:09.075,0.6207546155068632
2025-03-30 14:47:09.075,-0.40636745574187244
2025-03-30 14:47:09.076,-1.363643838233969
2025-03-30 14:47:09.085,0.14537817534431702
2025-03-30 14:47:09.085,2.4197966406942903
2025-03-30 14:47:09.085,1.7457634584390465
2025-03-30 14:47:09.085,-1.8527135921633597
2025-03-30 14:47:09.085,-3.923909934142317
2025-03-30 14:47:09.094,-1.370377598262334
2025-03-30 14:47:09.095,3.198441859550487
2025-03-30 14:47:09.095,4.499587574762614
2025-03-30 14:47:09.095,1.016061624368757
2025-03-30 14:47:09.095,-3.3722610686424197
2025-03-30 14:47:09.105,-4.1852705622805235
2025-03-30 14:47:09.105,-1.1674162931869825
2025-03-30 14:47:09.105,2.3100416638209715
2025-03-30 14:47:09.105,3.3363958576637756
2025-03-30 14:47:09.105,1.7716987657087278
2025-03-30 14:47:09.113,-0.7174199517533686
2025-03-30 14:47:09.113,-2.4004888744419786
2025-03-30 14:47:09.114,-2.2607360966808714
2025-03-30 14:47:09.114,-0.4034345804138503
2025-03-30 14:47:09.114,1.649961718119746
2025-03-30 14:47:09.125,1.9648978361041882
2025-03-30 14:47:09.125,0.36298857172407184
2025-03-30 14:47:09.125,-1.0417238063791472
2025-03-30 14:47:09.125,-0.48744412806758114
2025-03-30 14:47:09.125,0.8587747535260976
2025-03-30 14:47:09.135,0.45274735414124384
2025-03-30 14:47:09.135,-1.7041921409197998
2025-03-30 14:47:09.135,-2.5650515552081576
2025-03-30 14:47:09.135,-0.16001061798397798
2025-03-30 14:47:09.135,3.2914875947131725
2025-03-30 14:47:09.145,3.7834305026271102
2025-03-30 14:47:09.145,0.43551592811550555
2025-03-30 14:47:09.145,-3.3660608696102234
2025-03-30 14:47:09.145,-3.8470908625445976
2025-03-30 14:47:09.145,-0.8733901827870238
2025-03-30 14:47:09.153,2.326938626749654
2025-03-30 14:47:09.153,2.823106808673196
2025-03-30 14:47:09.153,0.7599714792861281
2025-03-30 14:47:09.154,-1.3058673609656137
2025-03-30 14:47:09.154,-1.3383412377184523
2025-03-30 14:47:09.165,0.12971274984123243
2025-03-30 14:47:09.165,0.9199726472069409
2025-03-30 14:47:09.165,-0.0011396410391973089
2025-03-30 14:47:09.165,-1.2538559546526657
2025-03-30 14:47:09.165,-0.9420866542151072
2025-03-30 14:47:09.173,0.7786877594801848
2025-03-30 14:47:09.173,1.8789038455762284
2025-03-30 14:47:09.174,1.0304088214427896
2025-03-30 14:47:09.174,-0.8528258540887667
2025-03-30 14:47:09.174,-1.8284588523017713
2025-03-30 14:47:09.185,-1.0669435188311607
2025-03-30 14:47:09.185,0.5131322040849187
2025-03-30 14:47:09.185,1.382840792852826
2025-03-30 14:47:09.185,0.8954265734851267
2025-03-30 14:47:09.185,-0.23246624440084984
2025-03-30 14:47:09.193,-0.7956373116280422
2025-03-30 14:47:09.193,-0.39837589762032644
2025-03-30 14:47:09.193,0.25892813018358757
2025-03-30 14:47:09.194,0.34560615048506127
2025-03-30 14:47:09.203,-0.1668604724909593
2025-03-30 14:47:09.203,-0.6102266282383642
2025-03-30 14:47:09.203,-0.3825859534771293
2025-03-30 14:47:09.203,0.445459941693877
2025-03-30 14:47:09.204,1.1222018695570473
2025-03-30 14:47:09.213,0.897786516585388
2025-03-30 14:47:09.213,-0.18893720616967763
2025-03-30 14:47:09.213,-1.3628146292731984
2025-03-30 14:47:09.213,-1.8113545430912417
2025-03-30 14:47:09.213,-1.007592990035111
2025-03-30 14:47:09.223,1.1135819235864137
2025-03-30 14:47:09.223,3.3625538822423136
2025-03-30 14:47:09.223,3.2472069770494216
2025-03-30 14:47:09.223,-0.5382395884729264
2025-03-30 14:47:09.223,-5.300764583697245
2025-03-30 14:47:09.233,-5.8607739062169255
2025-03-30 14:47:09.233,-0.31101815692182766
2025-03-30 14:47:09.233,6.594816034530905
2025-03-30 14:47:09.233,7.679944400015306
2025-03-30 14:47:09.233,1.3295809877961513
2025-03-30 14:47:09.243,-6.23407744917883
2025-03-30 14:47:09.243,-7.62686142577447
2025-03-30 14:47:09.243,-2.1873040024793196
2025-03-30 14:47:09.243,4.078446465095425
2025-03-30 14:47:09.243,5.602785177016196
2025-03-30 14:47:09.251,2.5156742413069426
2025-03-30 14:47:09.251,-1.151384198792353
2025-03-30 14:47:09.251,-2.567334525231575
2025-03-30 14:47:09.252,-2.120672339123536
2025-03-30 14:47:09.252,-1.2428754010105652
2025-03-30 14:47:09.263,-0.16903429862654887
2025-03-30 14:47:09.263,1.353562263845193
2025-03-30 14:47:09.263,2.3841158171801946
2025-03-30 14:47:09.263,1.512145795346397
2025-03-30 14:47:09.263,-0.80558943281183
2025-03-30 14:47:09.271,-2.184319449744501
2025-03-30 14:47:09.271,-1.2070005354553497
2025-03-30 14:47:09.271,0.72002554554457
2025-03-30 14:47:09.272,1.2269879581552623
2025-03-30 14:47:09.281,-0.04866385640567625
2025-03-30 14:47:09.281,-1.2146466753911038
2025-03-30 14:47:09.281,-0.5343695589730937
2025-03-30 14:47:09.282,1.4830360570399772
2025-03-30 14:47:09.282,2.426222927350195
2025-03-30 14:47:09.291,0.5623808145311328
2025-03-30 14:47:09.291,-2.7202770937192953
2025-03-30 14:47:09.291,-3.77871679570496
2025-03-30 14:47:09.291,-0.890947733293035
2025-03-30 14:47:09.292,3.1704035238208634
2025-03-30 14:47:09.301,4.1092647701551
2025-03-30 14:47:09.301,1.2011157684486535
2025-03-30 14:47:09.301,-2.18469610569599
2025-03-30 14:47:09.301,-3.00503487640177
2025-03-30 14:47:09.302,-1.6205457690135656
2025-03-30 14:47:09.311,-0.006879718532482648
2025-03-30 14:47:09.311,1.1621809055602796
2025-03-30 14:47:09.311,2.1829814779330903
2025-03-30 14:47:09.311,2.3456017612230013
2025-03-30 14:47:09.311,0.4683895526546647
2025-03-30 14:47:09.321,-2.57343294802357
2025-03-30 14:47:09.321,-3.7750662820828627
2025-03-30 14:47:09.321,-1.4331107262109692
2025-03-30 14:47:09.321,2.3851162247641216
2025-03-30 14:47:09.321,3.8958008591267124
2025-03-30 14:47:09.329,1.7643769739429975
2025-03-30 14:47:09.329,-1.6161947829350303
2025-03-30 14:47:09.329,-2.9570069033689954
2025-03-30 14:47:09.330,-1.4961674759155403
2025-03-30 14:47:09.330,0.6976183621489037
2025-03-30 14:47:09.339,1.4127138199446965
2025-03-30 14:47:09.339,0.6338177140933792
2025-03-30 14:47:09.339,-0.020962901746052726
2025-03-30 14:47:09.340,0.2799824997444492
2025-03-30 14:47:09.349,0.534561837850521
2025-03-30 14:47:09.349,-0.38829070779428715
2025-03-30 14:47:09.349,-1.6882006769791218
2025-03-30 14:47:09.350,-1.3953298143179171
2025-03-30 14:47:09.350,0.7384928715802814
2025-03-30 14:47:09.359,2.390032444420585
2025-03-30 14:47:09.359,1.4995167307247752
2025-03-30 14:47:09.359,-1.0021904186354686
2025-03-30 14:47:09.359,-2.363699272107641
2025-03-30 14:47:09.359,-1.2682002766371376
2025-03-30 14:47:09.369,1.0778667406495768
2025-03-30 14:47:09.369,2.506621223863151
2025-03-30 14:47:09.369,1.6134640034200103
2025-03-30 14:47:09.369,-1.2782982046324436
2025-03-30 14:47:09.369,-3.7413461506925656
2025-03-30 14:47:09.379,-2.75105601440366
2025-03-30 14:47:09.379,1.7931879839327396
2025-03-30 14:47:09.379,5.610755402779863
2025-03-30 14:47:09.379,4.080002996769676
2025-03-30 14:47:09.379,-2.0571115333558665
2025-03-30 14:47:09.389,-6.727881846821559
2025-03-30 14:47:09.389,-5.0166021743094
2025-03-30 14:47:09.390,1.442376152767064
2025-03-30 14:47:09.390,6.333765228585666
2025-03-30 14:47:09.390,5.272717832297353
2025-03-30 14:47:09.399,-0.18093352548734032
2025-03-30 14:47:09.399,-4.7357627450296444
2025-03-30 14:47:09.399,-4.716201072528598
2025-03-30 14:47:09.399,-0.9908707081049675
2025-03-30 14:47:09.399,2.706174575784798
2025-03-30 14:47:09.409,3.5146597850909806
2025-03-30 14:47:09.409,1.542811629048955
2025-03-30 14:47:09.409,-0.9439410285506711
2025-03-30 14:47:09.409,-1.909769848110629
2025-03-30 14:47:09.410,-1.2605071843012459
2025-03-30 14:47:09.417,-0.33536664482433914
2025-03-30 14:47:09.417,0.06264848860105769
2025-03-30 14:47:09.418,0.43613966613284966
2025-03-30 14:47:09.418,1.19932493880119
2025-03-30 14:47:09.418,1.542386987133769
2025-03-30 14:47:09.427,0.48963243199896056
2025-03-30 14:47:09.427,-1.5150653861635164
2025-03-30 14:47:09.428,-2.750910544461599
2025-03-30 14:47:09.428,-1.7067693641670623
2025-03-30 14:47:09.428,1.4495977825403288
2025-03-30 14:47:09.437,4.2317286462773485
2025-03-30 14:47:09.437,3.3507654186529967
2025-03-30 14:47:09.437,-1.5128135971840357
2025-03-30 14:47:09.438,-5.86031853052558
2025-03-30 14:47:09.447,-4.584676603765958
2025-03-30 14:47:09.447,1.5733839656351558
2025-03-30 14:47:09.447,6.09086980383624
2025-03-30 14:47:09.448,4.292518663190709
2025-03-30 14:47:09.448,-1.13744635709111
2025-03-30 14:47:09.457,-4.000953238273693
2025-03-30 14:47:09.457,-2.293829619705226
2025-03-30 14:47:09.457,0.4222962777368714
2025-03-30 14:47:09.457,0.728990609053476
2025-03-30 14:47:09.458,-0.42019349583292753
2025-03-30 14:47:09.467,-0.14853439978147703
2025-03-30 14:47:09.467,1.7133733524824197
2025-03-30 14:47:09.467,2.4899262839855716
2025-03-30 14:47:09.467,0.6271086095932692
2025-03-30 14:47:09.468,-2.1392167212709206
2025-03-30 14:47:09.477,-3.091657709872955
2025-03-30 14:47:09.477,-1.6523821172723752
2025-03-30 14:47:09.477,0.6519924196290217
2025-03-30 14:47:09.477,2.3001640864725306
2025-03-30 14:47:09.477,2.684638829515532
2025-03-30 14:47:09.487,1.5866115427392322
2025-03-30 14:47:09.487,-0.7610997326099067
2025-03-30 14:47:09.487,-2.9729886654117212
2025-03-30 14:47:09.487,-3.112446029013548
2025-03-30 14:47:09.487,-0.7413199056737472
2025-03-30 14:47:09.497,2.161773692870738
2025-03-30 14:47:09.497,3.0675491964405945
2025-03-30 14:47:09.497,1.533978024066461
2025-03-30 14:47:09.497,-0.6102087684813972
2025-03-30 14:47:09.497,-1.590756570441738
2025-03-30 14:47:09.507,-1.3857606850276032
2025-03-30 14:47:09.507,-0.9012192346536049
2025-03-30 14:47:09.507,-0.3790303527204542
2025-03-30 14:47:09.507,0.5286055629957217
2025-03-30 14:47:09.507,1.5355227489367425
2025-03-30 14:47:09.515,1.6627356712149237
2025-03-30 14:47:09.515,0.5886372910749071
2025-03-30 14:47:09.516,-0.7774420919246461
2025-03-30 14:47:09.516,-1.4538258216263673
2025-03-30 14:47:09.516,-1.4270424424200598
2025-03-30 14:47:09.527,-1.0661275467019817
2025-03-30 14:47:09.527,-0.20795491917296094
2025-03-30 14:47:09.527,1.356329850567608
2025-03-30 14:47:09.527,2.7984084445735586
2025-03-30 14:47:09.528,2.54463878398066
2025-03-30 14:47:09.535,-0.008632476568620817
2025-03-30 14:47:09.535,-3.296547600634767
2025-03-30 14:47:09.535,-4.4814142899549925
2025-03-30 14:47:09.536,-2.0170035335611534
2025-03-30 14:47:09.545,2.4255652040109283
2025-03-30 14:47:09.545,5.0011083098502835
2025-03-30 14:47:09.545,3.3176493170971795
2025-03-30 14:47:09.545,-0.9651301787213526
2025-03-30 14:47:09.546,-3.7412644632981458
2025-03-30 14:47:09.555,-2.8207352053595613
2025-03-30 14:47:09.555,-0.04037579152366752
2025-03-30 14:47:09.555,1.3937031328339486
2025-03-30 14:47:09.555,0.8115079338842505
2025-03-30 14:47:09.555,0.1418690231897998
2025-03-30 14:47:09.565,0.560730554015161
2025-03-30 14:47:09.565,0.9623990712422046
2025-03-30 14:47:09.565,0.25862640998918074
2025-03-30 14:47:09.565,-0.6741272788303673
2025-03-30 14:47:09.566,-0.676600957450469
2025-03-30 14:47:09.575,-0.48164856767585995
2025-03-30 14:47:09.575,-1.2640431407646997
2025-03-30 14:47:09.575,-1.8476844416582132
2025-03-30 14:47:09.575,0.12048265652110184
2025-03-30 14:47:09.575,3.880021661411909
2025-03-30 14:47:09.585,4.972282146538864
2025-03-30 14:47:09.585,0.6895252585146211
2025-03-30 14:47:09.585,-5.393362795945126
2025-03-30 14:47:09.586,-6.721150806359811
2025-03-30 14:47:09.586,-1.4627514361515765
2025-03-30 14:47:09.595,5.0743951421101805
2025-03-30 14:47:09.595,6.388002186857314
2025-03-30 14:47:09.595,1.7907950304339533
2025-03-30 14:47:09.595,-3.523091382165512
2025-03-30 14:47:09.595,-4.602348667590426
2025-03-30 14:47:09.605,-1.5604209749859463
2025-03-30 14:47:09.605,1.7362511222933312
2025-03-30 14:47:09.605,2.4123140568147647
2025-03-30 14:47:09.605,0.985654460989378
2025-03-30 14:47:09.606,-0.37747511241453413
2025-03-30 14:47:09.615,-0.6207513248272347
2025-03-30 14:47:09.615,-0.34041516466006155
2025-03-30 14:47:09.615,-0.3434778802809048
2025-03-30 14:47:09.615,-0.5320974282058314
2025-03-30 14:47:09.615,-0.28550905929508547
2025-03-30 14:47:09.625,0.5389604903378635
2025-03-30 14:47:09.625,1.2704836485426034
2025-03-30 14:47:09.625,0.9978438829769594
2025-03-30 14:47:09.625,-0.47339605489447706
2025-03-30 14:47:09.625,-2.004280090343309
2025-03-30 14:47:09.635,-1.7866628044381727
2025-03-30 14:47:09.635,0.5878646960261829
2025-03-30 14:47:09.635,2.856524020872403
2025-03-30 14:47:09.635,2.157857509338345
2025-03-30 14:47:09.635,-1.181573499706749
2025-03-30 14:47:09.645,-3.322471310612422
2025-03-30 14:47:09.645,-1.517214102531785
2025-03-30 14:47:09.645,2.048690783761911
2025-03-30 14:47:09.645,2.809646276087564
2025-03-30 14:47:09.645,-0.14298331119037674
2025-03-30 14:47:09.653,-2.7454645231198302
2025-03-30 14:47:09.653,-1.4258366619051435
2025-03-30 14:47:09.654,2.0461974981921935
2025-03-30 14:47:09.654,2.974865999368142
2025-03-30 14:47:09.654,0.02709074262177444
2025-03-30 14:47:09.663,-3.1212739194118626
2025-03-30 14:47:09.663,-2.665442075255174
2025-03-30 14:47:09.664,0.6496458966620036
2025-03-30 14:47:09.664,2.863351387157505
2025-03-30 14:47:09.664,1.8060200693539683
2025-03-30 14:47:09.673,-0.726517662305162
2025-03-30 14:47:09.673,-1.7239432283876153
2025-03-30 14:47:09.673,-0.5401879894304357
2025-03-30 14:47:09.674,0.9133586739691659
2025-03-30 14:47:09.683,0.7879908917932221
2025-03-30 14:47:09.683,-0.6979175496759741
2025-03-30 14:47:09.683,-1.7144071697331373
2025-03-30 14:47:09.683,-0.8331645766015231
2025-03-30 14:47:09.683,1.4014657969599469
2025-03-30 14:47:09.693,2.8142133510369614
2025-03-30 14:47:09.693,1.7087305472293273
2025-03-30 14:47:09.693,-1.233263386523853
2025-03-30 14:47:09.693,-3.375544201389292
2025-03-30 14:47:09.693,-2.6763505880962177
2025-03-30 14:47:09.703,0.2670648644864574
2025-03-30 14:47:09.703,2.865762169317721
2025-03-30 14:47:09.703,3.0565557315900147
2025-03-30 14:47:09.703,0.9768853062389454
2025-03-30 14:47:09.703,-1.521895418588586
2025-03-30 14:47:09.711,-2.552400758033959
2025-03-30 14:47:09.711,-1.6359037342730787
2025-03-30 14:47:09.712,0.030402265529303994
2025-03-30 14:47:09.712,0.9443812012822541
2025-03-30 14:47:09.712,1.056984320485037
2025-03-30 14:47:09.721,1.3775468750056064
2025-03-30 14:47:09.721,1.692804490323603
2025-03-30 14:47:09.722,0.3328639936834371
2025-03-30 14:47:09.722,-2.735424725143576
2025-03-30 14:47:09.731,-4.286537303157823
2025-03-30 14:47:09.731,-1.4597506094665744
2025-03-30 14:47:09.731,3.643297512386944
2025-03-30 14:47:09.732,5.421568102668667
2025-03-30 14:47:09.732,1.5272841904065027
2025-03-30 14:47:09.732,-3.739933447752663
2025-03-30 14:47:09.741,-4.449292123196958
2025-03-30 14:47:09.741,-0.3677990844916881
2025-03-30 14:47:09.741,3.0567407898640417
2025-03-30 14:47:09.742,1.982416702160147
2025-03-30 14:47:09.742,-1.2185424492724752
2025-03-30 14:47:09.751,-1.915214998133858
2025-03-30 14:47:09.751,0.3917399626026969
2025-03-30 14:47:09.752,2.046679528685739
2025-03-30 14:47:09.752,0.7663912868462404
2025-03-30 14:47:09.761,-1.4646678353226115
2025-03-30 14:47:09.761,-1.643614880724147
2025-03-30 14:47:09.761,0.11944150625663083
2025-03-30 14:47:09.762,1.2572538849295667
2025-03-30 14:47:09.762,0.5330960115671393
2025-03-30 14:47:09.771,-0.6320249231337931
2025-03-30 14:47:09.771,-0.5921885981696654
2025-03-30 14:47:09.771,0.3171839045363556
2025-03-30 14:47:09.772,0.6885163083287649
2025-03-30 14:47:09.772,0.17291745272302506
2025-03-30 14:47:09.781,-0.3261212708134418
2025-03-30 14:47:09.781,-0.25230495837215544
2025-03-30 14:47:09.781,-0.12394194579190654
2025-03-30 14:47:09.782,-0.40309581579477616
2025-03-30 14:47:09.782,-0.5059473112735468
2025-03-30 14:47:09.791,0.2914631310026618
2025-03-30 14:47:09.791,1.3683333973585114
2025-03-30 14:47:09.791,1.2044608810485748
2025-03-30 14:47:09.791,-0.48867879388659374
2025-03-30 14:47:09.792,-1.9927735216763243
2025-03-30 14:47:09.801,-1.5921420564905986
2025-03-30 14:47:09.801,0.2793071229380714
2025-03-30 14:47:09.801,1.748661767473814
2025-03-30 14:47:09.802,1.8233671942671952
2025-03-30 14:47:09.802,0.902953513901084
2025-03-30 14:47:09.811,-0.5294580904327569
2025-03-30 14:47:09.811,-2.1471436129623998
2025-03-30 14:47:09.811,-2.7801039489218162
2025-03-30 14:47:09.811,-1.0392504909444185
2025-03-30 14:47:09.812,2.31843501051456
2025-03-30 14:47:09.821,4.102909506108844
2025-03-30 14:47:09.821,2.0710926081268752
2025-03-30 14:47:09.821,-2.010725124535433
2025-03-30 14:47:09.821,-3.968089332477651
2025-03-30 14:47:09.821,-1.9617459112129725
2025-03-30 14:47:09.831,1.4323915813203367
2025-03-30 14:47:09.831,2.4706703109621477
2025-03-30 14:47:09.831,0.7171535823504949
2025-03-30 14:47:09.832,-0.9254388152326882
2025-03-30 14:47:09.832,-0.38149607134400143
2025-03-30 14:47:09.841,1.00459930835343
2025-03-30 14:47:09.841,0.7516902016642792
2025-03-30 14:47:09.841,-1.1512332378035552
2025-03-30 14:47:09.841,-2.345326017934334
2025-03-30 14:47:09.842,-1.3220709199048626
2025-03-30 14:47:09.851,0.9511826454990122
2025-03-30 14:47:09.851,2.6373043682404047
2025-03-30 14:47:09.851,2.7943590509331653
2025-03-30 14:47:09.851,1.2440083959371087
2025-03-30 14:47:09.851,-1.6443117202094695
2025-03-30 14:47:09.861,-4.1579816281003765
2025-03-30 14:47:09.861,-3.840170768505409
2025-03-30 14:47:09.861,-0.3552032671576474
2025-03-30 14:47:09.861,3.370659158612889
2025-03-30 14:47:09.861,4.337464853190956
2025-03-30 14:47:09.869,2.7408276882709077
2025-03-30 14:47:09.870,0.5521672855518609
2025-03-30 14:47:09.870,-1.74529779514006
2025-03-30 14:47:09.870,-4.516838399115459
2025-03-30 14:47:09.870,-5.866497255715961
2025-03-30 14:47:09.879,-2.5810728755268686
2025-03-30 14:47:09.880,4.640317615788461
2025-03-30 14:47:09.880,9.495050980208923
2025-03-30 14:47:09.880,6.2258728903306
2025-03-30 14:47:09.880,-3.1036444704949266
2025-03-30 14:47:09.889,-9.745963463534228
2025-03-30 14:47:09.889,-7.390681568261862
2025-03-30 14:47:09.890,1.1415979258523743
2025-03-30 14:47:09.890,7.275383516599654
2025-03-30 14:47:09.890,5.9023050312179945
2025-03-30 14:47:09.899,-0.06104864504365681
2025-03-30 14:47:09.899,-4.027343907865793
2025-03-30 14:47:09.900,-2.9992896882531097
2025-03-30 14:47:09.900,0.32833884166459054
2025-03-30 14:47:09.909,1.7079709571245107
2025-03-30 14:47:09.909,0.18069199565409588
2025-03-30 14:47:09.909,-1.510752061005165
2025-03-30 14:47:09.910,-0.7398790304566341
2025-03-30 14:47:09.910,1.6190981623230725
2025-03-30 14:47:09.919,2.364412970960072
2025-03-30 14:47:09.919,0.3093569030008846
2025-03-30 14:47:09.919,-1.9991389871119167
2025-03-30 14:47:09.920,-1.7239165095754747
2025-03-30 14:47:09.920,0.40286732861983393
2025-03-30 14:47:09.929,1.2471113199528565
2025-03-30 14:47:09.929,-0.2506628133092229
2025-03-30 14:47:09.929,-1.5563147745901769
2025-03-30 14:47:09.930,-0.09817760277456873
2025-03-30 14:47:09.930,2.7355178457727507
2025-03-30 14:47:09.939,2.7169238434322835
2025-03-30 14:47:09.939,-1.5122696586542772
2025-03-30 14:47:09.939,-5.312485091471824
2025-03-30 14:47:09.940,-3.0147703228832423
2025-03-30 14:47:09.940,4.029426282776222
2025-03-30 14:47:09.949,7.522015174659761
2025-03-30 14:47:09.949,2.2276157253453124
2025-03-30 14:47:09.949,-6.539273416183993
2025-03-30 14:47:09.950,-8.618312439918254
2025-03-30 14:47:09.950,-1.3216592712254123
2025-03-30 14:47:09.959,7.287179774947619
2025-03-30 14:47:09.959,8.074094471754561
2025-03-30 14:47:09.959,1.0912164031984708
2025-03-30 14:47:09.959,-5.611766658041877
2025-03-30 14:47:09.959,-5.808429998860056
2025-03-30 14:47:09.969,-1.2007247828183891
2025-03-30 14:47:09.969,2.3367689838090153
2025-03-30 14:47:09.969,2.2246949831297145
2025-03-30 14:47:09.970,0.956154837404561
2025-03-30 14:47:09.970,1.1648699843581651
2025-03-30 14:47:09.979,1.6165266627895494
2025-03-30 14:47:09.979,-0.2984254222902906
2025-03-30 14:47:09.979,-3.617668594233314
2025-03-30 14:47:09.980,-4.160174206814144
2025-03-30 14:47:09.980,-0.2558116083945378
2025-03-30 14:47:09.989,4.231459605883469
2025-03-30 14:47:09.989,4.322884822739816
2025-03-30 14:47:09.989,0.16836330447073222
2025-03-30 14:47:09.989,-3.2170167181461577
2025-03-30 14:47:09.989,-2.323730294493449
2025-03-30 14:47:09.997,0.7854143611584378
2025-03-30 14:47:09.997,1.6982347281371901
2025-03-30 14:47:09.998,-0.5051025883424711
2025-03-30 14:47:09.998,-2.3785092927813407
2025-03-30 14:47:09.998,-0.8910871732251464
2025-03-30 14:47:10.007,2.573286022363173
2025-03-30 14:47:10.007,3.9371482642858995
2025-03-30 14:47:10.008,1.3379378570310259
2025-03-30 14:47:10.008,-2.8858482166975863
2025-03-30 14:47:10.008,-4.872079856214856
2025-03-30 14:47:10.017,-2.814292617166887
2025-03-30 14:47:10.017,1.85081366260258
2025-03-30 14:47:10.018,5.4414484823087275
2025-03-30 14:47:10.018,4.449486701739695
2025-03-30 14:47:10.018,-1.061831842425355
2025-03-30 14:47:10.027,-6.126555918319026
2025-03-30 14:47:10.027,-5.1351661440491885
2025-03-30 14:47:10.028,1.4496360220515503
2025-03-30 14:47:10.028,6.54776894591123
2025-03-30 14:47:10.028,4.370575622672106
2025-03-30 14:47:10.037,-2.4668108990812208
2025-03-30 14:47:10.037,-5.9594500025249015
2025-03-30 14:47:10.037,-2.4105523685856958
2025-03-30 14:47:10.038,3.325593594846987
2025-03-30 14:47:10.047,4.224367115707542
2025-03-30 14:47:10.047,-0.1923112260124547
2025-03-30 14:47:10.047,-3.7571147503206195
2025-03-30 14:47:10.048,-1.8931444243086137
2025-03-30 14:47:10.048,2.632223699054555
2025-03-30 14:47:10.057,3.6580640058312675
2025-03-30 14:47:10.057,-0.22054144854932767
2025-03-30 14:47:10.057,-3.988058632176863
2025-03-30 14:47:10.058,-2.8895174795987724
2025-03-30 14:47:10.058,1.540498824039727
2025-03-30 14:47:10.067,3.7851593594506237
2025-03-30 14:47:10.067,1.4947848346523878
2025-03-30 14:47:10.067,-1.955263320116695
2025-03-30 14:47:10.068,-2.304524044614368
2025-03-30 14:47:10.068,0.20217254407685245
2025-03-30 14:47:10.077,1.7482604913530366
2025-03-30 14:47:10.077,0.3168562007612238
2025-03-30 14:47:10.077,-1.8595514615236035
2025-03-30 14:47:10.078,-1.5660601309853015
2025-03-30 14:47:10.078,1.203485167492073
2025-03-30 14:47:10.087,3.3447012097587665
2025-03-30 14:47:10.087,2.2518987865683116
2025-03-30 14:47:10.087,-1.455491729393945
2025-03-30 14:47:10.087,-4.4807768050402315
2025-03-30 14:47:10.088,-3.8032764931446263
2025-03-30 14:47:10.097,0.402664076451958
2025-03-30 14:47:10.097,4.559938386368589
2025-03-30 14:47:10.097,4.936012102788527
2025-03-30 14:47:10.097,1.2939775034667191
2025-03-30 14:47:10.097,-3.048614521829586
2025-03-30 14:47:10.107,-4.610454592241132
2025-03-30 14:47:10.107,-2.6713715925677737
2025-03-30 14:47:10.107,0.7761265268537534
2025-03-30 14:47:10.107,3.0548540557503294
2025-03-30 14:47:10.107,2.7971453874908225
2025-03-30 14:47:10.115,0.7357466135916281
2025-03-30 14:47:10.116,-1.1479330762881836
2025-03-30 14:47:10.116,-1.5127155976355477
2025-03-30 14:47:10.116,-0.7729960299690564
2025-03-30 14:47:10.116,-0.21216045753398718
2025-03-30 14:47:10.127,-0.2481312534266748
2025-03-30 14:47:10.127,-0.14359879191039826
2025-03-30 14:47:10.127,0.5489613813236529
2025-03-30 14:47:10.127,1.0979117122304112
2025-03-30 14:47:10.127,0.7392274622570771
2025-03-30 14:47:10.135,-0.0029581138586857597
2025-03-30 14:47:10.135,-0.18272789822493596
2025-03-30 14:47:10.136,-0.152769775660811
2025-03-30 14:47:10.136,-0.9587794122113932
2025-03-30 14:47:10.145,-2.0164753253006533
2025-03-30 14:47:10.145,-1.2046138057909401
2025-03-30 14:47:10.145,1.8078556701207098
2025-03-30 14:47:10.146,3.9042643244960358
2025-03-30 14:47:10.146,2.0461622959997987
2025-03-30 14:47:10.155,-2.2042623689651464
2025-03-30 14:47:10.155,-3.9538359275221415
2025-03-30 14:47:10.155,-1.2194024793278169
2025-03-30 14:47:10.156,2.2523799684513572
2025-03-30 14:47:10.156,1.9259354381764568
2025-03-30 14:47:10.165,-1.32666006125086
2025-03-30 14:47:10.165,-2.4394042025484257
2025-03-30 14:47:10.165,0.7337624576731197
2025-03-30 14:47:10.166,4.22435995669362
2025-03-30 14:47:10.166,3.1022199470187246
2025-03-30 14:47:10.175,-2.0221405099138203
2025-03-30 14:47:10.175,-5.659613483006216
2025-03-30 14:47:10.175,-3.9791641753811455
2025-03-30 14:47:10.175,1.1750779580119501
2025-03-30 14:47:10.176,4.90873284370773
2025-03-30 14:47:10.185,4.396777096105555
2025-03-30 14:47:10.185,0.80431857073569
2025-03-30 14:47:10.185,-2.709192700004178
2025-03-30 14:47:10.185,-3.7928285247456897
2025-03-30 14:47:10.186,-2.2005387900442677
2025-03-30 14:47:10.195,0.48143647793089833
2025-03-30 14:47:10.195,2.1155893877869087
2025-03-30 14:47:10.195,1.7645280385441713
2025-03-30 14:47:10.195,0.5386917501153085
2025-03-30 14:47:10.195,0.17810442834715917
2025-03-30 14:47:10.205,0.619890997274238
2025-03-30 14:47:10.205,-0.029788507598995956
2025-03-30 14:47:10.205,-2.3852736648165616
2025-03-30 14:47:10.206,-3.8065748695286357
2025-03-30 14:47:10.206,-1.307156603387439
2025-03-30 14:47:10.215,3.801587575393054
2025-03-30 14:47:10.215,6.211200542574397
2025-03-30 14:47:10.215,2.5445325177841878
2025-03-30 14:47:10.215,-4.14134695265791
2025-03-30 14:47:10.216,-7.087544610945511
2025-03-30 14:47:10.225,-3.0636230375838607
2025-03-30 14:47:10.225,3.9018926016748843
2025-03-30 14:47:10.225,6.621706493513394
2025-03-30 14:47:10.225,2.5106290844801924
2025-03-30 14:47:10.226,-3.6261552153696757
2025-03-30 14:47:10.235,-5.1891029427730535
2025-03-30 14:47:10.235,-1.2282918976429609
2025-03-30 14:47:10.235,3.1473890267374895
2025-03-30 14:47:10.235,3.3319159911007903
2025-03-30 14:47:10.235,0.1860824256856291
2025-03-30 14:47:10.245,-2.1391599553035183
2025-03-30 14:47:10.245,-1.6122317970141538
2025-03-30 14:47:10.245,0.04344765803587444
2025-03-30 14:47:10.245,0.5646101250399033
2025-03-30 14:47:10.246,0.16036820185957082
2025-03-30 14:47:10.253,0.42844915777666576
2025-03-30 14:47:10.253,1.3364849079916432
2025-03-30 14:47:10.254,1.0339029936279842
2025-03-30 14:47:10.254,-1.1135260899583053
2025-03-30 14:47:10.254,-2.906885747514042
2025-03-30 14:47:10.265,-1.878988284497304
2025-03-30 14:47:10.265,1.3371245699641168
2025-03-30 14:47:10.265,3.4809088452689805
2025-03-30 14:47:10.265,2.3619557123555004
2025-03-30 14:47:10.266,-0.839350110922388
2025-03-30 14:47:10.273,-3.0531895709304373
2025-03-30 14:47:10.274,-2.4481206545678527
2025-03-30 14:47:10.274,0.1101985582899142
2025-03-30 14:47:10.274,2.2162979447184634
2025-03-30 14:47:10.274,2.1492993877306312
2025-03-30 14:47:10.283,0.19663532303631384
2025-03-30 14:47:10.283,-1.7351649423143456
2025-03-30 14:47:10.284,-1.7790679216981686
2025-03-30 14:47:10.284,0.16879388116397698
2025-03-30 14:47:10.293,2.1208427951304247
2025-03-30 14:47:10.293,1.7583492597575008
2025-03-30 14:47:10.293,-0.9912103156729649
2025-03-30 14:47:10.293,-3.313480401962065
2025-03-30 14:47:10.294,-2.215735638938478
2025-03-30 14:47:10.303,1.8130385069258839
2025-03-30 14:47:10.303,4.636951844546454
2025-03-30 14:47:10.303,2.83965949832911
2025-03-30 14:47:10.303,-2.1309314105248327
2025-03-30 14:47:10.304,-5.224427250467775
2025-03-30 14:47:10.313,-3.2315916916769836
2025-03-30 14:47:10.313,1.8389175129019608
2025-03-30 14:47:10.313,4.964223666424356
2025-03-30 14:47:10.314,3.1641658229780916
2025-03-30 14:47:10.314,-1.6555542670561239
2025-03-30 14:47:10.323,-4.578246228253761
2025-03-30 14:47:10.323,-2.5831563793430665
2025-03-30 14:47:10.323,2.188684563145549
2025-03-30 14:47:10.324,4.531086630312747
2025-03-30 14:47:10.324,1.8577246434078356
2025-03-30 14:47:10.333,-2.861760494814032
2025-03-30 14:47:10.333,-4.490870596665676
2025-03-30 14:47:10.333,-1.491824316386336
2025-03-30 14:47:10.334,2.6843374735138292
2025-03-30 14:47:10.334,3.825443754453419
2025-03-30 14:47:10.343,1.4289383701245977
2025-03-30 14:47:10.343,-1.5428849022505284
2025-03-30 14:47:10.343,-2.4323148008550937
2025-03-30 14:47:10.344,-1.262767329232907
2025-03-30 14:47:10.344,0.3600961279799362
2025-03-30 14:47:10.353,1.2327325594558847
2025-03-30 14:47:10.353,0.896059565477926
2025-03-30 14:47:10.353,-0.5550635631656716
2025-03-30 14:47:10.353,-1.750518323456599
2025-03-30 14:47:10.354,-0.4661472913207154
2025-03-30 14:47:10.363,3.155256102368279
2025-03-30 14:47:10.363,4.741246996018618
2025-03-30 14:47:10.363,0.18170422767492259
2025-03-30 14:47:10.363,-7.5298313955772604
2025-03-30 14:47:10.364,-9.329347828601467
2025-03-30 14:47:10.371,-0.5648826798506184
2025-03-30 14:47:10.372,11.352449495566056
2025-03-30 14:47:10.372,13.43538223795547
2025-03-30 14:47:10.372,1.9147341994855291
2025-03-30 14:47:10.372,-12.260323858968304
2025-03-30 14:47:10.381,-14.802362544101388
2025-03-30 14:47:10.381,-3.583302611493295
2025-03-30 14:47:10.381,9.620488970927255
2025-03-30 14:47:10.382,12.433450395924778
2025-03-30 14:47:10.391,4.3136356253796055
2025-03-30 14:47:10.391,-5.060618578253691
2025-03-30 14:47:10.391,-7.377406474893467
2025-03-30 14:47:10.391,-3.2434565690434662
2025-03-30 14:47:10.391,1.1230198977301935
2025-03-30 14:47:10.401,1.8894161960975873
2025-03-30 14:47:10.401,0.6770755863654732
2025-03-30 14:47:10.401,0.7237446007869307
2025-03-30 14:47:10.402,2.157431751463872
2025-03-30 14:47:10.402,2.1546570386237573
2025-03-30 14:47:10.411,-0.7957982426980763
2025-03-30 14:47:10.411,-4.185093329141261
2025-03-30 14:47:10.411,-4.020583810978803
2025-03-30 14:47:10.411,0.23458367695656104
2025-03-30 14:47:10.412,4.50973920417344
2025-03-30 14:47:10.419,4.487885515967243
2025-03-30 14:47:10.420,0.3039114421146649
2025-03-30 14:47:10.420,-3.8183957785849567
2025-03-30 14:47:10.420,-4.068723745472213
2025-03-30 14:47:10.420,-0.5931533344800051
2025-03-30 14:47:10.429,3.012250718282602
2025-03-30 14:47:10.430,3.2923632948382457
2025-03-30 14:47:10.430,0.320194461178915
2025-03-30 14:47:10.430,-2.4320827968260317
2025-03-30 14:47:10.430,-2.0245076807257743
2025-03-30 14:47:10.439,0.4979627236769806
2025-03-30 14:47:10.439,1.615449188488632
2025-03-30 14:47:10.440,0.10778076224974709
2025-03-30 14:47:10.440,-1.3711655119613801
2025-03-30 14:47:10.449,-0.2597187787324846
2025-03-30 14:47:10.449,1.983728324280822
2025-03-30 14:47:10.449,1.7957235109632113
2025-03-30 14:47:10.450,-1.254140255337404
2025-03-30 14:47:10.450,-3.410591815262918
2025-03-30 14:47:10.459,-1.606332898333066
2025-03-30 14:47:10.459,2.3249184782362087
2025-03-30 14:47:10.459,3.77776578738055
2025-03-30 14:47:10.459,1.0208559260511556
2025-03-30 14:47:10.460,-2.77409836593222
2025-03-30 14:47:10.469,-3.3499071899421535
2025-03-30 14:47:10.469,-0.2463311731832358
2025-03-30 14:47:10.469,2.845127046241287
2025-03-30 14:47:10.470,2.4432561323211113
2025-03-30 14:47:10.470,-0.7191798963420993
2025-03-30 14:47:10.479,-2.7001445760448335
2025-03-30 14:47:10.479,-1.2042027389090153
2025-03-30 14:47:10.479,1.6573051027858188
2025-03-30 14:47:10.480,2.216939652804648
2025-03-30 14:47:10.480,-0.016527833154389188
2025-03-30 14:47:10.489,-1.9813066216507773
2025-03-30 14:47:10.489,-1.2997938957026438
2025-03-30 14:47:10.489,0.7793149268585606
2025-03-30 14:47:10.490,1.437865205927373
2025-03-30 14:47:10.490,0.1086261087181645
2025-03-30 14:47:10.499,-1.086790127139155
2025-03-30 14:47:10.499,-0.4696633468076086
2025-03-30 14:47:10.500,0.9439193282132866
2025-03-30 14:47:10.500,1.0370080691890045
2025-03-30 14:47:10.500,-0.3221439568427621
2025-03-30 14:47:10.509,-1.1322573157249052
2025-03-30 14:47:10.509,-0.28980554848999934
2025-03-30 14:47:10.509,0.7058499012487173
2025-03-30 14:47:10.510,0.050082533938649754
2025-03-30 14:47:10.510,-1.4019974440489884
2025-03-30 14:47:10.519,-1.050619234956549
2025-03-30 14:47:10.519,1.6330818830408558
2025-03-30 14:47:10.519,3.668446444600511
2025-03-30 14:47:10.520,1.8827093243663882
2025-03-30 14:47:10.520,-2.8181489734793903
2025-03-30 14:47:10.529,-5.657110573538846
2025-03-30 14:47:10.529,-3.063871249277047
2025-03-30 14:47:10.529,2.9563290692283566
2025-03-30 14:47:10.529,6.463969773366003
2025-03-30 14:47:10.530,3.8300568249012827
2025-03-30 14:47:10.539,-2.283206678544614
2025-03-30 14:47:10.539,-5.7339308395288935
2025-03-30 14:47:10.539,-3.4482649388479536
2025-03-30 14:47:10.540,1.5519693684680587
2025-03-30 14:47:10.540,3.893519270949677
2025-03-30 14:47:10.549,1.8649396585856215
2025-03-30 14:47:10.549,-1.2780257341986625
2025-03-30 14:47:10.549,-1.8075974141398292
2025-03-30 14:47:10.549,0.1037289397525562
2025-03-30 14:47:10.550,1.3640420377191778
2025-03-30 14:47:10.559,0.3136805693747703
2025-03-30 14:47:10.559,-1.4734687378101368
2025-03-30 14:47:10.559,-1.6628906235394885
2025-03-30 14:47:10.560,0.014124909077941505
2025-03-30 14:47:10.560,1.8657422740117022
2025-03-30 14:47:10.569,2.1826633283978576
2025-03-30 14:47:10.569,0.652517946837927
2025-03-30 14:47:10.569,-1.4526814927546816
2025-03-30 14:47:10.569,-2.2934028200195025
2025-03-30 14:47:10.569,-1.2380695418855399
2025-03-30 14:47:10.577,0.4430420947844693
2025-03-30 14:47:10.578,1.1705453126161147
2025-03-30 14:47:10.578,0.9204645480710064
2025-03-30 14:47:10.578,0.7234923301986051
2025-03-30 14:47:10.578,0.7634845822975597
2025-03-30 14:47:10.587,0.1418607748193837
2025-03-30 14:47:10.588,-1.3575731905993158
2025-03-30 14:47:10.588,-2.314671956586402
2025-03-30 14:47:10.588,-1.2325402617514536
2025-03-30 14:47:10.588,1.2896996927330882
2025-03-30 14:47:10.597,2.7908005567445633
2025-03-30 14:47:10.597,1.6638934090206043
2025-03-30 14:47:10.598,-0.8967934580822485
2025-03-30 14:47:10.598,-2.233963455942929
2025-03-30 14:47:10.607,-1.2531471104980811
2025-03-30 14:47:10.607,0.5701505612951316
2025-03-30 14:47:10.607,1.2068243068999511
2025-03-30 14:47:10.608,0.3679687367058323
2025-03-30 14:47:10.608,-0.5704617164826438
2025-03-30 14:47:10.617,-0.4376803806545513
2025-03-30 14:47:10.617,0.47804090772087937
2025-03-30 14:47:10.617,0.9575698913589885
2025-03-30 14:47:10.617,0.2857461726422773
2025-03-30 14:47:10.618,-0.945980366614174
2025-03-30 14:47:10.627,-1.4357872838865762
2025-03-30 14:47:10.627,-0.569553430392033
2025-03-30 14:47:10.627,0.8682939112158694
2025-03-30 14:47:10.628,1.523948582496559
2025-03-30 14:47:10.628,0.9125568342981404
2025-03-30 14:47:10.637,-0.237734638847214
2025-03-30 14:47:10.637,-0.9934987103788161
2025-03-30 14:47:10.637,-1.0783613302751047
2025-03-30 14:47:10.637,-0.6141828220041226
2025-03-30 14:47:10.638,0.2844272672454573
2025-03-30 14:47:10.647,1.0939333515972403
2025-03-30 14:47:10.647,0.8194014857264191
2025-03-30 14:47:10.647,-0.5379688861367286
2025-03-30 14:47:10.648,-1.0898860566639088
2025-03-30 14:47:10.648,0.5987645217632346
2025-03-30 14:47:10.657,2.5232244997505813
2025-03-30 14:47:10.657,1.0611071491769635
2025-03-30 14:47:10.657,-3.436318052835074
2025-03-30 14:47:10.657,-5.475942604534937
2025-03-30 14:47:10.658,-1.0584521893196608
2025-03-30 14:47:10.667,6.059204151958975
2025-03-30 14:47:10.667,7.7247911522707415
2025-03-30 14:47:10.667,1.2045915737435409
2025-03-30 14:47:10.667,-6.904738272032789
2025-03-30 14:47:10.667,-8.045678377602531
2025-03-30 14:47:10.677,-1.4572434884637708
2025-03-30 14:47:10.677,5.506519586764806
2025-03-30 14:47:10.677,6.264581882475488
2025-03-30 14:47:10.677,1.7475729348416604
2025-03-30 14:47:10.677,-2.443932946812503
2025-03-30 14:47:10.687,-3.2198172547006814
2025-03-30 14:47:10.687,-2.0618980511498424
2025-03-30 14:47:10.687,-1.0214109288580226
2025-03-30 14:47:10.687,0.2208504859701775
2025-03-30 14:47:10.687,2.3056314257439405
2025-03-30 14:47:10.695,3.532508151946678
2025-03-30 14:47:10.695,1.6356327781625655
2025-03-30 14:47:10.696,-2.340294523045137
2025-03-30 14:47:10.696,-4.256335386435489
2025-03-30 14:47:10.696,-1.781992694621731
2025-03-30 14:47:10.705,2.331842364801958
2025-03-30 14:47:10.706,3.2877474702809306
2025-03-30 14:47:10.706,0.1578872064263292
2025-03-30 14:47:10.706,-2.7900142316086844
2025-03-30 14:47:10.706,-1.4420045244840964
2025-03-30 14:47:10.715,2.6245625374851014
2025-03-30 14:47:10.716,3.792202238437725
2025-03-30 14:47:10.716,-0.3087921552390095
2025-03-30 14:47:10.716,-5.196807555995593
2025-03-30 14:47:10.725,-4.723196887008241
2025-03-30 14:47:10.726,1.228740669100822
2025-03-30 14:47:10.726,6.289707545094182
2025-03-30 14:47:10.726,4.998112086119525
2025-03-30 14:47:10.726,-1.097476242789396
2025-03-30 14:47:10.726,-5.654376360276993
2025-03-30 14:47:10.735,-4.617731152244125
2025-03-30 14:47:10.736,0.25897759775693724
2025-03-30 14:47:10.736,4.181075291986863
2025-03-30 14:47:10.736,3.972305404552661
2025-03-30 14:47:10.736,0.2768848675820363
2025-03-30 14:47:10.745,-3.2771693557458694
2025-03-30 14:47:10.746,-3.1166818529132385
2025-03-30 14:47:10.746,0.6411225707113238
2025-03-30 14:47:10.746,3.645587377856141
2025-03-30 14:47:10.746,1.9505059028952036
2025-03-30 14:47:10.755,-2.805682212753787
2025-03-30 14:47:10.755,-4.753281287489176
2025-03-30 14:47:10.755,-0.9563188462166113
2025-03-30 14:47:10.756,4.573089588451358
2025-03-30 14:47:10.765,5.476754519337815
2025-03-30 14:47:10.765,0.6357388676980995
2025-03-30 14:47:10.765,-4.656789361827625
2025-03-30 14:47:10.766,-5.0112868713729695
2025-03-30 14:47:10.766,-0.7536034724638551
2025-03-30 14:47:10.775,3.257999129025735
2025-03-30 14:47:10.775,3.413850695080652
2025-03-30 14:47:10.775,0.6949188636453568
2025-03-30 14:47:10.775,-1.4440835147722129
2025-03-30 14:47:10.776,-1.273743422099405
2025-03-30 14:47:10.785,-0.14728279157860474
2025-03-30 14:47:10.785,-0.036565545468161126
2025-03-30 14:47:10.786,-0.8054168505191348
2025-03-30 14:47:10.786,-0.7225935827815181
2025-03-30 14:47:10.786,0.802549735367469
2025-03-30 14:47:10.795,2.2068945898827947
2025-03-30 14:47:10.795,1.7454058323932036
2025-03-30 14:47:10.795,-0.40825325395208656
2025-03-30 14:47:10.795,-2.464055423305143
2025-03-30 14:47:10.796,-2.8073559964131087
2025-03-30 14:47:10.805,-1.1153880534113851
2025-03-30 14:47:10.805,1.6326392924708044
2025-03-30 14:47:10.805,3.5533130254375243
2025-03-30 14:47:10.806,2.8174598800706887
2025-03-30 14:47:10.806,-0.5489915735465591
2025-03-30 14:47:10.815,-3.7507706477954548
2025-03-30 14:47:10.815,-3.4741179426262585
2025-03-30 14:47:10.816,0.24355791757143572
2025-03-30 14:47:10.816,3.488257320962077
2025-03-30 14:47:10.816,2.8118187723050765
2025-03-30 14:47:10.825,-0.7176275358031832
2025-03-30 14:47:10.825,-2.973358693433943
2025-03-30 14:47:10.825,-1.7398105776719617
2025-03-30 14:47:10.825,1.1190456686418249
2025-03-30 14:47:10.826,2.4008356579179697
2025-03-30 14:47:10.835,1.1615705660973714
2025-03-30 14:47:10.835,-0.9283635061807058
2025-03-30 14:47:10.835,-1.8855885667435435
2025-03-30 14:47:10.835,-1.2141582139346463
2025-03-30 14:47:10.835,0.24247488122960684
2025-03-30 14:47:10.845,1.389028735825563
2025-03-30 14:47:10.845,1.5814906480451765
2025-03-30 14:47:10.845,0.7317748477010693
2025-03-30 14:47:10.846,-0.7225531209747778
2025-03-30 14:47:10.846,-1.8649176233853613
2025-03-30 14:47:10.855,-1.7512589042295292
2025-03-30 14:47:10.855,-0.25758892912992487
2025-03-30 14:47:10.855,1.565184482990614
2025-03-30 14:47:10.855,2.3109346193437053
2025-03-30 14:47:10.855,1.4837984586064936
2025-03-30 14:47:10.863,-0.2159312908296634
2025-03-30 14:47:10.864,-1.7991755462279553
2025-03-30 14:47:10.864,-2.6863172165935074
2025-03-30 14:47:10.864,-2.302203799525722
2025-03-30 14:47:10.864,0.05260337253876963
2025-03-30 14:47:10.873,3.6541147579535087
2025-03-30 14:47:10.874,5.294153777658053
2025-03-30 14:47:10.874,2.0657648064525285
2025-03-30 14:47:10.874,-4.126796122603403
2025-03-30 14:47:10.874,-7.099217087893242
2025-03-30 14:47:10.883,-3.2204895928812
2025-03-30 14:47:10.884,3.6874352609459646
2025-03-30 14:47:10.884,6.428848088717789
2025-03-30 14:47:10.884,2.7922500889890833
2025-03-30 14:47:10.884,-2.402324743650893
2025-03-30 14:47:10.893,-3.717317984616521
2025-03-30 14:47:10.893,-1.2399999773257866
2025-03-30 14:47:10.893,0.932990165537787
2025-03-30 14:47:10.894,0.6107974743532496
2025-03-30 14:47:10.903,-0.3985628841035582
2025-03-30 14:47:10.903,0.14145939937381852
2025-03-30 14:47:10.903,1.5016188917469002
2025-03-30 14:47:10.904,1.3440347580539591
2025-03-30 14:47:10.904,-0.6747805455774684
2025-03-30 14:47:10.913,-2.265302281639805
2025-03-30 14:47:10.913,-1.5061327820423838
2025-03-30 14:47:10.913,0.7470447488090545
2025-03-30 14:47:10.914,2.0924955672643275
2025-03-30 14:47:10.914,1.4103067829368237
2025-03-30 14:47:10.923,-0.4045000549544077
2025-03-30 14:47:10.923,-1.856605527084961
2025-03-30 14:47:10.923,-1.8682289857972858
2025-03-30 14:47:10.924,-0.043020715367019596
2025-03-30 14:47:10.924,2.5113172935502126
2025-03-30 14:47:10.933,3.0769264512578665
2025-03-30 14:47:10.933,0.08065409772708695
2025-03-30 14:47:10.933,-3.937608932588888
2025-03-30 14:47:10.933,-4.27670532752358
2025-03-30 14:47:10.934,0.16971213643236757
2025-03-30 14:47:10.943,4.871621955944825
2025-03-30 14:47:10.943,4.68972474026009
2025-03-30 14:47:10.943,-0.14926360698539637
