timestamp,bandpass_and_notch
2025-03-30 15:03:36.216,-0.33220387210766966
2025-03-30 15:03:36.216,3.521427929737544
2025-03-30 15:03:36.217,3.974353666605893
2025-03-30 15:03:36.217,-5.872619848513306
2025-03-30 15:03:36.225,-22.422425108550744
2025-03-30 15:03:36.226,-23.961931374060793
2025-03-30 15:03:36.226,4.723712238526645
2025-03-30 15:03:36.226,42.495762241954566
2025-03-30 15:03:36.226,45.98624939556094
2025-03-30 15:03:36.234,1.1944734396073446
2025-03-30 15:03:36.234,-52.06097504222546
2025-03-30 15:03:36.234,-59.77347037176489
2025-03-30 15:03:36.234,-13.259578795679758
2025-03-30 15:03:36.242,41.97901786957665
2025-03-30 15:03:36.242,56.38894050437353
2025-03-30 15:03:36.242,25.17679713601479
2025-03-30 15:03:36.242,-15.94880483724018
2025-03-30 15:03:36.252,-33.52536923242892
2025-03-30 15:03:36.252,-24.764911232737813
2025-03-30 15:03:36.252,-7.309194914207245
2025-03-30 15:03:36.252,5.761351819678307
2025-03-30 15:03:36.252,13.709282719180369
2025-03-30 15:03:36.260,17.763808615377847
2025-03-30 15:03:36.260,14.188892248176941
2025-03-30 15:03:36.260,0.9284761075906094
2025-03-30 15:03:36.261,-14.558066716456059
2025-03-30 15:03:36.270,-20.000552705306575
2025-03-30 15:03:36.270,-10.929396609975498
2025-03-30 15:03:36.270,4.405157444649195
2025-03-30 15:03:36.270,13.495286686946683
2025-03-30 15:03:36.270,11.259147865873114
2025-03-30 15:03:36.279,2.698296444880517
2025-03-30 15:03:36.280,-4.154919379265026
2025-03-30 15:03:36.280,-5.838480743632702
2025-03-30 15:03:36.280,-4.254720580758697
2025-03-30 15:03:36.280,-2.1637414667755195
2025-03-30 15:03:36.290,-0.015882381757152578
2025-03-30 15:03:36.290,2.6081034108916508
2025-03-30 15:03:36.290,4.36671442809014
2025-03-30 15:03:36.290,3.076103806718423
2025-03-30 15:03:36.290,-0.8050623311841828
2025-03-30 15:03:36.300,-3.682455198427663
2025-03-30 15:03:36.300,-2.944983136172599
2025-03-30 15:03:36.300,-0.10344552827313208
2025-03-30 15:03:36.300,1.6669745934787714
2025-03-30 15:03:36.300,1.746911094954071
2025-03-30 15:03:36.309,1.6823514860675208
2025-03-30 15:03:36.310,1.5450870009762006
2025-03-30 15:03:36.310,-0.3401985617185082
2025-03-30 15:03:36.310,-3.65678033598366
2025-03-30 15:03:36.310,-4.855903852972937
2025-03-30 15:03:36.320,-1.4000852978493867
2025-03-30 15:03:36.320,4.164142066885096
2025-03-30 15:03:36.320,6.371726062187253
2025-03-30 15:03:36.320,2.9579651892616203
2025-03-30 15:03:36.320,-2.625574270716044
2025-03-30 15:03:36.329,-5.2073699217766745
2025-03-30 15:03:36.330,-3.3095089847695487
2025-03-30 15:03:36.330,0.2307052468348335
2025-03-30 15:03:36.330,2.186219107427271
2025-03-30 15:03:36.330,2.0339326768084245
2025-03-30 15:03:36.340,1.1371965809097966
2025-03-30 15:03:36.340,0.3760048490387439
2025-03-30 15:03:36.340,-0.3742611353045847
2025-03-30 15:03:36.340,-1.0772864999080918
2025-03-30 15:03:36.340,-1.1093445915947073
2025-03-30 15:03:36.349,-0.23325455422345406
2025-03-30 15:03:36.350,0.7501546758152918
2025-03-30 15:03:36.350,0.834596773278073
2025-03-30 15:03:36.350,-0.008112389052284119
2025-03-30 15:03:36.350,-0.901723935441631
2025-03-30 15:03:36.360,-1.1007438963517522
2025-03-30 15:03:36.360,-0.4611776430078612
2025-03-30 15:03:36.360,0.8809604365874049
2025-03-30 15:03:36.360,2.41730410047462
2025-03-30 15:03:36.360,2.742402200998387
2025-03-30 15:03:36.368,0.38519355222594975
2025-03-30 15:03:36.368,-3.7864429740814334
2025-03-30 15:03:36.368,-5.876713344990591
2025-03-30 15:03:36.369,-2.5756924632372202
2025-03-30 15:03:36.369,4.167953356251495
2025-03-30 15:03:36.378,7.80504205737396
2025-03-30 15:03:36.378,4.024861971249796
2025-03-30 15:03:36.378,-3.7479577369774706
2025-03-30 15:03:36.378,-7.513031745652076
2025-03-30 15:03:36.388,-3.6440162652777195
2025-03-30 15:03:36.388,3.0480686183658388
2025-03-30 15:03:36.388,5.318748965759629
2025-03-30 15:03:36.388,1.9985216523073495
2025-03-30 15:03:36.389,-1.7415482617560634
2025-03-30 15:03:36.398,-1.9338260017404412
2025-03-30 15:03:36.398,-0.40793430573138595
2025-03-30 15:03:36.398,-0.6419438617428983
2025-03-30 15:03:36.398,-1.8965844392845046
2025-03-30 15:03:36.398,-0.612055265311391
2025-03-30 15:03:36.408,3.299767926529952
2025-03-30 15:03:36.408,5.137260266431565
2025-03-30 15:03:36.408,1.5588395711666914
2025-03-30 15:03:36.408,-4.414726918256676
2025-03-30 15:03:36.408,-6.651127158493774
2025-03-30 15:03:36.418,-2.983626835973578
2025-03-30 15:03:36.418,2.929453623760871
2025-03-30 15:03:36.418,6.1160675082691665
2025-03-30 15:03:36.418,4.692311491913432
2025-03-30 15:03:36.418,0.1890401948048325
2025-03-30 15:03:36.428,-4.245738978823259
2025-03-30 15:03:36.428,-5.58233342099582
2025-03-30 15:03:36.428,-2.7867125423607493
2025-03-30 15:03:36.428,1.9454895017900526
2025-03-30 15:03:36.429,4.738505661384591
2025-03-30 15:03:36.438,3.6152318159387087
2025-03-30 15:03:36.438,0.15071640503203915
2025-03-30 15:03:36.438,-2.5939688292410867
2025-03-30 15:03:36.438,-3.0296614654552485
2025-03-30 15:03:36.438,-1.649773966128965
2025-03-30 15:03:36.448,0.3128386641241846
2025-03-30 15:03:36.448,1.8755767956793956
2025-03-30 15:03:36.448,2.3482720500162775
2025-03-30 15:03:36.448,1.4247640571706925
2025-03-30 15:03:36.448,-0.45888115649552563
2025-03-30 15:03:36.458,-2.1950434670156205
2025-03-30 15:03:36.458,-2.6106393634830267
2025-03-30 15:03:36.458,-1.162686286956296
2025-03-30 15:03:36.458,1.4578349198250895
2025-03-30 15:03:36.459,3.2603336323664442
2025-03-30 15:03:36.468,2.3369270052877655
2025-03-30 15:03:36.468,-0.8550747562789366
2025-03-30 15:03:36.468,-3.146864294746331
2025-03-30 15:03:36.468,-1.8993351380469619
2025-03-30 15:03:36.468,1.398339352278062
2025-03-30 15:03:36.478,2.358245730692348
2025-03-30 15:03:36.478,-0.6397489536795159
2025-03-30 15:03:36.478,-3.5757165262919117
2025-03-30 15:03:36.478,-1.5787099996245497
2025-03-30 15:03:36.478,4.069323320270956
2025-03-30 15:03:36.486,6.430981290396107
2025-03-30 15:03:36.486,1.4248617660742144
2025-03-30 15:03:36.486,-6.274126695615634
2025-03-30 15:03:36.487,-8.08424624499085
2025-03-30 15:03:36.487,-1.6450434907756457
2025-03-30 15:03:36.496,6.221644663441524
2025-03-30 15:03:36.496,7.362114243952988
2025-03-30 15:03:36.496,1.384118090803538
2025-03-30 15:03:36.497,-4.635594645163089
2025-03-30 15:03:36.497,-4.72573179410173
2025-03-30 15:03:36.506,-0.27067588515491936
2025-03-30 15:03:36.506,2.847569540426171
2025-03-30 15:03:36.506,1.6765410202134707
2025-03-30 15:03:36.507,-1.0708569024424823
2025-03-30 15:03:36.507,-1.4709080943200086
2025-03-30 15:03:36.518,0.4757288781694592
2025-03-30 15:03:36.518,1.5762639555203821
2025-03-30 15:03:36.518,0.305259607683179
2025-03-30 15:03:36.518,-1.2488565622913161
2025-03-30 15:03:36.518,-0.7647124572535298
2025-03-30 15:03:36.526,0.8541050926822499
2025-03-30 15:03:36.526,0.9596229737455275
2025-03-30 15:03:36.526,-0.7989050381760281
2025-03-30 15:03:36.527,-1.8373461075293385
2025-03-30 15:03:36.527,-0.2968657032486803
2025-03-30 15:03:36.536,2.1641483993074666
2025-03-30 15:03:36.536,2.3359932170714863
2025-03-30 15:03:36.536,-0.3325143712882841
2025-03-30 15:03:36.537,-2.7807028857379974
2025-03-30 15:03:36.537,-2.0558161001115973
2025-03-30 15:03:36.546,0.9082685552564688
2025-03-30 15:03:36.546,2.4230476065075437
2025-03-30 15:03:36.546,0.8232246794251408
2025-03-30 15:03:36.547,-1.3975242555640242
2025-03-30 15:03:36.547,-1.0785637580641179
2025-03-30 15:03:36.556,1.1927947705681845
2025-03-30 15:03:36.556,1.8512367763887998
2025-03-30 15:03:36.556,-0.6837152325833628
2025-03-30 15:03:36.556,-3.5341487005029877
2025-03-30 15:03:36.566,-2.6866239869177013
2025-03-30 15:03:36.566,1.9468988360570294
2025-03-30 15:03:36.566,5.7587264479858336
2025-03-30 15:03:36.566,4.116147427773063
2025-03-30 15:03:36.566,-2.274802441079476
2025-03-30 15:03:36.576,-7.279163131962647
2025-03-30 15:03:36.576,-5.448742474149667
2025-03-30 15:03:36.576,1.8144965626085754
2025-03-30 15:03:36.576,7.284509283931987
2025-03-30 15:03:36.576,5.597736604429737
2025-03-30 15:03:36.586,-1.0242258295587179
2025-03-30 15:03:36.586,-5.601293837123601
2025-03-30 15:03:36.586,-4.194421197108343
2025-03-30 15:03:36.586,0.49265937700334705
2025-03-30 15:03:36.586,3.1778856946647096
2025-03-30 15:03:36.596,2.0066045534435086
2025-03-30 15:03:36.596,-0.45954023445486103
2025-03-30 15:03:36.596,-1.2140178118511724
2025-03-30 15:03:36.596,-0.16181145005622455
2025-03-30 15:03:36.596,0.6672581815666522
2025-03-30 15:03:36.606,0.09880974749447506
2025-03-30 15:03:36.606,-0.9059929712737381
2025-03-30 15:03:36.606,-0.7897490172838577
2025-03-30 15:03:36.606,0.5043514539161481
2025-03-30 15:03:36.606,1.4447650174954612
2025-03-30 15:03:36.614,0.8099099020220181
2025-03-30 15:03:36.614,-0.8006994343252452
2025-03-30 15:03:36.614,-1.6700460536578365
2025-03-30 15:03:36.614,-0.9515461228413684
2025-03-30 15:03:36.615,0.5426261785570614
2025-03-30 15:03:36.624,1.5112212181367275
2025-03-30 15:03:36.624,1.4262214367865167
2025-03-30 15:03:36.624,0.4107202057046799
2025-03-30 15:03:36.625,-1.1643575295654542
2025-03-30 15:03:36.625,-2.252949376873117
2025-03-30 15:03:36.634,-1.4038848525125043
2025-03-30 15:03:36.634,1.1978694204433522
2025-03-30 15:03:36.634,2.8573111464386396
2025-03-30 15:03:36.635,1.3826535243739808
2025-03-30 15:03:36.635,-1.551936253495862
2025-03-30 15:03:36.644,-2.2510982308501726
2025-03-30 15:03:36.644,-0.13838770854998717
2025-03-30 15:03:36.644,1.4484352605055772
2025-03-30 15:03:36.644,0.27638700930839916
2025-03-30 15:03:36.654,-1.4884545604896293
2025-03-30 15:03:36.654,-0.6899362993069672
2025-03-30 15:03:36.654,1.945536418440068
2025-03-30 15:03:36.654,2.7037396113774532
2025-03-30 15:03:36.654,0.05180132537335386
2025-03-30 15:03:36.664,-3.2259683539539092
2025-03-30 15:03:36.664,-3.4337308915181217
2025-03-30 15:03:36.664,-0.1965338849807197
2025-03-30 15:03:36.664,3.3171174073503384
2025-03-30 15:03:36.665,3.789618229180367
2025-03-30 15:03:36.674,0.9209031269649117
2025-03-30 15:03:36.674,-2.5269557792666135
2025-03-30 15:03:36.674,-3.5161787745062445
2025-03-30 15:03:36.674,-1.5553954323209014
2025-03-30 15:03:36.674,1.1518953214051533
2025-03-30 15:03:36.684,2.2333671984769867
2025-03-30 15:03:36.684,1.5002642462376898
2025-03-30 15:03:36.684,0.4928227830071712
2025-03-30 15:03:36.684,0.05888605626026461
2025-03-30 15:03:36.685,-0.5847426507884854
2025-03-30 15:03:36.694,-1.9582652265581042
2025-03-30 15:03:36.694,-2.602334078142207
2025-03-30 15:03:36.694,-0.7001081543783981
2025-03-30 15:03:36.694,2.7776265734113395
2025-03-30 15:03:36.694,4.209941526293237
2025-03-30 15:03:36.704,1.5141901074259447
2025-03-30 15:03:36.704,-2.797855472100344
2025-03-30 15:03:36.704,-4.151326810386254
2025-03-30 15:03:36.704,-1.3122305522616027
2025-03-30 15:03:36.704,2.1915117895943554
2025-03-30 15:03:36.714,2.5616619494775907
2025-03-30 15:03:36.714,0.2775367086978312
2025-03-30 15:03:36.714,-1.1738301648397367
2025-03-30 15:03:36.714,-0.2765392440795835
2025-03-30 15:03:36.714,0.8432829114755092
2025-03-30 15:03:36.724,0.036878996959202034
2025-03-30 15:03:36.724,-1.5650637510420928
2025-03-30 15:03:36.724,-1.3503721296833737
2025-03-30 15:03:36.724,0.7789916838303895
2025-03-30 15:03:36.724,2.155630537909748
2025-03-30 15:03:36.734,1.0514250291845435
2025-03-30 15:03:36.734,-1.056255075072416
2025-03-30 15:03:36.734,-1.6022531910494489
2025-03-30 15:03:36.734,-0.20974664656507952
2025-03-30 15:03:36.734,1.1388004326317083
2025-03-30 15:03:36.744,0.7553845862935439
2025-03-30 15:03:36.744,-0.8270522018391618
2025-03-30 15:03:36.744,-1.6328160221203223
2025-03-30 15:03:36.744,-0.4563789921664991
2025-03-30 15:03:36.744,1.8017639537568946
2025-03-30 15:03:36.754,2.8133841786880507
2025-03-30 15:03:36.754,1.0291958665584184
2025-03-30 15:03:36.754,-2.412149819147762
2025-03-30 15:03:36.754,-4.233433331149284
2025-03-30 15:03:36.755,-2.183036789793447
2025-03-30 15:03:36.764,2.2552016860694946
2025-03-30 15:03:36.764,4.944511492377404
2025-03-30 15:03:36.764,3.2243613132065265
2025-03-30 15:03:36.764,-1.327033848661294
2025-03-30 15:03:36.764,-4.454955791518768
2025-03-30 15:03:36.774,-3.4099567403181315
2025-03-30 15:03:36.774,0.4668094247339246
2025-03-30 15:03:36.774,3.223322087064938
2025-03-30 15:03:36.774,2.3667323421605246
2025-03-30 15:03:36.774,-0.6048111203049382
2025-03-30 15:03:36.784,-2.0223443116081157
2025-03-30 15:03:36.784,-0.39420906862308397
2025-03-30 15:03:36.784,1.7507536881353274
2025-03-30 15:03:36.784,1.0689853321239369
2025-03-30 15:03:36.784,-1.961965111877543
2025-03-30 15:03:36.794,-3.1056063471057676
2025-03-30 15:03:36.794,0.12607681771868828
2025-03-30 15:03:36.794,4.3627794778405224
2025-03-30 15:03:36.794,3.8797376316824246
2025-03-30 15:03:36.794,-1.831568187094781
2025-03-30 15:03:36.804,-6.379464382165236
2025-03-30 15:03:36.804,-3.8648872496972526
2025-03-30 15:03:36.804,3.477541939168405
2025-03-30 15:03:36.804,7.3562534535572475
2025-03-30 15:03:36.804,3.190967955528236
2025-03-30 15:03:36.812,-4.33701776238027
2025-03-30 15:03:36.812,-6.820930686363661
2025-03-30 15:03:36.812,-1.9517634816403366
2025-03-30 15:03:36.813,4.229751599684319
2025-03-30 15:03:36.813,4.905103822476593
2025-03-30 15:03:36.822,0.2868560308838786
2025-03-30 15:03:36.822,-3.4956603323716573
2025-03-30 15:03:36.822,-2.28593671216858
2025-03-30 15:03:36.823,1.4530979714357302
2025-03-30 15:03:36.823,2.52896068385313
2025-03-30 15:03:36.832,-0.12373748197530071
2025-03-30 15:03:36.832,-2.531626675633043
2025-03-30 15:03:36.832,-1.4317447901692018
2025-03-30 15:03:36.832,1.4251587743679046
2025-03-30 15:03:36.842,2.125207258420934
2025-03-30 15:03:36.842,0.15798816318553885
2025-03-30 15:03:36.842,-1.272213516986051
2025-03-30 15:03:36.843,-0.2427546646850618
2025-03-30 15:03:36.843,1.16140640567617
2025-03-30 15:03:36.843,0.2652590091456728
2025-03-30 15:03:36.852,-1.9529035376109882
2025-03-30 15:03:36.852,-2.124361917984364
2025-03-30 15:03:36.852,0.632911104296209
2025-03-30 15:03:36.852,3.196511942658778
2025-03-30 15:03:36.862,2.332737603361466
2025-03-30 15:03:36.862,-1.177153316092187
2025-03-30 15:03:36.862,-3.329500917616432
2025-03-30 15:03:36.862,-1.6069329257899134
2025-03-30 15:03:36.862,1.919482669985583
2025-03-30 15:03:36.872,2.9001254635824716
2025-03-30 15:03:36.872,0.05182239580970022
2025-03-30 15:03:36.872,-2.987906270446117
2025-03-30 15:03:36.872,-2.1467661489766594
2025-03-30 15:03:36.873,1.6949738616948562
2025-03-30 15:03:36.882,3.683520925697394
2025-03-30 15:03:36.882,1.2515186968001224
2025-03-30 15:03:36.882,-2.696181452024331
2025-03-30 15:03:36.882,-3.6467676206710817
2025-03-30 15:03:36.882,-0.833879592151116
2025-03-30 15:03:36.892,2.5518310226415517
2025-03-30 15:03:36.892,3.3695304162473203
2025-03-30 15:03:36.892,1.3171573184787206
2025-03-30 15:03:36.892,-1.6477315384944917
2025-03-30 15:03:36.892,-3.23731186791912
2025-03-30 15:03:36.902,-2.2870920557760224
2025-03-30 15:03:36.902,0.508045481162916
2025-03-30 15:03:36.902,2.9367691030307275
2025-03-30 15:03:36.902,2.9938358125229456
2025-03-30 15:03:36.902,0.6748164675050384
2025-03-30 15:03:36.912,-2.060496617339139
2025-03-30 15:03:36.912,-3.0973787946540114
2025-03-30 15:03:36.912,-1.8131956310593378
2025-03-30 15:03:36.912,0.7293218466593713
2025-03-30 15:03:36.912,2.6693937275685933
2025-03-30 15:03:36.922,2.5613698971780585
2025-03-30 15:03:36.922,0.47096862663565126
2025-03-30 15:03:36.922,-1.8405305550254005
2025-03-30 15:03:36.922,-2.368379380286411
2025-03-30 15:03:36.922,-0.9021224754175088
2025-03-30 15:03:36.930,0.7675079152339065
2025-03-30 15:03:36.930,1.0276823321247592
2025-03-30 15:03:36.930,0.3256027657020379
2025-03-30 15:03:36.930,0.21788598552284377
2025-03-30 15:03:36.940,0.906566282634393
2025-03-30 15:03:36.940,0.8326836744765432
2025-03-30 15:03:36.940,-0.8768669021020269
2025-03-30 15:03:36.940,-2.524203064690389
2025-03-30 15:03:36.941,-1.638020451313234
2025-03-30 15:03:36.950,1.4361789248276422
2025-03-30 15:03:36.950,3.2203254643434693
2025-03-30 15:03:36.950,1.3167412724515168
2025-03-30 15:03:36.950,-2.1332819241712078
2025-03-30 15:03:36.950,-2.861421803017314
2025-03-30 15:03:36.960,-0.029080971004315892
2025-03-30 15:03:36.960,2.603078277170019
2025-03-30 15:03:36.960,1.6987212199541002
2025-03-30 15:03:36.960,-1.2704042614682702
2025-03-30 15:03:36.960,-2.2704427817208783
2025-03-30 15:03:36.970,-0.2661380875846883
2025-03-30 15:03:36.970,1.7064234667267826
2025-03-30 15:03:36.970,1.1036960072765345
2025-03-30 15:03:36.970,-0.7440779201628499
2025-03-30 15:03:36.970,-1.0451480594914535
2025-03-30 15:03:36.980,0.28794431919264424
2025-03-30 15:03:36.980,0.8850102607579188
2025-03-30 15:03:36.980,-0.24948373972757829
2025-03-30 15:03:36.980,-1.2802102441047718
2025-03-30 15:03:36.980,-0.40423299884688935
2025-03-30 15:03:36.990,1.433945496304608
2025-03-30 15:03:36.990,1.7984324504700173
2025-03-30 15:03:36.990,-0.03483049039100504
2025-03-30 15:03:36.990,-2.173094279778953
2025-03-30 15:03:36.990,-2.2296785689882026
2025-03-30 15:03:37.000,0.1649066238996736
2025-03-30 15:03:37.000,2.8042999058689233
2025-03-30 15:03:37.000,2.803505921706206
2025-03-30 15:03:37.000,-0.3393401024490623
2025-03-30 15:03:37.000,-3.5623985074887234
2025-03-30 15:03:37.010,-3.165637999984367
2025-03-30 15:03:37.010,0.7372232284862454
2025-03-30 15:03:37.010,3.886260754921961
2025-03-30 15:03:37.010,2.7974887601600673
2025-03-30 15:03:37.010,-1.026260815210215
2025-03-30 15:03:37.020,-3.088841534868309
2025-03-30 15:03:37.020,-1.52630587254291
2025-03-30 15:03:37.020,0.9710323022133337
2025-03-30 15:03:37.020,1.1927587833615891
2025-03-30 15:03:37.020,-0.34416963697091585
2025-03-30 15:03:37.030,-0.6623282498266108
2025-03-30 15:03:37.030,1.0412423527454653
2025-03-30 15:03:37.030,2.129132626154392
2025-03-30 15:03:37.030,0.34631246143496786
2025-03-30 15:03:37.030,-2.7076203688242075
2025-03-30 15:03:37.040,-3.2517198452656775
2025-03-30 15:03:37.040,-0.07127011473752262
2025-03-30 15:03:37.040,3.5566311080862527
2025-03-30 15:03:37.040,3.357289259444965
2025-03-30 15:03:37.040,-0.7210554067569546
2025-03-30 15:03:37.050,-3.884406964224946
2025-03-30 15:03:37.050,-2.095950390225516
2025-03-30 15:03:37.050,2.512422954983048
2025-03-30 15:03:37.050,3.8809712801890544
2025-03-30 15:03:37.050,-0.14920764299997424
2025-03-30 15:03:37.060,-4.661486095889812
2025-03-30 15:03:37.060,-3.7784045834802265
2025-03-30 15:03:37.060,1.8403080603730835
2025-03-30 15:03:37.060,5.852982999388386
2025-03-30 15:03:37.060,3.9163139597740324
2025-03-30 15:03:37.068,-1.6942453696942334
2025-03-30 15:03:37.068,-5.349888177860716
2025-03-30 15:03:37.068,-4.1398882257883365
2025-03-30 15:03:37.069,0.10653175036096352
2025-03-30 15:03:37.078,3.544066529905079
2025-03-30 15:03:37.078,3.8093995893517927
2025-03-30 15:03:37.078,1.3397359854782824
2025-03-30 15:03:37.078,-1.5432520284596605
2025-03-30 15:03:37.079,-2.6159266096160168
2025-03-30 15:03:37.088,-1.486059553782134
2025-03-30 15:03:37.088,0.27505068816989797
2025-03-30 15:03:37.088,0.9196803908327773
2025-03-30 15:03:37.088,0.4314229749601113
2025-03-30 15:03:37.088,0.20020636025757155
2025-03-30 15:03:37.098,0.7685945981134894
2025-03-30 15:03:37.098,0.8297485345755163
2025-03-30 15:03:37.098,-0.6946174098751322
2025-03-30 15:03:37.098,-2.2769529794195575
2025-03-30 15:03:37.098,-1.206861010453104
2025-03-30 15:03:37.108,2.202890706456811
2025-03-30 15:03:37.108,3.7186149622892963
2025-03-30 15:03:37.108,0.31566220750315077
2025-03-30 15:03:37.108,-4.803303393277477
2025-03-30 15:03:37.108,-5.047454789486495
2025-03-30 15:03:37.118,1.132568765937581
2025-03-30 15:03:37.118,7.1819671907946665
2025-03-30 15:03:37.118,5.805861539835299
2025-03-30 15:03:37.118,-1.9820510652147925
2025-03-30 15:03:37.118,-7.742163215828389
2025-03-30 15:03:37.128,-5.485816642708937
2025-03-30 15:03:37.128,1.7342872671581662
2025-03-30 15:03:37.128,6.113422571557054
2025-03-30 15:03:37.128,4.080772146340132
2025-03-30 15:03:37.128,-0.8758984053424195
2025-03-30 15:03:37.138,-3.415346508714561
2025-03-30 15:03:37.138,-2.090509141589545
2025-03-30 15:03:37.138,0.43942601423932404
2025-03-30 15:03:37.138,1.2395174262344721
2025-03-30 15:03:37.138,0.04607145374162497
2025-03-30 15:03:37.148,-1.0865708530810552
2025-03-30 15:03:37.148,-0.3581477771128848
2025-03-30 15:03:37.148,1.6255035402944389
2025-03-30 15:03:37.148,2.353334812120524
2025-03-30 15:03:37.148,0.37024584039621766
2025-03-30 15:03:37.158,-2.5455013854480377
2025-03-30 15:03:37.158,-3.0651131038477653
2025-03-30 15:03:37.158,-0.3596103840160537
2025-03-30 15:03:37.158,2.5937601367243697
2025-03-30 15:03:37.158,2.5336367119339402
2025-03-30 15:03:37.166,-0.11917974711255963
2025-03-30 15:03:37.166,-2.0462447499400995
2025-03-30 15:03:37.166,-1.3161505618060971
2025-03-30 15:03:37.167,0.6255808078495999
2025-03-30 15:03:37.167,1.3790603293471844
2025-03-30 15:03:37.176,0.545983929290232
2025-03-30 15:03:37.176,-0.4971619538457075
2025-03-30 15:03:37.176,-0.7935182767008105
2025-03-30 15:03:37.177,-0.6184473834538067
2025-03-30 15:03:37.177,-0.37216277332046477
2025-03-30 15:03:37.186,0.16492631422462734
2025-03-30 15:03:37.186,1.0346132886700594
2025-03-30 15:03:37.186,1.3906837700849923
2025-03-30 15:03:37.187,0.4652201700339553
2025-03-30 15:03:37.187,-1.0764650445409234
2025-03-30 15:03:37.196,-1.6802633336555555
2025-03-30 15:03:37.196,-0.8331397413027015
2025-03-30 15:03:37.196,0.37965586358296044
2025-03-30 15:03:37.197,0.8452739948180014
2025-03-30 15:03:37.197,0.7387417579786686
2025-03-30 15:03:37.206,0.7628033269772027
2025-03-30 15:03:37.206,0.7234250535124715
2025-03-30 15:03:37.206,-0.1860937705788578
2025-03-30 15:03:37.207,-1.7117540641850995
2025-03-30 15:03:37.216,-2.180322559569043
2025-03-30 15:03:37.216,-0.5344659823998197
2025-03-30 15:03:37.216,1.8599685896443243
2025-03-30 15:03:37.217,2.539128325278812
2025-03-30 15:03:37.217,1.0067239196812638
2025-03-30 15:03:37.217,-0.73695775545278
2025-03-30 15:03:37.226,-1.090399266253339
2025-03-30 15:03:37.226,-0.9024459952717336
2025-03-30 15:03:37.226,-1.5241284714845524
2025-03-30 15:03:37.226,-1.9531017249745863
2025-03-30 15:03:37.236,0.029615037821203546
2025-03-30 15:03:37.236,3.841890264374725
2025-03-30 15:03:37.236,5.344526926779667
2025-03-30 15:03:37.236,1.5362403114178762
2025-03-30 15:03:37.237,-4.921642665099536
2025-03-30 15:03:37.246,-7.616724356381212
2025-03-30 15:03:37.246,-3.239130433867836
2025-03-30 15:03:37.246,4.390413007219672
2025-03-30 15:03:37.246,7.950848108115891
2025-03-30 15:03:37.247,4.159495084022708
2025-03-30 15:03:37.256,-2.9332075023771966
2025-03-30 15:03:37.256,-6.405401839212297
2025-03-30 15:03:37.256,-3.677478029985607
2025-03-30 15:03:37.256,1.4270245092636773
2025-03-30 15:03:37.257,3.635670414210117
2025-03-30 15:03:37.266,2.0053022893583354
2025-03-30 15:03:37.266,-0.17712923952115353
2025-03-30 15:03:37.266,-0.42141513566930655
2025-03-30 15:03:37.266,0.04275820142557124
2025-03-30 15:03:37.266,-0.9425972651272009
2025-03-30 15:03:37.276,-2.5078298428245898
2025-03-30 15:03:37.276,-1.696541137101528
2025-03-30 15:03:37.276,1.8776891684264314
2025-03-30 15:03:37.276,4.486163059668671
2025-03-30 15:03:37.276,2.6053832477221857
2025-03-30 15:03:37.286,-2.3324412831997927
2025-03-30 15:03:37.286,-5.14282252896305
2025-03-30 15:03:37.286,-2.805474753354183
2025-03-30 15:03:37.286,2.1270433578270125
2025-03-30 15:03:37.286,4.563363361972869
2025-03-30 15:03:37.296,2.4668388251379687
2025-03-30 15:03:37.296,-1.4083360829712344
2025-03-30 15:03:37.296,-3.0666265726940853
2025-03-30 15:03:37.296,-1.6022810634254543
2025-03-30 15:03:37.296,0.5267145021405126
2025-03-30 15:03:37.305,1.0241207512901058
2025-03-30 15:03:37.306,0.34361786279809764
2025-03-30 15:03:37.306,0.2303899974070379
2025-03-30 15:03:37.306,0.8112690280426577
2025-03-30 15:03:37.306,0.6467045906733387
2025-03-30 15:03:37.314,-0.6246538368285257
2025-03-30 15:03:37.314,-1.4464044976765793
2025-03-30 15:03:37.314,-0.6972506186334808
2025-03-30 15:03:37.315,0.5337440908315624
2025-03-30 15:03:37.315,0.6065576226791995
2025-03-30 15:03:37.326,-0.16596093634839448
2025-03-30 15:03:37.326,-0.12361130579509774
2025-03-30 15:03:37.326,0.9404557646660979
2025-03-30 15:03:37.326,1.2340514270203606
2025-03-30 15:03:37.326,-0.2799800322608724
2025-03-30 15:03:37.336,-2.0013631273537538
2025-03-30 15:03:37.336,-1.7135773868336128
2025-03-30 15:03:37.336,0.3541818340997914
2025-03-30 15:03:37.336,1.8559268985467041
2025-03-30 15:03:37.336,1.4112930290078274
2025-03-30 15:03:37.344,0.007909298892722252
2025-03-30 15:03:37.344,-0.7904470867836002
2025-03-30 15:03:37.344,-0.7637603515950903
2025-03-30 15:03:37.345,-0.5757442981835031
2025-03-30 15:03:37.345,-0.3638511034829133
2025-03-30 15:03:37.354,0.23069263828880696
2025-03-30 15:03:37.354,1.0018768243168668
2025-03-30 15:03:37.354,1.1025083955947297
2025-03-30 15:03:37.355,0.16182824876776059
2025-03-30 15:03:37.355,-1.0775322807356553
2025-03-30 15:03:37.365,-1.466762985211978
2025-03-30 15:03:37.366,-0.5910454069784932
2025-03-30 15:03:37.366,0.8301976570288138
2025-03-30 15:03:37.366,1.5603948989110465
2025-03-30 15:03:37.366,0.964025637416286
2025-03-30 15:03:37.374,-0.3654979799307017
2025-03-30 15:03:37.374,-1.2150196083989293
2025-03-30 15:03:37.374,-1.0109315049291558
2025-03-30 15:03:37.375,-0.23636319887305468
2025-03-30 15:03:37.375,0.37339843890680857
2025-03-30 15:03:37.384,0.6205617194529879
2025-03-30 15:03:37.384,0.6921919322965109
2025-03-30 15:03:37.384,0.6160950365430953
2025-03-30 15:03:37.385,0.1816451468840587
2025-03-30 15:03:37.385,-0.6637684243666137
2025-03-30 15:03:37.394,-1.4400514232293962
2025-03-30 15:03:37.394,-1.2675518886767658
2025-03-30 15:03:37.394,0.2548749057850997
2025-03-30 15:03:37.395,2.10076771638876
2025-03-30 15:03:37.395,2.2914984354254666
2025-03-30 15:03:37.404,0.05651410066231252
2025-03-30 15:03:37.404,-2.661059877602509
2025-03-30 15:03:37.404,-2.818677898354743
2025-03-30 15:03:37.405,0.1599531258637673
2025-03-30 15:03:37.414,3.134176071020685
2025-03-30 15:03:37.414,2.5408398641790115
2025-03-30 15:03:37.414,-1.1279135957799271
2025-03-30 15:03:37.414,-3.4008399017139586
2025-03-30 15:03:37.415,-1.241352994170646
2025-03-30 15:03:37.424,2.692039481140807
2025-03-30 15:03:37.424,3.082938376697655
2025-03-30 15:03:37.424,-0.9328204825647588
2025-03-30 15:03:37.424,-4.151820344110046
2025-03-30 15:03:37.425,-2.0257621350878496
2025-03-30 15:03:37.434,3.0596329368777027
2025-03-30 15:03:37.434,4.6802397218307785
2025-03-30 15:03:37.434,0.7398015048245365
2025-03-30 15:03:37.434,-3.9287737321230183
2025-03-30 15:03:37.435,-3.9681449900705257
2025-03-30 15:03:37.444,-0.011493795884648439
2025-03-30 15:03:37.444,3.004793291249706
2025-03-30 15:03:37.444,2.423532117382002
2025-03-30 15:03:37.444,0.21842015676462315
2025-03-30 15:03:37.444,-0.8589201601793527
2025-03-30 15:03:37.454,-0.8031737415990027
2025-03-30 15:03:37.454,-0.9960893386228633
2025-03-30 15:03:37.454,-1.2695446703995752
2025-03-30 15:03:37.454,-0.3159545286005843
2025-03-30 15:03:37.455,1.5975735852886541
2025-03-30 15:03:37.464,2.3491979253718225
2025-03-30 15:03:37.464,0.8279550328147254
2025-03-30 15:03:37.464,-1.4116555929802368
2025-03-30 15:03:37.464,-2.1751634590935947
2025-03-30 15:03:37.464,-1.1811934768514052
2025-03-30 15:03:37.474,0.32235804127680034
2025-03-30 15:03:37.474,1.4165200588435214
2025-03-30 15:03:37.474,1.7895859324365304
2025-03-30 15:03:37.474,1.0420553403622685
2025-03-30 15:03:37.474,-0.7926443461035
2025-03-30 15:03:37.484,-2.366572495533678
2025-03-30 15:03:37.484,-1.9995610187571307
2025-03-30 15:03:37.484,0.28805070904052954
2025-03-30 15:03:37.484,2.4943649984548633
2025-03-30 15:03:37.484,2.5882423655969813
2025-03-30 15:03:37.492,0.43309481345883083
2025-03-30 15:03:37.492,-2.167337402437223
2025-03-30 15:03:37.493,-3.043937301922753
2025-03-30 15:03:37.493,-1.4178237373411202
2025-03-30 15:03:37.493,1.4568547320311889
2025-03-30 15:03:37.502,3.2423824240650303
2025-03-30 15:03:37.502,2.4222693256404204
2025-03-30 15:03:37.503,-0.37753246826574594
2025-03-30 15:03:37.503,-2.9040435625324097
2025-03-30 15:03:37.503,-3.201743537898702
2025-03-30 15:03:37.512,-1.1034045842253266
2025-03-30 15:03:37.512,1.8992280724815034
2025-03-30 15:03:37.512,3.776017123295467
2025-03-30 15:03:37.513,3.0208618928998474
2025-03-30 15:03:37.513,-0.38586501183449473
2025-03-30 15:03:37.522,-4.239600973572807
2025-03-30 15:03:37.522,-5.031689287914368
2025-03-30 15:03:37.522,-1.1687490628859378
2025-03-30 15:03:37.523,4.4101581347252905
2025-03-30 15:03:37.523,6.250193230179679
2025-03-30 15:03:37.532,2.137092117136508
2025-03-30 15:03:37.532,-3.9181171775026216
2025-03-30 15:03:37.532,-5.8070116370489355
2025-03-30 15:03:37.533,-2.1590780950648814
2025-03-30 15:03:37.542,2.5084640798964175
2025-03-30 15:03:37.542,3.638250777199717
2025-03-30 15:03:37.542,1.6280960483688236
2025-03-30 15:03:37.543,-0.21842736750310332
2025-03-30 15:03:37.543,-0.7606761520480397
2025-03-30 15:03:37.552,-1.422097403683019
2025-03-30 15:03:37.552,-2.3265433265864366
2025-03-30 15:03:37.552,-1.3553441894162654
2025-03-30 15:03:37.553,1.9207877477018906
2025-03-30 15:03:37.553,4.056472655525042
2025-03-30 15:03:37.562,1.813518874597823
2025-03-30 15:03:37.562,-2.81989804570232
2025-03-30 15:03:37.562,-4.365012935941401
2025-03-30 15:03:37.562,-0.7796675751261963
2025-03-30 15:03:37.563,3.6533641887645074
2025-03-30 15:03:37.572,3.602112330152162
2025-03-30 15:03:37.572,-0.691995830759438
2025-03-30 15:03:37.572,-3.954979774167219
2025-03-30 15:03:37.572,-2.5262131239674375
2025-03-30 15:03:37.573,1.516582203176173
2025-03-30 15:03:37.582,3.411157592217714
2025-03-30 15:03:37.582,1.4545941170078311
2025-03-30 15:03:37.582,-1.5455124776919753
2025-03-30 15:03:37.582,-2.1326646598717858
2025-03-30 15:03:37.583,-0.2163463895296044
2025-03-30 15:03:37.592,1.3809578236669127
2025-03-30 15:03:37.592,0.7178307032231716
2025-03-30 15:03:37.592,-1.067781381696646
2025-03-30 15:03:37.592,-1.5600385686039757
2025-03-30 15:03:37.593,-0.07818890028657906
2025-03-30 15:03:37.602,1.8216574821206557
2025-03-30 15:03:37.602,2.2662711197629437
2025-03-30 15:03:37.602,0.7407939057502726
2025-03-30 15:03:37.602,-1.7142435740813737
2025-03-30 15:03:37.602,-3.1940425057387403
2025-03-30 15:03:37.612,-2.176020965998099
2025-03-30 15:03:37.612,0.9483464966419801
2025-03-30 15:03:37.612,3.5946282185609992
2025-03-30 15:03:37.612,3.175579890605489
2025-03-30 15:03:37.612,-0.05732835711754303
2025-03-30 15:03:37.622,-2.985001127742201
2025-03-30 15:03:37.622,-2.891358402187945
2025-03-30 15:03:37.622,-0.3408029848151807
2025-03-30 15:03:37.622,1.7193844473841329
2025-03-30 15:03:37.622,1.4322491514108187
2025-03-30 15:03:37.630,-0.10663101388753632
2025-03-30 15:03:37.630,-0.6086090264901767
2025-03-30 15:03:37.631,0.41617962754569365
2025-03-30 15:03:37.631,1.169839526425687
2025-03-30 15:03:37.640,0.13059171288903107
2025-03-30 15:03:37.640,-1.7119521158557232
2025-03-30 15:03:37.640,-2.0329498721376518
2025-03-30 15:03:37.641,-0.27086745898557174
2025-03-30 15:03:37.641,1.646570144921085
2025-03-30 15:03:37.650,1.9204219270857539
2025-03-30 15:03:37.650,0.9419644605958559
2025-03-30 15:03:37.650,-0.015043859860863044
2025-03-30 15:03:37.650,-0.8691531600090028
2025-03-30 15:03:37.650,-2.028560909342164
2025-03-30 15:03:37.660,-2.450810012991176
2025-03-30 15:03:37.660,-0.4944259753786295
2025-03-30 15:03:37.660,3.0340889858559934
2025-03-30 15:03:37.660,4.568502705688935
2025-03-30 15:03:37.661,1.7452773737754788
2025-03-30 15:03:37.670,-3.233855414262965
2025-03-30 15:03:37.670,-5.515506971366389
2025-03-30 15:03:37.670,-2.7675726310549518
2025-03-30 15:03:37.670,2.390166331344186
2025-03-30 15:03:37.671,5.190113062627473
2025-03-30 15:03:37.680,3.381033204418705
2025-03-30 15:03:37.680,-1.0070251942460058
2025-03-30 15:03:37.680,-4.000361558221558
2025-03-30 15:03:37.680,-3.366683004862517
2025-03-30 15:03:37.681,-0.2093754416712665
2025-03-30 15:03:37.690,2.5226160240522946
2025-03-30 15:03:37.690,2.7889763695880903
2025-03-30 15:03:37.690,0.9192583112644691
2025-03-30 15:03:37.690,-1.203314085657886
2025-03-30 15:03:37.691,-2.0347292956703145
2025-03-30 15:03:37.700,-1.378515867018912
2025-03-30 15:03:37.700,0.09679035352798412
2025-03-30 15:03:37.700,1.5975430046193522
2025-03-30 15:03:37.700,2.1763268108347007
2025-03-30 15:03:37.701,0.8792726407833394
2025-03-30 15:03:37.710,-1.87977096639115
2025-03-30 15:03:37.710,-3.490107796510996
2025-03-30 15:03:37.710,-1.4639367978809221
2025-03-30 15:03:37.710,2.8860476446123915
2025-03-30 15:03:37.710,4.795935495711113
2025-03-30 15:03:37.720,1.4630208448040425
2025-03-30 15:03:37.720,-3.9497980284151666
2025-03-30 15:03:37.720,-5.478059702594621
2025-03-30 15:03:37.720,-1.2832035549293779
2025-03-30 15:03:37.721,4.185432734560643
2025-03-30 15:03:37.730,5.30456379325295
2025-03-30 15:03:37.730,1.323630983404875
2025-03-30 15:03:37.730,-3.395080872051618
2025-03-30 15:03:37.730,-4.368831037555241
2025-03-30 15:03:37.730,-1.3160976184653104
2025-03-30 15:03:37.740,2.2568789329981866
2025-03-30 15:03:37.740,2.97198910071776
2025-03-30 15:03:37.740,0.7790656839523524
2025-03-30 15:03:37.740,-1.5193368572843808
2025-03-30 15:03:37.741,-1.5699838267849098
2025-03-30 15:03:37.750,0.13090694807829512
2025-03-30 15:03:37.750,1.3078625779797564
2025-03-30 15:03:37.750,0.7749027185893267
2025-03-30 15:03:37.750,-0.5758215793375041
2025-03-30 15:03:37.750,-1.3667638270131053
2025-03-30 15:03:37.760,-1.1589771517070147
2025-03-30 15:03:37.760,-0.10999950892958175
2025-03-30 15:03:37.760,1.511888043734298
2025-03-30 15:03:37.760,2.7157213329246437
2025-03-30 15:03:37.760,1.804504952123935
2025-03-30 15:03:37.768,-1.55062789314742
2025-03-30 15:03:37.768,-4.620297754164328
2025-03-30 15:03:37.769,-3.730257859281979
2025-03-30 15:03:37.769,1.230078127259582
2025-03-30 15:03:37.769,5.642305552679192
2025-03-30 15:03:37.778,4.8366780235386635
2025-03-30 15:03:37.778,-0.5023842121638114
2025-03-30 15:03:37.779,-4.957190794128584
2025-03-30 15:03:37.779,-4.445444616207105
2025-03-30 15:03:37.779,-0.35623307563227363
2025-03-30 15:03:37.788,2.842937735911765
2025-03-30 15:03:37.788,2.8220670414705236
2025-03-30 15:03:37.788,0.995548731213529
2025-03-30 15:03:37.789,-0.36460770686769095
2025-03-30 15:03:37.798,-0.8588491079125478
2025-03-30 15:03:37.798,-1.3023676845769117
2025-03-30 15:03:37.798,-1.6330437692921707
2025-03-30 15:03:37.799,-0.816447718093387
2025-03-30 15:03:37.799,1.2800341687420476
2025-03-30 15:03:37.808,2.957502212623095
2025-03-30 15:03:37.808,2.2150747278415177
2025-03-30 15:03:37.808,-0.9146640909379856
2025-03-30 15:03:37.808,-3.821666686137545
2025-03-30 15:03:37.809,-3.451054883080638
2025-03-30 15:03:37.818,0.4931583518490398
2025-03-30 15:03:37.818,4.4653746316324865
2025-03-30 15:03:37.818,4.1650353214426215
2025-03-30 15:03:37.818,-0.5711522844013328
2025-03-30 15:03:37.818,-4.8181736683937615
2025-03-30 15:03:37.828,-3.8189525207578794
2025-03-30 15:03:37.828,1.247662407286652
2025-03-30 15:03:37.828,4.475250919406984
2025-03-30 15:03:37.828,2.3999357772420273
2025-03-30 15:03:37.829,-1.9329010826583126
2025-03-30 15:03:37.838,-3.173121517116981
2025-03-30 15:03:37.838,-0.43144508976881835
2025-03-30 15:03:37.838,2.134467374581053
2025-03-30 15:03:37.838,1.158486743211905
2025-03-30 15:03:37.839,-1.620613877879279
2025-03-30 15:03:37.848,-1.98713760834921
2025-03-30 15:03:37.848,0.9518810538388798
2025-03-30 15:03:37.848,3.436698499345577
2025-03-30 15:03:37.848,1.8751277237054431
2025-03-30 15:03:37.848,-2.410924759352499
2025-03-30 15:03:37.858,-4.576711628700243
2025-03-30 15:03:37.858,-2.0233193831252985
2025-03-30 15:03:37.858,2.6146300153501336
2025-03-30 15:03:37.858,4.664689605120504
2025-03-30 15:03:37.858,2.505650238012082
2025-03-30 15:03:37.868,-1.400592238867479
2025-03-30 15:03:37.868,-3.7389251317451424
2025-03-30 15:03:37.868,-3.255937895776369
2025-03-30 15:03:37.868,-0.7334757063803681
2025-03-30 15:03:37.868,2.259254421177427
2025-03-30 15:03:37.878,3.9055777323651304
2025-03-30 15:03:37.878,2.7473518473885767
2025-03-30 15:03:37.878,-0.8203638822404847
2025-03-30 15:03:37.878,-3.982348998084742
2025-03-30 15:03:37.878,-3.749720654609566
2025-03-30 15:03:37.888,-0.184700670734853
2025-03-30 15:03:37.888,3.3359457338870064
2025-03-30 15:03:37.888,3.56063628554872
2025-03-30 15:03:37.888,0.6826557723303124
2025-03-30 15:03:37.888,-2.1805514408124256
2025-03-30 15:03:37.898,-2.497248210429252
2025-03-30 15:03:37.898,-0.7104949841218237
2025-03-30 15:03:37.898,0.8866001868729696
2025-03-30 15:03:37.898,0.9872554877746711
2025-03-30 15:03:37.898,0.35098917811175817
2025-03-30 15:03:37.906,0.20193569020741436
2025-03-30 15:03:37.906,0.43943764413909686
2025-03-30 15:03:37.907,0.09534043382765572
2025-03-30 15:03:37.907,-0.8743021171469922
2025-03-30 15:03:37.907,-1.259289364432866
2025-03-30 15:03:37.918,-0.28188166522490454
2025-03-30 15:03:37.918,1.1325378234895287
2025-03-30 15:03:37.918,1.362018979842107
2025-03-30 15:03:37.918,0.10674888071128508
2025-03-30 15:03:37.918,-1.183468469501153
2025-03-30 15:03:37.926,-1.0395130051884702
2025-03-30 15:03:37.926,0.28284565868305506
2025-03-30 15:03:37.927,1.1887970806712398
2025-03-30 15:03:37.927,0.677410573804799
2025-03-30 15:03:37.927,-0.628179156690025
2025-03-30 15:03:37.936,-1.345727639205472
2025-03-30 15:03:37.936,-0.7002310682047473
2025-03-30 15:03:37.937,0.9229909648070607
2025-03-30 15:03:37.937,2.1353994656319073
2025-03-30 15:03:37.937,1.3577484399736623
2025-03-30 15:03:37.946,-1.4741224108097601
2025-03-30 15:03:37.946,-3.802143377920924
2025-03-30 15:03:37.946,-2.4388902743929446
2025-03-30 15:03:37.947,2.3183455620096427
2025-03-30 15:03:37.956,5.708001618013132
2025-03-30 15:03:37.956,3.4032594764081177
2025-03-30 15:03:37.956,-2.9004549139488223
2025-03-30 15:03:37.957,-6.673355744881711
2025-03-30 15:03:37.957,-3.8413622128727734
2025-03-30 15:03:37.966,2.596674435082801
2025-03-30 15:03:37.966,6.119299938512483
2025-03-30 15:03:37.966,3.7461443523860956
2025-03-30 15:03:37.966,-1.519347254918121
2025-03-30 15:03:37.966,-4.570508845226451
2025-03-30 15:03:37.976,-3.2475581287634223
2025-03-30 15:03:37.976,0.40502519943616655
2025-03-30 15:03:37.976,2.844783043127424
2025-03-30 15:03:37.977,2.4093620670506524
2025-03-30 15:03:37.977,0.2958250344130917
2025-03-30 15:03:37.986,-1.2519369681430808
2025-03-30 15:03:37.986,-1.315208068666493
2025-03-30 15:03:37.986,-0.7168234575906647
2025-03-30 15:03:37.986,-0.3626551784942127
2025-03-30 15:03:37.986,0.06753524108494463
2025-03-30 15:03:37.996,1.1692720136692814
2025-03-30 15:03:37.996,2.0597545037080978
2025-03-30 15:03:37.996,0.9807193881497245
2025-03-30 15:03:37.996,-1.8304593379444247
2025-03-30 15:03:37.996,-3.3009816420142633
2025-03-30 15:03:38.006,-1.1111626175631912
2025-03-30 15:03:38.006,2.623415069575338
2025-03-30 15:03:38.006,3.362930489826182
2025-03-30 15:03:38.006,0.03226804189711599
2025-03-30 15:03:38.007,-3.217923232082478
2025-03-30 15:03:38.016,-2.2704727422694684
2025-03-30 15:03:38.016,1.567204690361525
2025-03-30 15:03:38.016,3.302560892605827
2025-03-30 15:03:38.016,0.7496423725217465
2025-03-30 15:03:38.017,-2.7783281964923567
2025-03-30 15:03:38.026,-2.833513461191721
2025-03-30 15:03:38.026,0.5728315309049827
2025-03-30 15:03:38.026,3.1656039553343414
2025-03-30 15:03:38.026,1.8850024205533789
2025-03-30 15:03:38.027,-1.3936027714452839
2025-03-30 15:03:38.036,-2.52992175222062
2025-03-30 15:03:38.036,-0.5286801281334381
2025-03-30 15:03:38.036,1.4956626771099764
2025-03-30 15:03:38.036,0.8911668626209434
2025-03-30 15:03:38.036,-0.9483320023771498
2025-03-30 15:03:38.046,-0.9383921918634436
2025-03-30 15:03:38.046,1.0580594529144496
2025-03-30 15:03:38.046,2.0808335723274656
2025-03-30 15:03:38.046,0.3855303151621168
2025-03-30 15:03:38.046,-2.161284945371695
2025-03-30 15:03:38.056,-2.680721032283618
2025-03-30 15:03:38.056,-0.7311264764387871
2025-03-30 15:03:38.056,1.7951382442423216
2025-03-30 15:03:38.056,3.015098640788722
2025-03-30 15:03:38.056,2.1976256352075936
2025-03-30 15:03:38.064,-0.3868296272330733
2025-03-30 15:03:38.065,-3.2791211962855735
2025-03-30 15:03:38.065,-4.023758385215393
2025-03-30 15:03:38.065,-1.2290350025949612
2025-03-30 15:03:38.065,3.216534450412371
2025-03-30 15:03:38.074,5.181124186024961
2025-03-30 15:03:38.074,2.423506363940032
2025-03-30 15:03:38.074,-2.6605098710705577
2025-03-30 15:03:38.075,-5.164546690441516
2025-03-30 15:03:38.084,-2.707946949627323
2025-03-30 15:03:38.084,2.043805330780574
2025-03-30 15:03:38.084,4.214333122166522
2025-03-30 15:03:38.085,1.8978678672680995
2025-03-30 15:03:38.085,-1.9624245039448065
2025-03-30 15:03:38.094,-3.0264849667150635
2025-03-30 15:03:38.094,-0.4202312868682031
2025-03-30 15:03:38.094,2.4711122106928705
2025-03-30 15:03:38.095,2.095689044330915
2025-03-30 15:03:38.095,-1.0710649211293266
2025-03-30 15:03:38.104,-3.112891592750421
2025-03-30 15:03:38.104,-1.3617645885921308
2025-03-30 15:03:38.104,2.2993037065026054
2025-03-30 15:03:38.105,3.484815375015711
2025-03-30 15:03:38.105,0.4986283413142244
2025-03-30 15:03:38.114,-3.3584661298034564
2025-03-30 15:03:38.114,-3.388929528246267
2025-03-30 15:03:38.114,0.7947846419646206
2025-03-30 15:03:38.115,4.30282735586958
2025-03-30 15:03:38.115,2.6037827438290706
2025-03-30 15:03:38.124,-2.5876455353933268
2025-03-30 15:03:38.124,-4.8722635191856245
2025-03-30 15:03:38.124,-1.0825454033191773
2025-03-30 15:03:38.124,4.314867968009975
2025-03-30 15:03:38.125,4.581851984442581
2025-03-30 15:03:38.134,-0.6643376569856498
2025-03-30 15:03:38.134,-4.925052395333506
2025-03-30 15:03:38.134,-3.1973151409398923
2025-03-30 15:03:38.134,1.8663720031298228
2025-03-30 15:03:38.134,3.901161164460379
2025-03-30 15:03:38.144,1.0858990980175274
2025-03-30 15:03:38.144,-2.2268059678341867
2025-03-30 15:03:38.144,-1.8412552948417749
2025-03-30 15:03:38.144,1.0092842947614438
2025-03-30 15:03:38.145,2.032369539917299
2025-03-30 15:03:38.154,-0.11616445124638236
2025-03-30 15:03:38.154,-2.355556798441774
2025-03-30 15:03:38.154,-1.612004985177799
2025-03-30 15:03:38.154,1.1775163572259357
2025-03-30 15:03:38.155,2.543938144639788
2025-03-30 15:03:38.164,1.0060293898289423
2025-03-30 15:03:38.164,-1.3227827205005502
2025-03-30 15:03:38.164,-1.7000234607909281
2025-03-30 15:03:38.164,-0.12888755610444377
2025-03-30 15:03:38.165,1.051407207816985
2025-03-30 15:03:38.172,0.40316090034807783
2025-03-30 15:03:38.172,-0.9004607163780673
2025-03-30 15:03:38.173,-0.8538513412184362
2025-03-30 15:03:38.173,0.6819728412606775
2025-03-30 15:03:38.173,1.7658676894567913
2025-03-30 15:03:38.182,0.7927884403856343
2025-03-30 15:03:38.182,-1.3751381217128145
2025-03-30 15:03:38.183,-2.1678634820583946
2025-03-30 15:03:38.183,-0.3782167680911293
2025-03-30 15:03:38.183,2.0075895733709292
2025-03-30 15:03:38.192,1.9294572225873636
2025-03-30 15:03:38.192,-0.7637278091418324
2025-03-30 15:03:38.193,-2.688609063112893
2025-03-30 15:03:38.193,-1.1336384239627835
2025-03-30 15:03:38.202,2.150234254856445
2025-03-30 15:03:38.202,2.9650352093282506
2025-03-30 15:03:38.202,0.15665337793322173
2025-03-30 15:03:38.203,-2.8137042156829453
2025-03-30 15:03:38.203,-2.4015304110844076
2025-03-30 15:03:38.212,0.5609008420824104
2025-03-30 15:03:38.212,2.3132131875051725
2025-03-30 15:03:38.212,1.1325250489968997
2025-03-30 15:03:38.212,-0.9008261569221293
2025-03-30 15:03:38.213,-1.1119013359054468
2025-03-30 15:03:38.222,0.3495189786105645
2025-03-30 15:03:38.222,1.1609140516892107
2025-03-30 15:03:38.222,0.09391587189988486
2025-03-30 15:03:38.222,-1.5279930826480008
2025-03-30 15:03:38.223,-1.659799713574871
2025-03-30 15:03:38.230,0.03370630047636636
2025-03-30 15:03:38.230,1.966260963892534
2025-03-30 15:03:38.231,2.3642012573110485
2025-03-30 15:03:38.231,0.8191555274314606
2025-03-30 15:03:38.231,-1.5193458883491524
2025-03-30 15:03:38.242,-2.833857679425371
2025-03-30 15:03:38.242,-1.9783940570676393
2025-03-30 15:03:38.242,0.4781026818849417
2025-03-30 15:03:38.242,2.520618375487557
2025-03-30 15:03:38.242,2.46160696054037
2025-03-30 15:03:38.250,0.5729558606025253
2025-03-30 15:03:38.250,-1.320716129882591
2025-03-30 15:03:38.251,-1.8025135758660957
2025-03-30 15:03:38.251,-1.017210868948636
2025-03-30 15:03:38.262,-0.0082632414804844
2025-03-30 15:03:38.262,0.4654959211190804
2025-03-30 15:03:38.262,0.3866608738067463
2025-03-30 15:03:38.262,0.2978398923426551
2025-03-30 15:03:38.262,0.7160823233830403
2025-03-30 15:03:38.263,1.2773907189130145
2025-03-30 15:03:38.270,0.7162939554373671
2025-03-30 15:03:38.270,-1.4230390981946104
2025-03-30 15:03:38.271,-3.2065662050058434
2025-03-30 15:03:38.271,-1.9178043578981103
2025-03-30 15:03:38.280,2.074797983970733
2025-03-30 15:03:38.280,4.521851029274649
2025-03-30 15:03:38.280,2.029879605911002
2025-03-30 15:03:38.281,-3.098317123452026
2025-03-30 15:03:38.281,-4.900870143004165
2025-03-30 15:03:38.290,-1.0028461582905503
2025-03-30 15:03:38.290,4.138734183845386
2025-03-30 15:03:38.290,4.516084617468643
2025-03-30 15:03:38.291,-0.19294278095009137
2025-03-30 15:03:38.291,-4.465770367825054
2025-03-30 15:03:38.300,-3.6681647919184215
2025-03-30 15:03:38.300,0.8338388648530715
2025-03-30 15:03:38.300,3.8776727116381497
2025-03-30 15:03:38.300,2.5819958984806903
2025-03-30 15:03:38.301,-0.9655877002958853
2025-03-30 15:03:38.310,-2.762289422686451
2025-03-30 15:03:38.310,-1.418662940633107
2025-03-30 15:03:38.310,0.92997842753971
2025-03-30 15:03:38.310,1.6248547049797797
2025-03-30 15:03:38.311,0.40873720571316163
2025-03-30 15:03:38.320,-0.8924377416621637
2025-03-30 15:03:38.320,-0.8631445509758021
2025-03-30 15:03:38.320,0.13510295834962344
2025-03-30 15:03:38.320,0.9029495734607376
2025-03-30 15:03:38.320,0.8055608641093949
2025-03-30 15:03:38.330,-0.027820913273821815
2025-03-30 15:03:38.330,-1.1203800603440008
2025-03-30 15:03:38.330,-1.6745432400687044
2025-03-30 15:03:38.330,-0.7570469427561339
2025-03-30 15:03:38.330,1.5949300054320539
2025-03-30 15:03:38.340,3.4494142985104537
2025-03-30 15:03:38.340,2.220726249758224
2025-03-30 15:03:38.340,-2.171043152369974
2025-03-30 15:03:38.340,-5.7629848384645985
2025-03-30 15:03:38.341,-3.9066853131134427
2025-03-30 15:03:38.350,2.8393720883310998
2025-03-30 15:03:38.350,7.689445681167686
2025-03-30 15:03:38.350,4.722298789971016
2025-03-30 15:03:38.350,-3.494859827822814
2025-03-30 15:03:38.351,-8.03196084700871
2025-03-30 15:03:38.360,-3.996199038695125
2025-03-30 15:03:38.360,3.662120455266908
2025-03-30 15:03:38.360,6.3746118206790765
2025-03-30 15:03:38.360,2.1165793474607417
2025-03-30 15:03:38.361,-3.1494739806598617
2025-03-30 15:03:38.368,-3.530031410377485
2025-03-30 15:03:38.368,0.09279976117392502
2025-03-30 15:03:38.369,2.407239031495401
2025-03-30 15:03:38.369,0.8145665953324166
2025-03-30 15:03:38.378,-1.897317363874492
2025-03-30 15:03:38.378,-1.8568487217218077
2025-03-30 15:03:38.379,0.8471926765246228
2025-03-30 15:03:38.379,2.692896262500028
2025-03-30 15:03:38.379,1.4670101083348592
2025-03-30 15:03:38.388,-1.230010547033305
2025-03-30 15:03:38.388,-2.430800993188125
2025-03-30 15:03:38.388,-1.2704213972531897
2025-03-30 15:03:38.388,0.7637584216239091
2025-03-30 15:03:38.389,1.9297049476004482
2025-03-30 15:03:38.398,1.535385204756602
2025-03-30 15:03:38.398,-0.11328518729112262
2025-03-30 15:03:38.398,-1.9001150586247693
2025-03-30 15:03:38.399,-2.283467783392533
2025-03-30 15:03:38.399,-0.5367920163937654
2025-03-30 15:03:38.408,2.1335383490098776
2025-03-30 15:03:38.408,3.262997447749687
2025-03-30 15:03:38.408,1.3970907305945603
2025-03-30 15:03:38.408,-2.191571571007741
2025-03-30 15:03:38.408,-4.218720574255658
2025-03-30 15:03:38.418,-2.354911433196599
2025-03-30 15:03:38.418,2.070392039393179
2025-03-30 15:03:38.418,4.769108745566031
2025-03-30 15:03:38.418,2.8099321878533696
2025-03-30 15:03:38.419,-1.8599915642948759
2025-03-30 15:03:38.428,-4.3074628995055075
2025-03-30 15:03:38.428,-2.2494657579361963
2025-03-30 15:03:38.428,1.4496458072584333
2025-03-30 15:03:38.428,2.601663417666767
2025-03-30 15:03:38.428,0.774651578520106
2025-03-30 15:03:38.438,-0.8720303183362459
2025-03-30 15:03:38.438,-0.24623715637521865
2025-03-30 15:03:38.438,1.044703998956258
2025-03-30 15:03:38.438,0.37594851622294134
2025-03-30 15:03:38.439,-1.8757682783640246
2025-03-30 15:03:38.448,-2.5506925577353026
2025-03-30 15:03:38.448,0.010926902187217494
2025-03-30 15:03:38.448,3.2585458744907783
2025-03-30 15:03:38.448,3.1613847025431747
2025-03-30 15:03:38.448,-0.653035070007699
2025-03-30 15:03:38.458,-3.8853552800671634
2025-03-30 15:03:38.458,-2.542202301346603
2025-03-30 15:03:38.458,1.9121944950360101
2025-03-30 15:03:38.458,3.9975639057967216
2025-03-30 15:03:38.459,0.9908350946619178
2025-03-30 15:03:38.466,-3.473890054528904
2025-03-30 15:03:38.466,-3.838305500499551
2025-03-30 15:03:38.467,0.4638621846974006
2025-03-30 15:03:38.467,4.39332776459263
2025-03-30 15:03:38.467,3.5106923905813354
2025-03-30 15:03:38.476,-0.9488794635509005
2025-03-30 15:03:38.476,-4.003503520675681
2025-03-30 15:03:38.476,-2.8432522175717687
2025-03-30 15:03:38.477,0.5056863891381762
2025-03-30 15:03:38.486,2.3180811953613425
2025-03-30 15:03:38.486,1.5914266872682705
2025-03-30 15:03:38.486,0.3385369701875905
2025-03-30 15:03:38.486,0.1507041093255023
2025-03-30 15:03:38.487,0.15250889991596106
2025-03-30 15:03:38.496,-1.020599431689138
2025-03-30 15:03:38.496,-2.4986311433772475
2025-03-30 15:03:38.496,-1.9413352593345985
2025-03-30 15:03:38.497,1.0753326539467631
2025-03-30 15:03:38.497,3.759442120165408
2025-03-30 15:03:38.506,3.025936162469036
2025-03-30 15:03:38.506,-0.6823451082242484
2025-03-30 15:03:38.506,-3.4759799900705795
2025-03-30 15:03:38.506,-2.409226735669609
2025-03-30 15:03:38.507,0.8465952863434576
2025-03-30 15:03:38.516,1.947499072040445
2025-03-30 15:03:38.516,-0.3894697130327971
2025-03-30 15:03:38.516,-2.3361687627820227
2025-03-30 15:03:38.516,-0.0929851655426044
2025-03-30 15:03:38.517,4.242432571752337
2025-03-30 15:03:38.524,4.630094777123494
2025-03-30 15:03:38.524,-0.8958712372936937
2025-03-30 15:03:38.525,-6.817690599626072
2025-03-30 15:03:38.525,-6.3558654886184405
2025-03-30 15:03:38.525,0.4153507690107579
2025-03-30 15:03:38.534,6.650149855608106
2025-03-30 15:03:38.535,6.4698119441290824
2025-03-30 15:03:38.535,0.8659293048843395
2025-03-30 15:03:38.535,-4.340857810821534
2025-03-30 15:03:38.535,-4.923534789194533
2025-03-30 15:03:38.544,-1.6811124273051363
2025-03-30 15:03:38.545,1.6721849822623123
2025-03-30 15:03:38.545,2.5923349229005446
2025-03-30 15:03:38.545,1.4030418137916285
2025-03-30 15:03:38.545,-0.08470977828351213
2025-03-30 15:03:38.554,-0.6590333049844285
2025-03-30 15:03:38.555,-0.41690987476832364
2025-03-30 15:03:38.555,-0.09490067636178787
2025-03-30 15:03:38.555,-0.1643786225519165
2025-03-30 15:03:38.555,-0.46557925559351215
2025-03-30 15:03:38.564,-0.4750684724049422
2025-03-30 15:03:38.565,0.06431563106468556
2025-03-30 15:03:38.565,0.7359324891410558
2025-03-30 15:03:38.565,0.8287250828213234
2025-03-30 15:03:38.565,0.21406413363409066
2025-03-30 15:03:38.574,-0.413181858964861
2025-03-30 15:03:38.575,-0.43674679638060104
2025-03-30 15:03:38.575,-0.19227177208495608
2025-03-30 15:03:38.575,-0.35999337884423943
2025-03-30 15:03:38.575,-0.5993350108895562
2025-03-30 15:03:38.584,0.18221894872004915
2025-03-30 15:03:38.584,1.7300559981945904
2025-03-30 15:03:38.585,1.835504711505825
2025-03-30 15:03:38.585,-0.7828916892642552
2025-03-30 15:03:38.585,-3.694526181797981
2025-03-30 15:03:38.594,-2.8917639857709476
2025-03-30 15:03:38.594,1.8585388242144274
2025-03-30 15:03:38.595,5.607847453920579
2025-03-30 15:03:38.595,3.6204196891146307
2025-03-30 15:03:38.595,-2.6251119304643837
2025-03-30 15:03:38.604,-6.541874793043867
2025-03-30 15:03:38.605,-3.8253884763302897
2025-03-30 15:03:38.605,2.5837187041730223
2025-03-30 15:03:38.605,5.911105074635624
2025-03-30 15:03:38.605,3.2003020162987266
2025-03-30 15:03:38.614,-1.8660469890002704
2025-03-30 15:03:38.614,-3.8555717864274657
2025-03-30 15:03:38.615,-1.7389890332851694
2025-03-30 15:03:38.615,0.9612851472878183
2025-03-30 15:03:38.624,1.2299268141079474
2025-03-30 15:03:38.624,-0.10200340922649803
2025-03-30 15:03:38.625,-0.4300675621196273
2025-03-30 15:03:38.625,0.7946888935761496
2025-03-30 15:03:38.625,1.6688047565389843
2025-03-30 15:03:38.625,0.7050781773250474
2025-03-30 15:03:38.634,-1.2963992613519197
2025-03-30 15:03:38.634,-2.4174226149666316
2025-03-30 15:03:38.635,-1.7020829252130814
2025-03-30 15:03:38.635,0.2607061465981681
2025-03-30 15:03:38.644,2.1050870323777526
2025-03-30 15:03:38.644,2.607949862269656
2025-03-30 15:03:38.644,1.3715147896548938
2025-03-30 15:03:38.645,-0.8520048332991468
2025-03-30 15:03:38.645,-2.5977400077011463
2025-03-30 15:03:38.654,-2.6920429105416006
2025-03-30 15:03:38.654,-0.9499348037695867
2025-03-30 15:03:38.655,1.72254754793567
2025-03-30 15:03:38.655,3.5401080218869856
2025-03-30 15:03:38.655,2.7243108594208927
2025-03-30 15:03:38.664,-0.700956804311784
2025-03-30 15:03:38.664,-3.983359281977767
2025-03-30 15:03:38.664,-3.7859045922621037
2025-03-30 15:03:38.665,0.05062145074104571
2025-03-30 15:03:38.665,3.763354841069051
2025-03-30 15:03:38.674,3.6301354682977447
2025-03-30 15:03:38.674,0.17443646107949262
2025-03-30 15:03:38.674,-2.646849497237388
2025-03-30 15:03:38.675,-2.240262825322443
2025-03-30 15:03:38.675,-0.052187893034445626
2025-03-30 15:03:38.684,0.9452173817769476
2025-03-30 15:03:38.684,0.1578309476880208
2025-03-30 15:03:38.684,-0.4602299949476101
2025-03-30 15:03:38.685,0.4367445854669734
2025-03-30 15:03:38.685,1.7552018975975308
2025-03-30 15:03:38.694,1.575816139277148
2025-03-30 15:03:38.694,-0.44781709309565104
2025-03-30 15:03:38.694,-2.7978659735960543
2025-03-30 15:03:38.694,-3.4732608493761346
2025-03-30 15:03:38.695,-1.3482209747434746
2025-03-30 15:03:38.704,2.790204863686773
2025-03-30 15:03:38.704,5.831766776243093
2025-03-30 15:03:38.704,4.22418248341926
2025-03-30 15:03:38.704,-2.0136115019142125
2025-03-30 15:03:38.705,-7.630438466279343
2025-03-30 15:03:38.714,-6.634280058200989
2025-03-30 15:03:38.714,0.8540348448710775
2025-03-30 15:03:38.714,7.7885941252375455
2025-03-30 15:03:38.714,7.411987832876642
2025-03-30 15:03:38.714,0.4216366847297928
2025-03-30 15:03:38.724,-6.148848306735105
2025-03-30 15:03:38.724,-6.544990771708858
2025-03-30 15:03:38.724,-1.5329725979857958
2025-03-30 15:03:38.724,3.6154207179526114
2025-03-30 15:03:38.725,4.773184530405345
2025-03-30 15:03:38.732,2.065469693468914
2025-03-30 15:03:38.732,-1.4175158158901553
2025-03-30 15:03:38.733,-2.8153970090458653
2025-03-30 15:03:38.733,-1.687685410371225
2025-03-30 15:03:38.742,0.1670948822137473
2025-03-30 15:03:38.742,0.9173801584723688
2025-03-30 15:03:38.743,0.6428827337036185
2025-03-30 15:03:38.743,0.5953377665614135
2025-03-30 15:03:38.743,0.862094821692835
2025-03-30 15:03:38.743,0.21453071892019812
2025-03-30 15:03:38.752,-1.409230101682521
2025-03-30 15:03:38.753,-2.0383666412204153
2025-03-30 15:03:38.753,-0.408017539317341
2025-03-30 15:03:38.753,1.8164328893189237
2025-03-30 15:03:38.762,2.063977690369304
2025-03-30 15:03:38.762,0.2832885830081991
2025-03-30 15:03:38.762,-1.218944338484698
2025-03-30 15:03:38.763,-1.0230900783409114
2025-03-30 15:03:38.763,-0.12795993368567565
2025-03-30 15:03:38.772,0.0006657667737888567
2025-03-30 15:03:38.772,-0.428178816746317
2025-03-30 15:03:38.772,-0.19621491568883329
2025-03-30 15:03:38.773,0.8496489406242981
2025-03-30 15:03:38.773,1.4740498855120847
2025-03-30 15:03:38.782,0.7572619385871613
2025-03-30 15:03:38.782,-0.7075549796463241
2025-03-30 15:03:38.782,-1.5883739881689696
2025-03-30 15:03:38.783,-1.266283151274574
2025-03-30 15:03:38.783,-0.20253281762892236
2025-03-30 15:03:38.792,0.7784478073782164
2025-03-30 15:03:38.792,1.1873008659778788
2025-03-30 15:03:38.792,1.0024525050110074
2025-03-30 15:03:38.792,0.46053283840470305
2025-03-30 15:03:38.793,-0.1961061205905298
2025-03-30 15:03:38.802,-0.842663731000953
2025-03-30 15:03:38.802,-1.3414602752878646
2025-03-30 15:03:38.802,-1.3225334392826298
2025-03-30 15:03:38.803,-0.36387398414428146
2025-03-30 15:03:38.803,1.3137003078886464
2025-03-30 15:03:38.812,2.464596078830992
2025-03-30 15:03:38.812,1.7349984133377456
2025-03-30 15:03:38.812,-0.6364342759029799
2025-03-30 15:03:38.812,-2.4969554309674793
2025-03-30 15:03:38.813,-1.9720009479354261
2025-03-30 15:03:38.822,0.16009755069427317
2025-03-30 15:03:38.822,1.32206916999883
2025-03-30 15:03:38.822,0.5208866191552719
2025-03-30 15:03:38.823,-0.4158680757149248
2025-03-30 15:03:38.823,0.3151757709672006
2025-03-30 15:03:38.832,1.6749357967187675
2025-03-30 15:03:38.832,1.2082649865884274
2025-03-30 15:03:38.832,-1.2839993583743865
2025-03-30 15:03:38.832,-3.0878139848025943
2025-03-30 15:03:38.833,-1.9204393474360624
2025-03-30 15:03:38.842,1.159167816835516
2025-03-30 15:03:38.842,2.983744806719028
2025-03-30 15:03:38.842,1.9633668768011807
2025-03-30 15:03:38.842,-0.37790754198232457
2025-03-30 15:03:38.843,-1.6169193217075897
2025-03-30 15:03:38.850,-1.242313094941154
2025-03-30 15:03:38.850,-0.5402589113728213
2025-03-30 15:03:38.851,-0.26929187239401675
2025-03-30 15:03:38.851,0.25353826734359025
2025-03-30 15:03:38.851,1.4208030834112226
2025-03-30 15:03:38.860,1.9005717403234126
2025-03-30 15:03:38.860,0.24195338804341457
2025-03-30 15:03:38.861,-2.39471224425013
2025-03-30 15:03:38.861,-2.763800186914029
2025-03-30 15:03:38.870,0.33721785500459833
2025-03-30 15:03:38.870,3.62936363119269
2025-03-30 15:03:38.870,2.771702545168168
2025-03-30 15:03:38.871,-1.891388189062372
2025-03-30 15:03:38.871,-4.922323037166391
2025-03-30 15:03:38.880,-2.2152004009949144
2025-03-30 15:03:38.880,3.5207387370775565
2025-03-30 15:03:38.880,5.616608670450145
2025-03-30 15:03:38.881,1.493509629387436
2025-03-30 15:03:38.881,-4.1953871671532585
2025-03-30 15:03:38.890,-5.209462720105076
2025-03-30 15:03:38.890,-0.8883067095917545
2025-03-30 15:03:38.890,3.724857973838872
2025-03-30 15:03:38.891,4.018236370501402
2025-03-30 15:03:38.891,0.43357942695051116
2025-03-30 15:03:38.900,-2.9299947268337174
2025-03-30 15:03:38.900,-2.930009988481689
2025-03-30 15:03:38.900,-0.08768184396421716
2025-03-30 15:03:38.901,2.5447505018006433
2025-03-30 15:03:38.901,2.532285627692659
2025-03-30 15:03:38.910,0.15080204016772844
2025-03-30 15:03:38.910,-2.2566052095918763
2025-03-30 15:03:38.910,-2.656683176418896
2025-03-30 15:03:38.910,-0.9474545893440558
2025-03-30 15:03:38.911,1.3931287692406622
2025-03-30 15:03:38.920,2.6702285345281624
2025-03-30 15:03:38.920,2.0382047146904987
2025-03-30 15:03:38.920,-0.0488298127787337
2025-03-30 15:03:38.920,-2.0656334752318806
2025-03-30 15:03:38.921,-2.501801895185931
2025-03-30 15:03:38.928,-1.1343265783375296
2025-03-30 15:03:38.928,0.8344396633961791
2025-03-30 15:03:38.929,1.9538765690010855
2025-03-30 15:03:38.929,1.6930305625030475
2025-03-30 15:03:38.938,0.5430835723714993
2025-03-30 15:03:38.939,-0.6674911829981032
2025-03-30 15:03:38.939,-1.4085189882246683
2025-03-30 15:03:38.939,-1.549996402573663
2025-03-30 15:03:38.939,-1.025097251137706
2025-03-30 15:03:38.939,0.31325369000988
2025-03-30 15:03:38.948,2.117536446086174
2025-03-30 15:03:38.949,2.935227345059618
2025-03-30 15:03:38.949,1.1266054473308216
2025-03-30 15:03:38.949,-2.712709833786927
2025-03-30 15:03:38.958,-4.879836562316092
2025-03-30 15:03:38.958,-2.017032697076024
2025-03-30 15:03:38.959,3.9463568965485
2025-03-30 15:03:38.959,6.384178903426797
2025-03-30 15:03:38.959,1.570041724878324
2025-03-30 15:03:38.968,-5.628425948722656
2025-03-30 15:03:38.968,-6.67062727358729
2025-03-30 15:03:38.968,0.02658610712099352
2025-03-30 15:03:38.968,6.594471536674063
2025-03-30 15:03:38.969,5.337176821938862
2025-03-30 15:03:38.978,-1.767885710063424
2025-03-30 15:03:38.978,-5.956813040533039
2025-03-30 15:03:38.979,-2.8178299165883196
2025-03-30 15:03:38.979,2.8415192763677655
2025-03-30 15:03:38.979,3.925530898846566
2025-03-30 15:03:38.988,0.0001713357496971324
2025-03-30 15:03:38.988,-3.06674441972787
2025-03-30 15:03:38.988,-1.3144534070831735
2025-03-30 15:03:38.989,2.399415955848627
2025-03-30 15:03:38.989,2.7210062742171797
2025-03-30 15:03:38.998,-0.9677757915264069
2025-03-30 15:03:38.998,-3.941857902661728
2025-03-30 15:03:38.998,-2.3944947600643287
2025-03-30 15:03:38.999,1.9677936213024878
2025-03-30 15:03:38.999,4.420069411145761
2025-03-30 15:03:39.008,2.7062442459693843
2025-03-30 15:03:39.008,-1.238090735401815
2025-03-30 15:03:39.008,-3.9995455779134246
2025-03-30 15:03:39.009,-3.6495053873006995
2025-03-30 15:03:39.009,-0.5628492526435975
2025-03-30 15:03:39.018,3.0681587688733165
2025-03-30 15:03:39.018,4.406289768736861
2025-03-30 15:03:39.018,2.1231375999317534
2025-03-30 15:03:39.018,-1.9007352792264687
2025-03-30 15:03:39.019,-3.9830214140326334
2025-03-30 15:03:39.026,-2.507108995654064
2025-03-30 15:03:39.027,0.43063763022107526
2025-03-30 15:03:39.027,1.9662899935559803
2025-03-30 15:03:39.027,1.8614887283821928
2025-03-30 15:03:39.027,1.5543178229915116
2025-03-30 15:03:39.036,1.0103929808809855
2025-03-30 15:03:39.036,-1.007774987638487
2025-03-30 15:03:39.037,-3.6356504166502592
2025-03-30 15:03:39.037,-3.619793878889637
2025-03-30 15:03:39.046,0.33099479032005186
2025-03-30 15:03:39.046,4.732376140304624
2025-03-30 15:03:39.046,4.823986456049111
2025-03-30 15:03:39.046,0.27745706383683033
2025-03-30 15:03:39.047,-4.265954582696145
2025-03-30 15:03:39.056,-4.428168308441534
2025-03-30 15:03:39.056,-0.6473297554888489
2025-03-30 15:03:39.057,2.8677081580416965
2025-03-30 15:03:39.057,2.9036986568217906
2025-03-30 15:03:39.057,0.3096180257854375
2025-03-30 15:03:39.066,-1.55655409072992
2025-03-30 15:03:39.066,-0.8936051697101424
2025-03-30 15:03:39.066,0.6911545922311924
2025-03-30 15:03:39.067,0.6580819900838246
2025-03-30 15:03:39.067,-0.9445108513707592
2025-03-30 15:03:39.076,-1.6240730482576136
2025-03-30 15:03:39.076,-0.004389360434677414
2025-03-30 15:03:39.076,2.1152453429980373
2025-03-30 15:03:39.077,1.9740309343966156
2025-03-30 15:03:39.077,-0.5942564567347012
2025-03-30 15:03:39.086,-2.736719333895188
2025-03-30 15:03:39.086,-1.8154304422965803
2025-03-30 15:03:39.086,1.392371553955331
2025-03-30 15:03:39.087,3.2648393980625707
2025-03-30 15:03:39.087,1.3830077952112354
2025-03-30 15:03:39.096,-2.3937112902411917
2025-03-30 15:03:39.096,-3.740851201570815
2025-03-30 15:03:39.096,-0.9077832372235428
2025-03-30 15:03:39.096,3.0217830818393825
2025-03-30 15:03:39.097,3.693005729050507
2025-03-30 15:03:39.104,0.61760720642459
2025-03-30 15:03:39.105,-2.5456314864620184
2025-03-30 15:03:39.105,-2.7068666338525826
2025-03-30 15:03:39.105,-0.6987366174371998
2025-03-30 15:03:39.105,0.7922746664910473
2025-03-30 15:03:39.116,1.0375664798023285
2025-03-30 15:03:39.116,1.2421137250662873
2025-03-30 15:03:39.116,1.5412224521064026
2025-03-30 15:03:39.116,0.4761369670558681
2025-03-30 15:03:39.117,-2.009815074194403
2025-03-30 15:03:39.124,-3.2579775457373854
2025-03-30 15:03:39.125,-1.192748263778338
2025-03-30 15:03:39.125,2.3612617882776656
2025-03-30 15:03:39.125,3.5733697604243506
2025-03-30 15:03:39.125,1.304927960320125
2025-03-30 15:03:39.134,-1.818665918223204
2025-03-30 15:03:39.134,-2.86048103999088
2025-03-30 15:03:39.135,-1.468019977829737
2025-03-30 15:03:39.135,0.760153877052856
2025-03-30 15:03:39.144,2.1789129227602717
2025-03-30 15:03:39.144,1.8577216540613026
2025-03-30 15:03:39.144,-0.13240700415855416
2025-03-30 15:03:39.145,-2.216087619234194
2025-03-30 15:03:39.145,-2.102087178682199
2025-03-30 15:03:39.154,0.605055070221679
2025-03-30 15:03:39.154,3.046580970516595
2025-03-30 15:03:39.155,1.9235120151527534
2025-03-30 15:03:39.155,-2.0898717328780423
2025-03-30 15:03:39.155,-4.306598807432216
2025-03-30 15:03:39.164,-1.4890813047267264
2025-03-30 15:03:39.164,3.689817821265342
2025-03-30 15:03:39.165,5.313736497502241
2025-03-30 15:03:39.165,1.2213872912226917
2025-03-30 15:03:39.165,-4.2906443462988015
2025-03-30 15:03:39.174,-5.417494895957203
2025-03-30 15:03:39.174,-1.3119603054178532
2025-03-30 15:03:39.175,3.4915702928296173
2025-03-30 15:03:39.175,4.455778611585381
2025-03-30 15:03:39.175,1.50045567553386
2025-03-30 15:03:39.184,-1.913929939907
2025-03-30 15:03:39.184,-2.861853337797479
2025-03-30 15:03:39.184,-1.354499357607656
2025-03-30 15:03:39.185,0.6214757697663538
2025-03-30 15:03:39.185,1.3595224753507753
2025-03-30 15:03:39.194,0.6520482766600219
2025-03-30 15:03:39.194,-0.4159500812375155
2025-03-30 15:03:39.194,-0.5135406739917096
2025-03-30 15:03:39.195,0.575716026214288
2025-03-30 15:03:39.195,1.4046746653740716
2025-03-30 15:03:39.204,0.3605022655752737
2025-03-30 15:03:39.204,-1.958435322982148
2025-03-30 15:03:39.204,-2.8020953132476976
2025-03-30 15:03:39.204,-0.5440713572467017
2025-03-30 15:03:39.205,2.782835240994151
2025-03-30 15:03:39.212,3.451821957156429
2025-03-30 15:03:39.213,0.5428766751256819
2025-03-30 15:03:39.213,-2.677399024476751
2025-03-30 15:03:39.213,-2.6004392632463045
2025-03-30 15:03:39.213,0.22840896009893855
2025-03-30 15:03:39.222,1.859312104640028
2025-03-30 15:03:39.223,0.29727248203878576
2025-03-30 15:03:39.223,-1.7027184376056754
2025-03-30 15:03:39.223,-0.6313500635609364
2025-03-30 15:03:39.223,2.386624736433218
2025-03-30 15:03:39.232,2.830632834103542
2025-03-30 15:03:39.232,-0.6683981903385782
2025-03-30 15:03:39.233,-3.921139831064089
2025-03-30 15:03:39.233,-2.704752026749707
2025-03-30 15:03:39.242,1.5196286100872498
2025-03-30 15:03:39.242,3.6732951937900555
2025-03-30 15:03:39.242,1.6665146996982882
2025-03-30 15:03:39.243,-1.5608419095520958
2025-03-30 15:03:39.243,-2.413819059031068
2025-03-30 15:03:39.252,-0.7610659956821078
2025-03-30 15:03:39.252,0.9774321659839644
2025-03-30 15:03:39.252,1.195630483419015
2025-03-30 15:03:39.253,0.3829726478454217
2025-03-30 15:03:39.253,-0.24176295999921152
2025-03-30 15:03:39.262,-0.2809621374845901
2025-03-30 15:03:39.262,-0.21077156624133042
2025-03-30 15:03:39.262,-0.3859179023472337
2025-03-30 15:03:39.263,-0.45896003281072256
2025-03-30 15:03:39.263,0.03679625364363021
2025-03-30 15:03:39.272,0.7972405583501724
2025-03-30 15:03:39.272,0.9335406128943261
2025-03-30 15:03:39.272,0.12557397614031604
2025-03-30 15:03:39.272,-0.8566868643684352
2025-03-30 15:03:39.272,-1.031665254807883
2025-03-30 15:03:39.282,-0.2925922017960556
2025-03-30 15:03:39.282,0.6177875549192267
2025-03-30 15:03:39.282,0.9328081798613648
2025-03-30 15:03:39.282,0.45482359184390764
2025-03-30 15:03:39.283,-0.38328543529420206
2025-03-30 15:03:39.292,-0.8621148502572112
2025-03-30 15:03:39.292,-0.6190013962492187
2025-03-30 15:03:39.292,0.02701101472714918
2025-03-30 15:03:39.292,0.6138299872247552
2025-03-30 15:03:39.293,1.0649112346799599
2025-03-30 15:03:39.300,1.1801556158186832
2025-03-30 15:03:39.301,0.21859562564798282
2025-03-30 15:03:39.301,-1.8911766036796986
2025-03-30 15:03:39.301,-3.2904646240052475
2025-03-30 15:03:39.301,-1.7124627702604034
2025-03-30 15:03:39.310,2.334556974767855
2025-03-30 15:03:39.311,5.161562157178478
2025-03-30 15:03:39.311,3.565795211793877
2025-03-30 15:03:39.311,-1.5465385994364864
2025-03-30 15:03:39.311,-5.751362860484443
2025-03-30 15:03:39.322,-5.202044041328059
2025-03-30 15:03:39.322,-0.16912465057475357
2025-03-30 15:03:39.322,5.05256061118381
2025-03-30 15:03:39.322,5.850418442275153
2025-03-30 15:03:39.323,1.605985274460942
2025-03-30 15:03:39.330,-3.5647137061251173
2025-03-30 15:03:39.331,-4.920787665308621
2025-03-30 15:03:39.331,-1.9085378290332726
2025-03-30 15:03:39.331,1.7682275105453842
2025-03-30 15:03:39.331,2.6737260259467055
2025-03-30 15:03:39.342,1.1021617054848738
2025-03-30 15:03:39.342,-0.30103922365834923
2025-03-30 15:03:39.342,-0.21636475073700046
2025-03-30 15:03:39.342,0.20787809009506958
2025-03-30 15:03:39.343,-0.3757087532875857
2025-03-30 15:03:39.350,-1.3833871284884118
2025-03-30 15:03:39.351,-1.195989957612668
2025-03-30 15:03:39.351,0.41815393185544164
2025-03-30 15:03:39.351,1.8342450220213076
2025-03-30 15:03:39.351,1.5612463689979827
2025-03-30 15:03:39.362,-0.11839086737739403
2025-03-30 15:03:39.362,-1.6735755142047586
2025-03-30 15:03:39.362,-1.826741865142382
2025-03-30 15:03:39.362,-0.41619386752283005
2025-03-30 15:03:39.363,1.5182079350086248
2025-03-30 15:03:39.370,2.299006274018333
2025-03-30 15:03:39.371,0.9922185524518137
2025-03-30 15:03:39.371,-1.3774513607323662
2025-03-30 15:03:39.371,-2.5440892882611705
2025-03-30 15:03:39.380,-1.3595499331740897
2025-03-30 15:03:39.381,0.9564942598785295
2025-03-30 15:03:39.381,2.232259997476589
2025-03-30 15:03:39.381,1.5559400480502912
2025-03-30 15:03:39.381,-0.23654054323628143
2025-03-30 15:03:39.381,-1.6853831529497607
2025-03-30 15:03:39.390,-1.7775669676306303
2025-03-30 15:03:39.391,-0.43389556025426
2025-03-30 15:03:39.391,1.316866241723519
2025-03-30 15:03:39.391,1.917506827693361
2025-03-30 15:03:39.402,0.744872875425183
2025-03-30 15:03:39.402,-1.0688004365560093
2025-03-30 15:03:39.402,-1.7628305143878276
2025-03-30 15:03:39.402,-0.8107416882089615
2025-03-30 15:03:39.402,0.708346954342528
2025-03-30 15:03:39.403,1.4267836759115715
2025-03-30 15:03:39.410,0.9498858666925796
2025-03-30 15:03:39.411,-0.12836204459338044
2025-03-30 15:03:39.411,-1.0127199171353254
2025-03-30 15:03:39.411,-1.2734369356055457
2025-03-30 15:03:39.420,-0.8174858338968295
2025-03-30 15:03:39.420,0.2777453653280661
2025-03-30 15:03:39.421,1.57825799023278
2025-03-30 15:03:39.421,2.1001713355462077
2025-03-30 15:03:39.421,0.9263004213442401
2025-03-30 15:03:39.430,-1.5363040523534346
2025-03-30 15:03:39.430,-3.2314086428709357
2025-03-30 15:03:39.431,-2.1784337714190256
2025-03-30 15:03:39.431,1.1370764256926682
2025-03-30 15:03:39.431,3.6430573289174206
2025-03-30 15:03:39.440,2.702075688836752
2025-03-30 15:03:39.440,-0.7896394630285519
2025-03-30 15:03:39.441,-3.1286103648382984
2025-03-30 15:03:39.441,-2.008633371057689
2025-03-30 15:03:39.441,0.7923462667254504
2025-03-30 15:03:39.450,1.8226367305502018
2025-03-30 15:03:39.450,0.4186362424276684
2025-03-30 15:03:39.450,-0.8435223330301649
2025-03-30 15:03:39.451,-0.19319655159397997
2025-03-30 15:03:39.451,0.8841871625055386
2025-03-30 15:03:39.460,0.3682019128354757
2025-03-30 15:03:39.460,-0.9171466414770629
2025-03-30 15:03:39.461,-0.7298755380579979
2025-03-30 15:03:39.461,0.7289367666050806
2025-03-30 15:03:39.461,0.9257417575055873
2025-03-30 15:03:39.470,-0.869193970916801
2025-03-30 15:03:39.470,-1.9835541091855644
2025-03-30 15:03:39.471,-0.15558349258987048
2025-03-30 15:03:39.471,2.7381819533270493
2025-03-30 15:03:39.471,2.7796122361547955
2025-03-30 15:03:39.480,-0.648932038225627
2025-03-30 15:03:39.480,-3.648888791903719
2025-03-30 15:03:39.481,-2.6110082027690793
2025-03-30 15:03:39.481,1.175665371392081
2025-03-30 15:03:39.481,3.1657262347848003
2025-03-30 15:03:39.490,1.3341505181353057
2025-03-30 15:03:39.490,-1.4708230509003395
2025-03-30 15:03:39.490,-1.6019233444667718
2025-03-30 15:03:39.491,0.5298735884848871
2025-03-30 15:03:39.491,1.4237014418386689
2025-03-30 15:03:39.500,-0.3203402961250559
2025-03-30 15:03:39.500,-2.0410082685987554
2025-03-30 15:03:39.500,-0.937873701147368
2025-03-30 15:03:39.501,1.8396287624276735
2025-03-30 15:03:39.501,2.653810591379822
2025-03-30 15:03:39.510,0.24197895935900784
2025-03-30 15:03:39.510,-2.601727851508583
2025-03-30 15:03:39.510,-2.5312818331202043
2025-03-30 15:03:39.511,0.3447620657645828
2025-03-30 15:03:39.511,2.7697636321660446
2025-03-30 15:03:39.520,2.1485513197055806
2025-03-30 15:03:39.520,-0.7403369232229136
2025-03-30 15:03:39.520,-2.8041465101840064
2025-03-30 15:03:39.521,-1.8955758576899853
2025-03-30 15:03:39.521,1.0806516320860498
2025-03-30 15:03:39.530,3.070810270659852
2025-03-30 15:03:39.530,1.9048806892576648
2025-03-30 15:03:39.530,-1.3834327973509892
2025-03-30 15:03:39.531,-3.4296215648084143
2025-03-30 15:03:39.531,-2.030107323456594
2025-03-30 15:03:39.540,1.4113283778645573
2025-03-30 15:03:39.540,3.36463444239503
2025-03-30 15:03:39.540,2.009615182602258
2025-03-30 15:03:39.541,-0.9868354338453786
2025-03-30 15:03:39.541,-2.611138238105159
2025-03-30 15:03:39.548,-1.7094461943887223
2025-03-30 15:03:39.549,0.3489616834347862
2025-03-30 15:03:39.549,1.5520800908674408
2025-03-30 15:03:39.549,1.0952386577187536
2025-03-30 15:03:39.558,-0.23883559173661234
2025-03-30 15:03:39.558,-0.8832448318786771
2025-03-30 15:03:39.559,-0.006154647096831972
2025-03-30 15:03:39.559,1.267899624783461
2025-03-30 15:03:39.559,0.8156838405617955
2025-03-30 15:03:39.568,-1.5456664304207641
2025-03-30 15:03:39.568,-2.9765531754155945
2025-03-30 15:03:39.568,-0.9256624788671037
2025-03-30 15:03:39.569,2.958224237183012
2025-03-30 15:03:39.569,4.13827425924394
2025-03-30 15:03:39.578,0.8078116261376134
2025-03-30 15:03:39.579,-3.509740244864474
2025-03-30 15:03:39.579,-4.065544827948944
2025-03-30 15:03:39.579,-0.4838853336078978
2025-03-30 15:03:39.579,3.117824788035711
2025-03-30 15:03:39.588,3.1406972117103327
2025-03-30 15:03:39.588,0.22464827073798674
2025-03-30 15:03:39.588,-2.243943482621281
2025-03-30 15:03:39.589,-2.1595671974145705
2025-03-30 15:03:39.589,-0.364472498691844
2025-03-30 15:03:39.598,1.1577180531931823
2025-03-30 15:03:39.598,1.531293907062151
2025-03-30 15:03:39.598,1.0917822258202574
2025-03-30 15:03:39.599,0.21227961022917752
2025-03-30 15:03:39.599,-0.9748421085625079
2025-03-30 15:03:39.608,-1.9331062074244683
2025-03-30 15:03:39.608,-1.7666523548417772
2025-03-30 15:03:39.609,-0.20542729977915777
2025-03-30 15:03:39.609,1.8802334487386176
2025-03-30 15:03:39.609,3.073690620571708
2025-03-30 15:03:39.618,2.307843767551511
2025-03-30 15:03:39.618,-0.4608300713264115
2025-03-30 15:03:39.618,-3.7006351117016347
2025-03-30 15:03:39.619,-4.649775892871912
2025-03-30 15:03:39.619,-1.59702459260507
2025-03-30 15:03:39.628,3.5027132146670747
2025-03-30 15:03:39.628,5.882289118641119
2025-03-30 15:03:39.628,2.8502037767714814
2025-03-30 15:03:39.629,-2.660764998627968
2025-03-30 15:03:39.629,-5.005864667730075
2025-03-30 15:03:39.638,-2.3214733917891417
2025-03-30 15:03:39.638,1.567386091660582
2025-03-30 15:03:39.639,2.3270334581151846
2025-03-30 15:03:39.639,0.3995188696876747
2025-03-30 15:03:39.639,-0.561071495155761
2025-03-30 15:03:39.648,0.6573948771839007
2025-03-30 15:03:39.648,1.3941148811482496
2025-03-30 15:03:39.649,-0.3263762528096521
2025-03-30 15:03:39.649,-2.403315147353542
2025-03-30 15:03:39.649,-1.678459597864747
2025-03-30 15:03:39.658,1.1759076607766674
2025-03-30 15:03:39.659,2.3580040719456368
2025-03-30 15:03:39.659,0.36870123958752343
2025-03-30 15:03:39.659,-1.8020282741702713
2025-03-30 15:03:39.659,-1.0358117857421483
2025-03-30 15:03:39.668,1.354425780933255
2025-03-30 15:03:39.668,1.6329702630205891
2025-03-30 15:03:39.668,-0.683581534155767
2025-03-30 15:03:39.669,-2.0076483447495037
2025-03-30 15:03:39.669,-0.14028440214056354
2025-03-30 15:03:39.678,2.148868767368882
2025-03-30 15:03:39.678,1.0691131568881176
2025-03-30 15:03:39.679,-2.3255447173282797
2025-03-30 15:03:39.679,-3.1418097562474676
2025-03-30 15:03:39.679,0.5286782413368593
2025-03-30 15:03:39.688,4.508869785306035
2025-03-30 15:03:39.688,3.654771432816334
2025-03-30 15:03:39.688,-1.5144127941367165
2025-03-30 15:03:39.689,-5.276153660354762
2025-03-30 15:03:39.689,-3.5191531919481047
2025-03-30 15:03:39.698,1.5979435499798413
2025-03-30 15:03:39.698,4.4595914862760875
2025-03-30 15:03:39.698,2.4786631732317237
2025-03-30 15:03:39.698,-1.3992320619904692
2025-03-30 15:03:39.699,-2.682156458061649
2025-03-30 15:03:39.708,-0.6682816099252549
2025-03-30 15:03:39.708,1.3282109159114799
2025-03-30 15:03:39.708,0.735733613627056
2025-03-30 15:03:39.709,-1.0344359754895553
2025-03-30 15:03:39.709,-1.060021616464129
2025-03-30 15:03:39.718,0.7370488944539892
2025-03-30 15:03:39.718,1.6323481866798564
2025-03-30 15:03:39.719,0.23961984147851795
2025-03-30 15:03:39.719,-1.449662232090772
2025-03-30 15:03:39.719,-1.0341940455099718
2025-03-30 15:03:39.728,0.8042073353729948
2025-03-30 15:03:39.728,1.390401072501427
2025-03-30 15:03:39.728,-0.005173168640287287
2025-03-30 15:03:39.729,-1.227283200884093
2025-03-30 15:03:39.729,-0.554168874023426
2025-03-30 15:03:39.738,0.7773466909324103
2025-03-30 15:03:39.739,0.5544237232584729
2025-03-30 15:03:39.739,-0.957996825246533
2025-03-30 15:03:39.739,-1.2433535132176556
2025-03-30 15:03:39.739,0.7721522737648278
2025-03-30 15:03:39.748,2.7623872810316428
2025-03-30 15:03:39.748,1.7438315705943332
2025-03-30 15:03:39.749,-1.8519023742033918
2025-03-30 15:03:39.749,-4.1696356115692055
2025-03-30 15:03:39.749,-2.351710225468279
2025-03-30 15:03:39.758,1.9706100341979196
2025-03-30 15:03:39.758,4.452861705101385
2025-03-30 15:03:39.758,2.858045270538657
2025-03-30 15:03:39.759,-0.8882563293680908
2025-03-30 15:03:39.759,-3.3521730039387885
2025-03-30 15:03:39.768,-3.096761041749859
2025-03-30 15:03:39.768,-1.0734763711273454
2025-03-30 15:03:39.768,1.2739574291099236
2025-03-30 15:03:39.769,2.980019692854885
2025-03-30 15:03:39.769,3.111938684866016
2025-03-30 15:03:39.778,1.0224643804653333
2025-03-30 15:03:39.778,-2.3124272951408686
2025-03-30 15:03:39.779,-4.234884152786217
2025-03-30 15:03:39.779,-2.802752209342532
2025-03-30 15:03:39.779,0.8851597278153661
2025-03-30 15:03:39.788,3.593703186180833
2025-03-30 15:03:39.788,3.3345709114624653
2025-03-30 15:03:39.788,1.1191721720510956
2025-03-30 15:03:39.789,-0.9246768082499153
2025-03-30 15:03:39.789,-2.112218250150343
2025-03-30 15:03:39.798,-2.8727025210600914
2025-03-30 15:03:39.798,-2.7413354493815194
2025-03-30 15:03:39.798,-0.5369860312282526
2025-03-30 15:03:39.798,3.1810579623693322
2025-03-30 15:03:39.799,5.395690987830253
2025-03-30 15:03:39.806,3.494345388827532
2025-03-30 15:03:39.806,-1.5746085503914535
2025-03-30 15:03:39.807,-5.740541597673099
2025-03-30 15:03:39.807,-5.46452679500653
2025-03-30 15:03:39.807,-0.917318748215313
2025-03-30 15:03:39.818,4.154242752211415
2025-03-30 15:03:39.818,5.620204836397659
2025-03-30 15:03:39.818,2.524903924042748
2025-03-30 15:03:39.819,-2.093415082398878
2025-03-30 15:03:39.819,-4.091386068191612
2025-03-30 15:03:39.826,-2.209784445452115
2025-03-30 15:03:39.827,0.9481771050089434
2025-03-30 15:03:39.827,2.0153705886768547
2025-03-30 15:03:39.827,0.4829394771737603
2025-03-30 15:03:39.827,-1.211246168315052
2025-03-30 15:03:39.838,-0.8468983400148418
2025-03-30 15:03:39.838,1.1063046417253628
2025-03-30 15:03:39.838,2.310318384532102
2025-03-30 15:03:39.838,1.2302559009752765
2025-03-30 15:03:39.839,-1.3765245048073569
2025-03-30 15:03:39.846,-3.231437517470826
2025-03-30 15:03:39.847,-2.48952077164679
2025-03-30 15:03:39.847,0.5431918245948515
2025-03-30 15:03:39.847,3.2445073538104534
2025-03-30 15:03:39.847,2.971777195818631
2025-03-30 15:03:39.856,0.15604462492409607
2025-03-30 15:03:39.857,-1.8771486554822938
2025-03-30 15:03:39.857,-1.1589258239903217
2025-03-30 15:03:39.857,0.17209289099945868
2025-03-30 15:03:39.857,-0.7871255599575961
2025-03-30 15:03:39.866,-2.737574146918094
2025-03-30 15:03:39.867,-1.5072244605003027
2025-03-30 15:03:39.867,3.406979763105045
2025-03-30 15:03:39.867,6.6475937860690495
2025-03-30 15:03:39.867,3.279228289489298
2025-03-30 15:03:39.876,-4.351905228642837
2025-03-30 15:03:39.877,-8.473367835559166
2025-03-30 15:03:39.877,-4.584970090633975
2025-03-30 15:03:39.877,3.4473517020130675
2025-03-30 15:03:39.886,7.683326455885536
2025-03-30 15:03:39.886,4.5255219260158315
2025-03-30 15:03:39.887,-2.0101474680453237
2025-03-30 15:03:39.887,-5.1404227598675245
2025-03-30 15:03:39.887,-2.6236978734597964
2025-03-30 15:03:39.896,1.3827325534139863
2025-03-30 15:03:39.896,1.8294347082428621
2025-03-30 15:03:39.897,-0.899810393805484
2025-03-30 15:03:39.897,-1.8091179383847324
2025-03-30 15:03:39.897,1.5083320341858708
2025-03-30 15:03:39.906,4.868352669644645
2025-03-30 15:03:39.906,2.719292749793487
2025-03-30 15:03:39.906,-3.883804401067423
2025-03-30 15:03:39.907,-7.537153630020029
2025-03-30 15:03:39.907,-3.411724400845576
2025-03-30 15:03:39.916,4.461922624660967
2025-03-30 15:03:39.916,7.719876093948256
2025-03-30 15:03:39.917,3.3160798813184154
2025-03-30 15:03:39.917,-3.5029948005132856
2025-03-30 15:03:39.917,-5.741405326824143
2025-03-30 15:03:39.926,-2.184836719971667
2025-03-30 15:03:39.926,2.382132118623476
2025-03-30 15:03:39.926,3.156306532683854
2025-03-30 15:03:39.927,0.20102127589909569
2025-03-30 15:03:39.927,-2.421325551716464
2025-03-30 15:03:39.936,-1.4739053628505818
2025-03-30 15:03:39.936,1.9462475275551323
2025-03-30 15:03:39.937,3.7117729427668102
2025-03-30 15:03:39.937,1.3173110210766257
2025-03-30 15:03:39.937,-3.1585656659089376
2025-03-30 15:03:39.946,-5.133113233114592
2025-03-30 15:03:39.946,-2.3952446147323068
2025-03-30 15:03:39.946,2.615091768619835
2025-03-30 15:03:39.947,5.401280046012743
2025-03-30 15:03:39.947,3.7446451498028486
2025-03-30 15:03:39.956,-0.6400426476085226
2025-03-30 15:03:39.956,-4.105085582642455
2025-03-30 15:03:39.956,-4.235163519600646
2025-03-30 15:03:39.957,-1.4195866986354413
2025-03-30 15:03:39.957,1.9392375637752242
2025-03-30 15:03:39.966,3.461336589779129
2025-03-30 15:03:39.966,2.4027599192154163
2025-03-30 15:03:39.966,-0.113627637305858
2025-03-30 15:03:39.967,-2.1112437548954963
2025-03-30 15:03:39.967,-2.1965215583456983
2025-03-30 15:03:39.976,-0.5299372619175119
2025-03-30 15:03:39.976,1.275575527087252
2025-03-30 15:03:39.976,1.4615184285062945
2025-03-30 15:03:39.977,-0.11336297219892734
2025-03-30 15:03:39.977,-1.5138760159553106
2025-03-30 15:03:39.986,-0.7441315259248932
2025-03-30 15:03:39.986,1.5595894249600772
2025-03-30 15:03:39.986,2.4092126197134522
2025-03-30 15:03:39.987,0.16205065432261684
2025-03-30 15:03:39.987,-2.9243775816142645
2025-03-30 15:03:39.996,-3.092717787899099
2025-03-30 15:03:39.996,0.22778127193830797
2025-03-30 15:03:39.997,3.469520310246578
2025-03-30 15:03:39.997,3.063608376558225
2025-03-30 15:03:39.997,-0.43124874588816553
2025-03-30 15:03:40.005,-3.1367914603996363
2025-03-30 15:03:40.005,-2.3535385426644306
2025-03-30 15:03:40.005,0.6610410252737198
2025-03-30 15:03:40.005,2.490227166204285
2025-03-30 15:03:40.005,1.395212208364688
2025-03-30 15:03:40.015,-1.104390427772662
2025-03-30 15:03:40.015,-2.1975495595812347
2025-03-30 15:03:40.015,-0.8249352147410232
2025-03-30 15:03:40.015,1.4493571130673844
2025-03-30 15:03:40.015,2.3719120746476263
2025-03-30 15:03:40.024,1.257206396012146
2025-03-30 15:03:40.024,-0.8550325294637147
2025-03-30 15:03:40.025,-2.5409302920765193
2025-03-30 15:03:40.025,-2.7645627704455933
2025-03-30 15:03:40.034,-0.9774510572834804
2025-03-30 15:03:40.035,2.1992135907042387
2025-03-30 15:03:40.035,4.389895114248604
2025-03-30 15:03:40.035,3.0647839756585853
2025-03-30 15:03:40.035,-1.3589083449363129
2025-03-30 15:03:40.044,-4.913389285573196
2025-03-30 15:03:40.045,-3.9249067542441542
2025-03-30 15:03:40.045,0.6463291004180778
2025-03-30 15:03:40.045,3.975706118470409
2025-03-30 15:03:40.045,2.8811556347326004
2025-03-30 15:03:40.054,-0.6073867647340203
2025-03-30 15:03:40.054,-2.1333135418342697
2025-03-30 15:03:40.055,-0.5488809606969705
2025-03-30 15:03:40.055,1.1234417373971495
2025-03-30 15:03:40.055,0.2689070481897182
2025-03-30 15:03:40.064,-1.7088032652946463
2025-03-30 15:03:40.065,-1.6381884789101573
2025-03-30 15:03:40.065,0.7783767513659973
2025-03-30 15:03:40.065,2.580653134243205
2025-03-30 15:03:40.065,1.6788284915435026
2025-03-30 15:03:40.074,-0.5714977497790384
2025-03-30 15:03:40.074,-1.6024636429620567
2025-03-30 15:03:40.075,-0.9630857817770951
2025-03-30 15:03:40.075,-0.24404859096864565
2025-03-30 15:03:40.075,-0.43756108432405366
2025-03-30 15:03:40.084,-0.661277171288456
2025-03-30 15:03:40.085,0.33461406965852875
2025-03-30 15:03:40.085,2.11900434190569
2025-03-30 15:03:40.085,2.6803055192884826
2025-03-30 15:03:40.085,0.7436267579367917
2025-03-30 15:03:40.094,-2.364350755465254
2025-03-30 15:03:40.094,-3.7732259780160935
2025-03-30 15:03:40.095,-2.12271510295933
2025-03-30 15:03:40.095,1.0014252204264793
2025-03-30 15:03:40.095,2.9739345919539795
2025-03-30 15:03:40.104,2.7919002386089375
2025-03-30 15:03:40.104,1.2383554429748767
2025-03-30 15:03:40.104,-0.77359203984811
2025-03-30 15:03:40.105,-2.649285971071477
2025-03-30 15:03:40.105,-3.2104149588883524
2025-03-30 15:03:40.114,-1.2295097885790325
2025-03-30 15:03:40.114,2.3359886090071225
2025-03-30 15:03:40.114,4.104888383401704
2025-03-30 15:03:40.115,1.8012268342951456
2025-03-30 15:03:40.115,-2.472284144488392
2025-03-30 15:03:40.124,-4.020134379201346
2025-03-30 15:03:40.124,-0.9692999035053746
2025-03-30 15:03:40.125,3.2167146810314975
2025-03-30 15:03:40.125,3.60841196230127
2025-03-30 15:03:40.125,-0.3001914611276939
2025-03-30 15:03:40.134,-3.9367926601843277
2025-03-30 15:03:40.134,-3.1944402058682493
2025-03-30 15:03:40.135,0.7734518226872922
2025-03-30 15:03:40.135,3.4423320287511636
2025-03-30 15:03:40.135,2.5660781906141428
2025-03-30 15:03:40.144,0.10170402436836212
2025-03-30 15:03:40.144,-1.271693551511334
2025-03-30 15:03:40.144,-1.3899552541352755
2025-03-30 15:03:40.145,-1.4636666743347764
2025-03-30 15:03:40.145,-1.4368263666938959
2025-03-30 15:03:40.154,-0.2626363828802732
2025-03-30 15:03:40.154,1.8093795984399654
2025-03-30 15:03:40.154,2.9096996323860584
2025-03-30 15:03:40.155,1.7389446840117886
2025-03-30 15:03:40.155,-0.8300744725003438
2025-03-30 15:03:40.164,-2.5914772824176024
2025-03-30 15:03:40.164,-2.103469323066137
2025-03-30 15:03:40.164,-0.03637259371357862
2025-03-30 15:03:40.165,1.4177238168796376
2025-03-30 15:03:40.165,0.8515956710429283
2025-03-30 15:03:40.174,-0.5814145993031031
2025-03-30 15:03:40.174,-0.4814604093181214
2025-03-30 15:03:40.175,1.4112875227528223
2025-03-30 15:03:40.175,2.326271659573049
2025-03-30 15:03:40.175,0.0786112704638643
2025-03-30 15:03:40.184,-3.332077859630379
2025-03-30 15:03:40.184,-3.6540649400798175
2025-03-30 15:03:40.184,0.05712530956650366
2025-03-30 15:03:40.185,3.8354121413711475
2025-03-30 15:03:40.185,3.631126796562404
2025-03-30 15:03:40.194,0.0658946241987085
2025-03-30 15:03:40.194,-2.9302022855329963
2025-03-30 15:03:40.194,-2.8935884141095247
2025-03-30 15:03:40.195,-0.6586069642787573
2025-03-30 15:03:40.195,1.6367981636919682
2025-03-30 15:03:40.202,2.5548207929093096
2025-03-30 15:03:40.203,1.6295023875783006
2025-03-30 15:03:40.203,-0.6906402654331955
2025-03-30 15:03:40.203,-2.8594252470128447
2025-03-30 15:03:40.203,-2.9160362671017657
2025-03-30 15:03:40.213,-0.20197076465951036
2025-03-30 15:03:40.213,3.443356168189566
2025-03-30 15:03:40.213,4.596751119616807
2025-03-30 15:03:40.213,1.3026250707585574
2025-03-30 15:03:40.213,-4.114249306102881
2025-03-30 15:03:40.223,-6.180813197384944
2025-03-30 15:03:40.223,-1.8996872651403047
2025-03-30 15:03:40.223,4.864692760287859
2025-03-30 15:03:40.223,6.692981566542015
2025-03-30 15:03:40.232,1.2006943354067858
2025-03-30 15:03:40.232,-5.505548794341083
2025-03-30 15:03:40.233,-5.730643437870049
2025-03-30 15:03:40.233,0.5435834394379288
2025-03-30 15:03:40.233,5.672107629207516
2025-03-30 15:03:40.242,3.757884875686067
2025-03-30 15:03:40.242,-2.3387449651609953
2025-03-30 15:03:40.243,-5.021467018857268
2025-03-30 15:03:40.243,-1.5417164286185665
2025-03-30 15:03:40.243,3.1329197751511737
2025-03-30 15:03:40.252,3.316632891002747
2025-03-30 15:03:40.252,-0.23723171862265285
2025-03-30 15:03:40.253,-2.2762742332739707
2025-03-30 15:03:40.253,-0.6350521918657006
2025-03-30 15:03:40.253,1.2786702084492902
2025-03-30 15:03:40.262,0.06537033718922627
2025-03-30 15:03:40.262,-2.4206199054346325
2025-03-30 15:03:40.262,-1.7241680533884394
2025-03-30 15:03:40.263,2.4217820630442053
2025-03-30 15:03:40.263,4.879270291388833
2025-03-30 15:03:40.272,1.678329694066437
2025-03-30 15:03:40.272,-4.201218705714941
2025-03-30 15:03:40.272,-5.896886948395655
2025-03-30 15:03:40.273,-1.1070292048730321
2025-03-30 15:03:40.273,4.865467464321114
2025-03-30 15:03:40.281,5.41661768623029
2025-03-30 15:03:40.281,0.31802584724173016
2025-03-30 15:03:40.281,-4.531805902597127
2025-03-30 15:03:40.281,-4.246143451465865
2025-03-30 15:03:40.281,0.03533915691948175
2025-03-30 15:03:40.290,3.4551775843201615
2025-03-30 15:03:40.291,3.1200090507195264
2025-03-30 15:03:40.291,0.3878915852879935
2025-03-30 15:03:40.291,-1.725730428693128
2025-03-30 15:03:40.302,-1.962334963127085
2025-03-30 15:03:40.302,-1.2310944216071598
2025-03-30 15:03:40.302,-0.5100809707812939
2025-03-30 15:03:40.302,0.4419834792307629
2025-03-30 15:03:40.303,1.9296852120892494
2025-03-30 15:03:40.303,2.805352181534182
2025-03-30 15:03:40.310,1.3373762273114451
2025-03-30 15:03:40.311,-2.222305267718401
2025-03-30 15:03:40.311,-4.814697598966418
2025-03-30 15:03:40.311,-3.218007124035042
2025-03-30 15:03:40.320,2.171006263338484
2025-03-30 15:03:40.320,6.604408131752077
2025-03-30 15:03:40.321,5.103792818867622
2025-03-30 15:03:40.321,-1.9096263481677884
2025-03-30 15:03:40.321,-7.862184602397185
2025-03-30 15:03:40.330,-6.428327484096535
2025-03-30 15:03:40.330,1.2839167210794071
2025-03-30 15:03:40.331,7.5084323720203825
2025-03-30 15:03:40.331,6.32836217705521
2025-03-30 15:03:40.331,-0.11223562920441243
2025-03-30 15:03:40.340,-4.938121305670469
2025-03-30 15:03:40.340,-4.547681293212636
2025-03-30 15:03:40.341,-1.2765589744776924
2025-03-30 15:03:40.341,1.1455523949261506
2025-03-30 15:03:40.341,1.9543848442942373
2025-03-30 15:03:40.350,2.255999109640223
2025-03-30 15:03:40.350,1.9523255300793543
2025-03-30 15:03:40.351,0.11221461404505984
2025-03-30 15:03:40.351,-2.383900094911243
2025-03-30 15:03:40.351,-3.0153610612890307
2025-03-30 15:03:40.360,-0.9526644364655087
2025-03-30 15:03:40.360,1.5083910875316853
2025-03-30 15:03:40.361,1.8642317496768563
2025-03-30 15:03:40.361,0.5988911312774813
2025-03-30 15:03:40.361,0.08037738892250901
2025-03-30 15:03:40.370,0.8308118215549941
2025-03-30 15:03:40.370,0.7196390082723356
2025-03-30 15:03:40.371,-1.5407549923642687
2025-03-30 15:03:40.371,-3.678257377771624
2025-03-30 15:03:40.371,-2.375404309166067
2025-03-30 15:03:40.380,1.9614871425682687
2025-03-30 15:03:40.380,4.922173369430622
2025-03-30 15:03:40.380,3.218376461188904
2025-03-30 15:03:40.381,-1.322228388811633
2025-03-30 15:03:40.381,-3.9515872213522734
2025-03-30 15:03:40.388,-2.4176628444488104
2025-03-30 15:03:40.389,0.8932846108217144
2025-03-30 15:03:40.389,2.0631552918116025
2025-03-30 15:03:40.389,0.11971181805329689
2025-03-30 15:03:40.398,-1.9872027640336796
2025-03-30 15:03:40.399,-0.9557715265373794
2025-03-30 15:03:40.399,2.6226266927390296
2025-03-30 15:03:40.399,4.421381765415444
2025-03-30 15:03:40.399,1.3161264263931396
2025-03-30 15:03:40.399,-4.430555392146664
2025-03-30 15:03:40.409,-6.926079515968044
2025-03-30 15:03:40.409,-2.836482805482896
2025-03-30 15:03:40.409,4.634984621101548
2025-03-30 15:03:40.409,8.424322475703432
2025-03-30 15:03:40.409,4.52529584272238
2025-03-30 15:03:40.419,-3.715186481665676
2025-03-30 15:03:40.419,-8.502973221935942
2025-03-30 15:03:40.419,-5.230427099206098
2025-03-30 15:03:40.419,2.7459989322590888
2025-03-30 15:03:40.428,7.399155798473257
2025-03-30 15:03:40.429,4.3538168340444665
2025-03-30 15:03:40.429,-2.558790682559909
2025-03-30 15:03:40.429,-5.677309016647011
2025-03-30 15:03:40.429,-2.1068974756614303
2025-03-30 15:03:40.438,3.23139815992019
2025-03-30 15:03:40.438,3.70356225994847
2025-03-30 15:03:40.439,-0.9356887065525757
2025-03-30 15:03:40.439,-4.283407359248997
2025-03-30 15:03:40.439,-1.4856698184975914
2025-03-30 15:03:40.448,4.178733475160755
2025-03-30 15:03:40.448,5.0805540529995445
2025-03-30 15:03:40.449,-0.8179782092338965
2025-03-30 15:03:40.449,-6.6869026061806975
2025-03-30 15:03:40.449,-5.099549973869965
2025-03-30 15:03:40.458,2.470175109230867
2025-03-30 15:03:40.458,7.323723035082257
2025-03-30 15:03:40.459,4.244723976543268
2025-03-30 15:03:40.459,-2.6108930168347815
2025-03-30 15:03:40.459,-5.617753620889286
2025-03-30 15:03:40.468,-2.8365573736295673
2025-03-30 15:03:40.468,1.1611057137101766
2025-03-30 15:03:40.469,2.214027585780314
2025-03-30 15:03:40.469,1.1091554670410284
2025-03-30 15:03:40.469,0.7299757626317827
2025-03-30 15:03:40.478,1.3680802919797819
2025-03-30 15:03:40.478,0.8889535582928075
2025-03-30 15:03:40.479,-1.4528962220244903
2025-03-30 15:03:40.479,-3.4699253289832774
2025-03-30 15:03:40.479,-2.713252548649605
2025-03-30 15:03:40.488,0.47613147724349975
2025-03-30 15:03:40.488,3.3114421409861086
2025-03-30 15:03:40.488,3.4807193981187203
2025-03-30 15:03:40.489,1.1516230207727962
2025-03-30 15:03:40.489,-1.622169651931343
2025-03-30 15:03:40.498,-2.817143047616358
2025-03-30 15:03:40.498,-1.845404489444675
2025-03-30 15:03:40.498,0.19531415920289766
2025-03-30 15:03:40.499,1.4279125422663554
2025-03-30 15:03:40.499,0.9078893438574094
2025-03-30 15:03:40.506,-0.3310360464384507
2025-03-30 15:03:40.507,-0.46952209935593797
2025-03-30 15:03:40.507,0.7252132937487425
2025-03-30 15:03:40.507,1.525091404254081
2025-03-30 15:03:40.516,0.6047899887298758
2025-03-30 15:03:40.517,-1.167967418117017
2025-03-30 15:03:40.517,-2.049349181588973
2025-03-30 15:03:40.517,-1.6389798069447234
2025-03-30 15:03:40.517,-0.646819204488752
2025-03-30 15:03:40.526,0.8127867271836722
2025-03-30 15:03:40.526,2.8930859464723935
2025-03-30 15:03:40.527,4.025130841369526
2025-03-30 15:03:40.527,1.6003321715941745
2025-03-30 15:03:40.527,-3.898701602304428
2025-03-30 15:03:40.536,-7.234359083197702
2025-03-30 15:03:40.536,-3.6478048217781676
2025-03-30 15:03:40.537,4.411543261778479
2025-03-30 15:03:40.537,8.641573160852298
2025-03-30 15:03:40.537,4.28141057949443
2025-03-30 15:03:40.546,-3.9311995844501553
2025-03-30 15:03:40.546,-7.2896540967849806
2025-03-30 15:03:40.547,-3.3483638155922426
2025-03-30 15:03:40.547,2.0943975880049885
2025-03-30 15:03:40.547,3.159858794226843
2025-03-30 15:03:40.556,0.9421703078985477
2025-03-30 15:03:40.556,0.46956165129097993
2025-03-30 15:03:40.557,2.6042182608313844
2025-03-30 15:03:40.557,2.600768994077544
2025-03-30 15:03:40.557,-2.437050923430733
2025-03-30 15:03:40.566,-7.783667690661741
2025-03-30 15:03:40.566,-6.032994540813551
2025-03-30 15:03:40.567,2.865785263184591
2025-03-30 15:03:40.567,10.043738209815196
2025-03-30 15:03:40.567,7.679993860410304
2025-03-30 15:03:40.576,-1.7713139708415304
2025-03-30 15:03:40.576,-8.615856420692296
2025-03-30 15:03:40.576,-6.959478491267873
2025-03-30 15:03:40.577,-0.08045967455406894
2025-03-30 15:03:40.577,4.946069440519444
2025-03-30 15:03:40.586,4.972504842878366
2025-03-30 15:03:40.586,1.897948357686517
2025-03-30 15:03:40.587,-1.3752775493002534
2025-03-30 15:03:40.587,-3.3523644560357395
2025-03-30 15:03:40.587,-3.2008772662738867
2025-03-30 15:03:40.596,-0.6164712527835158
2025-03-30 15:03:40.596,2.713398237925921
2025-03-30 15:03:40.596,3.580867041914348
2025-03-30 15:03:40.596,0.8081524948573771
2025-03-30 15:03:40.597,-2.660126561985229
2025-03-30 15:03:40.605,-2.8572119476129907
2025-03-30 15:03:40.605,0.3214672229236075
2025-03-30 15:03:40.605,2.8894271909350433
2025-03-30 15:03:40.605,1.6744188814303733
2025-03-30 15:03:40.605,-1.86966655712085
2025-03-30 15:03:40.615,-3.500959371979718
2025-03-30 15:03:40.615,-1.1091566534917274
2025-03-30 15:03:40.615,2.959730360022688
2025-03-30 15:03:40.615,4.348623064854478
2025-03-30 15:03:40.615,1.2347269877313671
2025-03-30 15:03:40.624,-3.468863985181221
2025-03-30 15:03:40.625,-4.776361033462823
2025-03-30 15:03:40.625,-1.0332549332644378
2025-03-30 15:03:40.625,3.7954973999432515
2025-03-30 15:03:40.634,4.313515152513158
2025-03-30 15:03:40.635,0.018522144364566395
2025-03-30 15:03:40.635,-3.9936658448341706
2025-03-30 15:03:40.635,-3.160439289368474
2025-03-30 15:03:40.635,1.1199831131216347
2025-03-30 15:03:40.644,3.5644979540080763
2025-03-30 15:03:40.644,1.7260231273528603
2025-03-30 15:03:40.645,-1.415859828440354
2025-03-30 15:03:40.645,-1.9916564672259858
2025-03-30 15:03:40.645,-0.2699203901376929
2025-03-30 15:03:40.654,0.5987038415619823
2025-03-30 15:03:40.654,-0.4205116833561085
2025-03-30 15:03:40.655,-1.05868845399173
2025-03-30 15:03:40.655,0.39666396714764823
2025-03-30 15:03:40.655,2.384715552823316
2025-03-30 15:03:40.664,2.249528403889881
2025-03-30 15:03:40.664,-0.271918756734822
2025-03-30 15:03:40.664,-2.840010990756084
2025-03-30 15:03:40.665,-3.0941584476258863
2025-03-30 15:03:40.665,-0.7848313954804859
2025-03-30 15:03:40.674,2.1154446807361653
2025-03-30 15:03:40.674,3.0372740852205315
2025-03-30 15:03:40.674,1.156313116818042
2025-03-30 15:03:40.675,-1.5244744300518795
2025-03-30 15:03:40.675,-2.04802092715678
2025-03-30 15:03:40.684,0.08570689168096876
2025-03-30 15:03:40.684,2.015130743524539
2025-03-30 15:03:40.684,0.8768053885399905
2025-03-30 15:03:40.685,-2.257413760779879
2025-03-30 15:03:40.685,-3.178237697920355
2025-03-30 15:03:40.693,0.10603725304951023
2025-03-30 15:03:40.693,4.1142526421895385
2025-03-30 15:03:40.693,3.6949721124330472
2025-03-30 15:03:40.693,-1.2783755760205002
2025-03-30 15:03:40.693,-5.098643757683134
2025-03-30 15:03:40.703,-2.9918924959225066
2025-03-30 15:03:40.703,2.8120124945518015
2025-03-30 15:03:40.703,5.480869641956737
2025-03-30 15:03:40.703,1.7263216757317479
2025-03-30 15:03:40.703,-4.181872408294316
2025-03-30 15:03:40.713,-5.408262981205184
2025-03-30 15:03:40.713,-0.5774942440609075
2025-03-30 15:03:40.713,4.698519339529529
2025-03-30 15:03:40.713,4.501788531868985
2025-03-30 15:03:40.713,-0.5192936557249259
2025-03-30 15:03:40.722,-4.228798542426947
2025-03-30 15:03:40.723,-2.5685678414958977
2025-03-30 15:03:40.723,1.761304640612438
2025-03-30 15:03:40.723,3.1823708951374656
2025-03-30 15:03:40.732,0.3400887623702179
2025-03-30 15:03:40.733,-2.7806006977207365
2025-03-30 15:03:40.733,-2.40174862346673
2025-03-30 15:03:40.733,0.764380607687957
2025-03-30 15:03:40.733,3.2721260978660403
2025-03-30 15:03:40.742,2.940698436537315
2025-03-30 15:03:40.742,0.13912143772351568
2025-03-30 15:03:40.743,-3.2462945347448007
2025-03-30 15:03:40.743,-4.802551198987325
2025-03-30 15:03:40.743,-2.7551841048491053
2025-03-30 15:03:40.752,2.1427188757146896
2025-03-30 15:03:40.753,6.171304229754267
2025-03-30 15:03:40.753,5.601870215882877
2025-03-30 15:03:40.753,0.5820534454150809
2025-03-30 15:03:40.753,-4.708797596774975
2025-03-30 15:03:40.762,-6.218680978385763
2025-03-30 15:03:40.763,-3.740329730655067
2025-03-30 15:03:40.763,-0.04793798786864713
2025-03-30 15:03:40.763,2.7917424854367807
2025-03-30 15:03:40.763,4.808659294936071
2025-03-30 15:03:40.772,5.790731623778613
2025-03-30 15:03:40.772,3.6206985316972617
2025-03-30 15:03:40.773,-2.798916175262431
2025-03-30 15:03:40.773,-9.40659708331592
2025-03-30 15:03:40.773,-9.03052827468635
2025-03-30 15:03:40.781,0.11034248862911145
2025-03-30 15:03:40.781,9.807837377810463
2025-03-30 15:03:40.781,9.574547547606338
2025-03-30 15:03:40.781,-0.5744095266872074
2025-03-30 15:03:40.781,-8.746037902877427
2025-03-30 15:03:40.791,-5.096007001468376
2025-03-30 15:03:40.791,5.474868169287262
2025-03-30 15:03:40.791,8.785758535245373
2025-03-30 15:03:40.791,-0.6904171022585397
2025-03-30 15:03:40.800,-11.950083617974286
2025-03-30 15:03:40.800,-10.363726409612317
2025-03-30 15:03:40.801,4.041056879063255
2025-03-30 15:03:40.801,15.60970968817086
2025-03-30 15:03:40.801,11.142886347897694
2025-03-30 15:03:40.808,-4.5867415446936
2025-03-30 15:03:40.809,-14.500698352165031
2025-03-30 15:03:40.809,-8.941799321848604
2025-03-30 15:03:40.809,4.310428488214619
2025-03-30 15:03:40.818,10.569845249488067
2025-03-30 15:03:40.819,4.938705454268962
2025-03-30 15:03:40.819,-4.4532264943696545
2025-03-30 15:03:40.819,-7.507443814152272
2025-03-30 15:03:40.819,-2.4570564445765237
2025-03-30 15:03:40.828,4.5846510527105755
2025-03-30 15:03:40.829,6.888235630435564
2025-03-30 15:03:40.829,2.809871844894017
2025-03-30 15:03:40.829,-3.638483673949697
2025-03-30 15:03:40.829,-6.615547895914409
2025-03-30 15:03:40.838,-3.8516402646527714
2025-03-30 15:03:40.839,1.2088248669326946
2025-03-30 15:03:40.839,3.540320578571171
2025-03-30 15:03:40.839,2.5275265061837646
2025-03-30 15:03:40.839,1.778627598192794
2025-03-30 15:03:40.848,2.7499414369884136
2025-03-30 15:03:40.848,1.8267194776774867
2025-03-30 15:03:40.849,-3.7287008361688074
2025-03-30 15:03:40.849,-9.271674769845577
2025-03-30 15:03:40.849,-6.770315242061328
2025-03-30 15:03:40.858,3.9915272456083106
2025-03-30 15:03:40.858,12.403254211109
2025-03-30 15:03:40.858,8.708483268291594
2025-03-30 15:03:40.859,-3.3828236181516123
2025-03-30 15:03:40.859,-10.442784715587662
2025-03-30 15:03:40.867,-5.779982695169367
2025-03-30 15:03:40.867,2.8942252748320856
2025-03-30 15:03:40.867,4.614931618413511
2025-03-30 15:03:40.867,-0.5335017220897845
2025-03-30 15:03:40.867,-3.1118448518911537
2025-03-30 15:03:40.877,1.6569359759311317
2025-03-30 15:03:40.877,7.218548666026979
2025-03-30 15:03:40.877,4.5979319519123285
2025-03-30 15:03:40.877,-5.431131978180185
2025-03-30 15:03:40.886,-12.224704720581904
2025-03-30 15:03:40.887,-7.230850064211556
2025-03-30 15:03:40.887,5.797275722134564
2025-03-30 15:03:40.887,14.065001051382632
2025-03-30 15:03:40.887,9.302215748323434
2025-03-30 15:03:40.896,-3.3191070475995534
2025-03-30 15:03:40.896,-11.140764726319663
2025-03-30 15:03:40.897,-8.055727942366328
2025-03-30 15:03:40.897,-0.157176367086988
2025-03-30 15:03:40.897,3.291910792260292
2025-03-30 15:03:40.906,1.5908809878567411
2025-03-30 15:03:40.907,1.8118921997912896
2025-03-30 15:03:40.907,6.893543889601216
2025-03-30 15:03:40.907,9.33525765261614
2025-03-30 15:03:40.907,0.571709060145827
2025-03-30 15:03:40.915,-15.042101467450914
2025-03-30 15:03:40.915,-21.055619277955422
2025-03-30 15:03:40.915,-6.930198678643617
2025-03-30 15:03:40.915,17.170866684500975
2025-03-30 15:03:40.923,28.298446177830378
2025-03-30 15:03:40.923,14.571288869590617
2025-03-30 15:03:40.923,-11.84635140373857
2025-03-30 15:03:40.923,-27.285875084575643
2025-03-30 15:03:40.924,-19.780690373802432
2025-03-30 15:03:40.932,1.8777161843960124
2025-03-30 15:03:40.933,19.134722138739168
2025-03-30 15:03:40.933,20.065781956097293
2025-03-30 15:03:40.933,6.675789418045619
2025-03-30 15:03:40.942,-9.09357170092712
2025-03-30 15:03:40.943,-15.33843650409642
2025-03-30 15:03:40.943,-9.209415821368204
2025-03-30 15:03:40.943,1.8451223245018706
2025-03-30 15:03:40.943,8.03970159112928
2025-03-30 15:03:40.952,6.327467272837307
2025-03-30 15:03:40.952,1.1377515199573973
2025-03-30 15:03:40.953,-2.15678052633516
2025-03-30 15:03:40.953,-2.0941077835934623
2025-03-30 15:03:40.953,-0.34394765842338404
2025-03-30 15:03:40.962,0.8142525702172119
2025-03-30 15:03:40.962,-0.21955254704177407
2025-03-30 15:03:40.962,-3.0425379788123252
2025-03-30 15:03:40.963,-4.287257843984205
2025-03-30 15:03:40.963,-0.35897779364566196
2025-03-30 15:03:40.971,7.091370733634421
2025-03-30 15:03:40.971,10.317387411400112
2025-03-30 15:03:40.971,3.24504296256552
2025-03-30 15:03:40.971,-9.724558080269645
2025-03-30 15:03:40.971,-15.738121149872027
2025-03-30 15:03:40.981,-6.806506049206272
2025-03-30 15:03:40.981,9.900414494085638
2025-03-30 15:03:40.981,17.984662362284674
2025-03-30 15:03:40.981,9.034670247432045
2025-03-30 15:03:40.990,-7.968279456583126
2025-03-30 15:03:40.990,-16.16139901287682
2025-03-30 15:03:40.990,-8.682615544045404
2025-03-30 15:03:40.991,5.126893972738295
2025-03-30 15:03:40.991,11.246687644257538
2025-03-30 15:03:40.999,5.950531340141476
2025-03-30 15:03:40.999,-2.514087206714874
2025-03-30 15:03:40.999,-5.293291061162391
2025-03-30 15:03:40.999,-2.341153348882948
2025-03-30 15:03:40.999,0.4141150596198931
2025-03-30 15:03:41.008,0.14483624370141834
2025-03-30 15:03:41.009,-0.20391391706853942
2025-03-30 15:03:41.009,1.9296591373762788
2025-03-30 15:03:41.009,3.64206823407076
2025-03-30 15:03:41.018,0.5190590898027241
2025-03-30 15:03:41.019,-5.596541947175829
2025-03-30 15:03:41.019,-6.766099117800337
2025-03-30 15:03:41.019,1.000074258328919
2025-03-30 15:03:41.019,10.30681712174988
2025-03-30 15:03:41.028,9.372678638572099
2025-03-30 15:03:41.028,-2.8688672572383718
2025-03-30 15:03:41.029,-13.223319617835674
2025-03-30 15:03:41.029,-9.476536219427679
2025-03-30 15:03:41.029,3.91600901904617
2025-03-30 15:03:41.037,11.128892377496122
2025-03-30 15:03:41.037,5.125734068969139
2025-03-30 15:03:41.037,-4.327740655550444
2025-03-30 15:03:41.037,-4.979211709505622
2025-03-30 15:03:41.037,1.950539935083381
2025-03-30 15:03:41.046,5.372829168878295
2025-03-30 15:03:41.047,0.19794139379307607
2025-03-30 15:03:41.047,-6.920269873153257
2025-03-30 15:03:41.047,-7.41879845428815
2025-03-30 15:03:41.056,-0.95961172563625
2025-03-30 15:03:41.057,6.079943888314279
2025-03-30 15:03:41.057,8.493214126439195
2025-03-30 15:03:41.057,5.76358623430974
2025-03-30 15:03:41.057,-0.08677582702168514
2025-03-30 15:03:41.066,-6.406107146957236
2025-03-30 15:03:41.066,-9.5993428248494
2025-03-30 15:03:41.067,-6.398352506222039
2025-03-30 15:03:41.067,2.122270957145649
2025-03-30 15:03:41.067,9.274338810144316
2025-03-30 15:03:41.076,8.505981680072553
2025-03-30 15:03:41.076,0.8353552813273689
2025-03-30 15:03:41.077,-5.727147183036916
2025-03-30 15:03:41.077,-5.2154206431875165
2025-03-30 15:03:41.077,-0.23392175417621114
2025-03-30 15:03:41.086,2.1768692276172463
2025-03-30 15:03:41.087,-0.3628263241615352
2025-03-30 15:03:41.087,-3.1623157087583094
2025-03-30 15:03:41.087,-1.1221694048267357
2025-03-30 15:03:41.087,4.3937912078235675
2025-03-30 15:03:41.096,6.846183323175012
2025-03-30 15:03:41.096,2.3344902258969333
2025-03-30 15:03:41.096,-5.231805583845874
2025-03-30 15:03:41.097,-7.987782966285058
2025-03-30 15:03:41.097,-3.0788092787941164
2025-03-30 15:03:41.104,3.808339722181553
2025-03-30 15:03:41.105,5.142268766519352
2025-03-30 15:03:41.105,0.6533848236089921
2025-03-30 15:03:41.105,-2.664795270195309
2025-03-30 15:03:41.105,0.03988848456129432
2025-03-30 15:03:41.115,4.769034770028519
2025-03-30 15:03:41.115,3.765056342396716
2025-03-30 15:03:41.115,-3.8148468257678703
2025-03-30 15:03:41.115,-9.701193577981883
2025-03-30 15:03:41.124,-6.305294162429764
2025-03-30 15:03:41.125,3.7354850966738415
2025-03-30 15:03:41.125,10.456543565808362
2025-03-30 15:03:41.125,7.901239269067809
2025-03-30 15:03:41.125,-0.4224956006193546
2025-03-30 15:03:41.134,-7.040454841347251
2025-03-30 15:03:41.135,-7.913156244259543
2025-03-30 15:03:41.135,-3.627970196309985
2025-03-30 15:03:41.135,2.896769294160893
2025-03-30 15:03:41.135,7.426863622083568
2025-03-30 15:03:41.144,6.04367068467115
2025-03-30 15:03:41.145,-0.7366085030317351
2025-03-30 15:03:41.145,-6.680996711819961
2025-03-30 15:03:41.145,-5.830918308881021
2025-03-30 15:03:41.145,0.4637983704051099
2025-03-30 15:03:41.154,5.048147690282399
2025-03-30 15:03:41.154,3.5546311168473426
2025-03-30 15:03:41.155,-1.0053018790831971
2025-03-30 15:03:41.155,-2.940477233989361
2025-03-30 15:03:41.155,-0.808366359467902
2025-03-30 15:03:41.164,2.0099669229496664
2025-03-30 15:03:41.164,2.0894429573486395
2025-03-30 15:03:41.165,-0.7024370471210433
2025-03-30 15:03:41.165,-3.777300315165296
2025-03-30 15:03:41.165,-3.87186200537438
2025-03-30 15:03:41.174,0.5211565283189477
2025-03-30 15:03:41.174,6.483170809588777
2025-03-30 15:03:41.175,7.465354683158035
2025-03-30 15:03:41.175,0.19240466433165387
2025-03-30 15:03:41.175,-9.216749987348798
2025-03-30 15:03:41.184,-10.109434788561291
2025-03-30 15:03:41.184,-0.10475608392504354
2025-03-30 15:03:41.185,10.394966833831488
2025-03-30 15:03:41.185,9.728615608155708
2025-03-30 15:03:41.185,-1.0606495459254774
2025-03-30 15:03:41.193,-9.665029768402652
2025-03-30 15:03:41.193,-7.258825212551778
2025-03-30 15:03:41.193,2.248497390637951
2025-03-30 15:03:41.193,8.440863585046772
2025-03-30 15:03:41.193,6.05695211220051
2025-03-30 15:03:41.203,-1.6277814230395244
2025-03-30 15:03:41.203,-7.931197956179272
2025-03-30 15:03:41.203,-8.097770279482138
2025-03-30 15:03:41.203,-1.5180693398842764
2025-03-30 15:03:41.212,7.438381398222249
2025-03-30 15:03:41.212,11.175037703040712
2025-03-30 15:03:41.213,5.268875421109645
2025-03-30 15:03:41.213,-5.690968136199097
2025-03-30 15:03:41.213,-11.381193862070056
2025-03-30 15:03:41.222,-6.567935506300852
2025-03-30 15:03:41.223,3.11345705594059
2025-03-30 15:03:41.223,7.812076707653385
2025-03-30 15:03:41.223,4.3808057648739425
2025-03-30 15:03:41.223,-1.4408258840108799
2025-03-30 15:03:41.232,-3.003996036542113
2025-03-30 15:03:41.232,-0.3352204337190537
2025-03-30 15:03:41.233,1.3536275762157812
2025-03-30 15:03:41.233,-0.7145783901336884
2025-03-30 15:03:41.233,-3.1778865703965793
2025-03-30 15:03:41.242,-1.4996883638758267
2025-03-30 15:03:41.242,3.0657580079626383
2025-03-30 15:03:41.243,4.450122254360968
2025-03-30 15:03:41.243,0.17161407499912776
2025-03-30 15:03:41.243,-4.470608227100955
2025-03-30 15:03:41.252,-3.1844747041695176
2025-03-30 15:03:41.252,2.4965601401361455
2025-03-30 15:03:41.253,5.047421113261702
2025-03-30 15:03:41.253,1.0718219647453817
2025-03-30 15:03:41.253,-4.513422472222377
2025-03-30 15:03:41.262,-5.323770169793392
2025-03-30 15:03:41.263,-0.9258941283180908
2025-03-30 15:03:41.263,4.2753158135758715
2025-03-30 15:03:41.263,6.407110074341492
2025-03-30 15:03:41.263,4.116274912521376
2025-03-30 15:03:41.271,-1.9585875147520746
2025-03-30 15:03:41.271,-8.360679274186781
2025-03-30 15:03:41.271,-9.141683051098441
2025-03-30 15:03:41.271,-1.2148652562966884
2025-03-30 15:03:41.280,9.912753392370977
2025-03-30 15:03:41.280,13.159507491243899
2025-03-30 15:03:41.281,3.450897269191643
2025-03-30 15:03:41.281,-10.725801963851533
2025-03-30 15:03:41.281,-14.541538860840808
2025-03-30 15:03:41.289,-2.997300717919014
2025-03-30 15:03:41.289,12.070408201635406
2025-03-30 15:03:41.289,13.911157186101475
2025-03-30 15:03:41.289,-0.15942426753729588
2025-03-30 15:03:41.290,-14.586211902363775
2025-03-30 15:03:41.298,-12.615875343580399
2025-03-30 15:03:41.299,4.1113104512577685
2025-03-30 15:03:41.299,16.768200432914
2025-03-30 15:03:41.299,10.907843595335995
2025-03-30 15:03:41.307,-6.829688375246796
2025-03-30 15:03:41.307,-16.67714042212297
2025-03-30 15:03:41.307,-8.474042108300818
2025-03-30 15:03:41.307,7.759901416337479
2025-03-30 15:03:41.307,14.43725785764056
2025-03-30 15:03:41.317,5.833230063143101
2025-03-30 15:03:41.317,-7.5663395160293625
2025-03-30 15:03:41.317,-12.021318687324085
2025-03-30 15:03:41.317,-4.431349683029861
2025-03-30 15:03:41.326,6.650838501453176
2025-03-30 15:03:41.326,10.822906568354634
2025-03-30 15:03:41.327,5.098042336782989
2025-03-30 15:03:41.327,-4.787619317027737
2025-03-30 15:03:41.327,-10.10169832006708
2025-03-30 15:03:41.336,-6.535750267039198
2025-03-30 15:03:41.336,2.260822712017572
2025-03-30 15:03:41.337,8.11347608966333
2025-03-30 15:03:41.337,6.218782583080163
2025-03-30 15:03:41.337,-0.25789709823478835
2025-03-30 15:03:41.346,-4.259136503910253
2025-03-30 15:03:41.346,-3.025893240250372
2025-03-30 15:03:41.347,-0.3467552003002882
2025-03-30 15:03:41.347,-0.35548856769093673
2025-03-30 15:03:41.347,-1.6927456249729937
2025-03-30 15:03:41.356,-0.16864709131729377
2025-03-30 15:03:41.356,4.08187170268307
2025-03-30 15:03:41.356,5.603652899467692
2025-03-30 15:03:41.357,0.925938234418737
2025-03-30 15:03:41.357,-5.78291896045008
2025-03-30 15:03:41.366,-7.110403154457471
2025-03-30 15:03:41.366,-1.5208888285101883
2025-03-30 15:03:41.367,4.878450912486634
2025-03-30 15:03:41.367,5.990659233771588
2025-03-30 15:03:41.367,2.327925346273074
2025-03-30 15:03:41.375,-1.4113128723341182
2025-03-30 15:03:41.375,-2.9041431750481372
2025-03-30 15:03:41.375,-3.5045447364777016
2025-03-30 15:03:41.375,-3.80759080800618
2025-03-30 15:03:41.384,-1.4987629179246096
2025-03-30 15:03:41.385,4.385705810775751
2025-03-30 15:03:41.385,9.145892612445506
2025-03-30 15:03:41.385,6.1668728011604586
2025-03-30 15:03:41.385,-4.1258678805881726
2025-03-30 15:03:41.394,-12.17938798512311
2025-03-30 15:03:41.394,-9.113781737843812
2025-03-30 15:03:41.395,2.54684350403088
2025-03-30 15:03:41.395,11.100187253755264
2025-03-30 15:03:41.395,8.7806652294429
2025-03-30 15:03:41.403,-0.32515593894320194
2025-03-30 15:03:41.403,-6.526525926472734
2025-03-30 15:03:41.403,-5.680127051813108
2025-03-30 15:03:41.403,-1.5174529273443258
2025-03-30 15:03:41.403,1.1617158990120122
2025-03-30 15:03:41.414,1.7659368815274838
2025-03-30 15:03:41.414,2.0621639363429956
2025-03-30 15:03:41.415,2.292442898948936
2025-03-30 15:03:41.415,1.2788354493853393
2025-03-30 15:03:41.415,-0.8687171324874285
2025-03-30 15:03:41.422,-2.3762721445132784
2025-03-30 15:03:41.423,-2.2817574288008933
2025-03-30 15:03:41.423,-1.5942551911806482
2025-03-30 15:03:41.423,-1.1208979398325234
2025-03-30 15:03:41.432,0.38661048924754926
2025-03-30 15:03:41.433,3.945295720642543
2025-03-30 15:03:41.433,6.780898432950678
2025-03-30 15:03:41.433,4.008336352475627
2025-03-30 15:03:41.433,-4.57316801189214
2025-03-30 15:03:41.442,-11.510350726913765
2025-03-30 15:03:41.443,-8.674925649872531
2025-03-30 15:03:41.443,2.7764027062394634
2025-03-30 15:03:41.443,12.261924193967245
2025-03-30 15:03:41.443,10.920643444000396
2025-03-30 15:03:41.451,0.888930347642257
2025-03-30 15:03:41.451,-8.180052620542341
2025-03-30 15:03:41.451,-9.81161534768585
2025-03-30 15:03:41.451,-5.233901976357608
2025-03-30 15:03:41.451,1.199511680382176
2025-03-30 15:03:41.461,6.668905197587501
2025-03-30 15:03:41.461,8.981230672120121
2025-03-30 15:03:41.461,5.354309659966421
2025-03-30 15:03:41.461,-3.777003375315278
2025-03-30 15:03:41.470,-11.29969791904783
2025-03-30 15:03:41.471,-8.814321902141376
2025-03-30 15:03:41.471,2.8256220451704435
2025-03-30 15:03:41.471,11.982739808901995
2025-03-30 15:03:41.471,8.560355741574742
2025-03-30 15:03:41.480,-3.797078907557085
2025-03-30 15:03:41.480,-11.352673038720287
2025-03-30 15:03:41.481,-6.028044827480757
2025-03-30 15:03:41.481,5.604448939260512
2025-03-30 15:03:41.481,10.326378724430786
2025-03-30 15:03:41.489,3.2513483814889463
2025-03-30 15:03:41.489,-7.331219096705602
2025-03-30 15:03:41.489,-9.791318987698396
2025-03-30 15:03:41.489,-1.8478965280463688
2025-03-30 15:03:41.498,7.841126604426505
2025-03-30 15:03:41.499,9.738043706730819
2025-03-30 15:03:41.499,2.895822088700081
2025-03-30 15:03:41.499,-5.797990966846223
2025-03-30 15:03:41.499,-9.300536452329833
2025-03-30 15:03:41.508,-5.792175744102317
2025-03-30 15:03:41.509,1.4865219699149377
2025-03-30 15:03:41.509,7.139973294476646
2025-03-30 15:03:41.509,7.254436065403166
2025-03-30 15:03:41.509,2.5613344837660525
2025-03-30 15:03:41.518,-2.2381871182858535
2025-03-30 15:03:41.518,-3.7800433457822296
2025-03-30 15:03:41.519,-3.5596321505886737
2025-03-30 15:03:41.519,-4.230203785860563
2025-03-30 15:03:41.519,-4.15737957227881
2025-03-30 15:03:41.528,0.552984407092431
2025-03-30 15:03:41.528,8.60998905132137
2025-03-30 15:03:41.528,12.10888131657469
2025-03-30 15:03:41.529,5.023101561678763
2025-03-30 15:03:41.529,-8.33370306029942
2025-03-30 15:03:41.536,-15.904749773838091
2025-03-30 15:03:41.537,-9.892452084625164
2025-03-30 15:03:41.537,4.601060427535586
2025-03-30 15:03:41.537,14.240005295777632
2025-03-30 15:03:41.546,11.020299208958534
2025-03-30 15:03:41.546,-0.16485034550372035
2025-03-30 15:03:41.547,-8.209362931670656
2025-03-30 15:03:41.547,-7.956242912547647
2025-03-30 15:03:41.547,-3.3011957735754978
2025-03-30 15:03:41.556,0.343036084066872
2025-03-30 15:03:41.557,2.4469159561900846
2025-03-30 15:03:41.557,4.876573494772989
2025-03-30 15:03:41.557,6.404094900715445
2025-03-30 15:03:41.557,3.4389128131661213
2025-03-30 15:03:41.565,-3.958402958745395
2025-03-30 15:03:41.565,-9.819469879850482
2025-03-30 15:03:41.565,-7.907067938388826
2025-03-30 15:03:41.565,1.0904836183052358
2025-03-30 15:03:41.565,9.406287525021114
2025-03-30 15:03:41.575,9.595560771429179
2025-03-30 15:03:41.575,1.7645709550941278
2025-03-30 15:03:41.575,-6.669960360997144
2025-03-30 15:03:41.575,-8.248824009602156
2025-03-30 15:03:41.585,-2.461986751663507
2025-03-30 15:03:41.585,4.257184980328536
2025-03-30 15:03:41.585,5.2147929647578275
2025-03-30 15:03:41.585,0.1639060558134578
2025-03-30 15:03:41.585,-4.518187165773854
2025-03-30 15:03:41.595,-2.7191151983990487
2025-03-30 15:03:41.595,4.087200785916254
2025-03-30 15:03:41.595,7.5857019680788405
2025-03-30 15:03:41.595,2.150377803712244
2025-03-30 15:03:41.595,-7.439063943455095
2025-03-30 15:03:41.604,-10.57883292370435
2025-03-30 15:03:41.605,-3.281160163396536
2025-03-30 15:03:41.605,6.993750919415923
2025-03-30 15:03:41.605,10.222425704096528
2025-03-30 15:03:41.605,4.78573263140399
2025-03-30 15:03:41.614,-2.6692712152493536
2025-03-30 15:03:41.615,-6.0640874085507575
2025-03-30 15:03:41.615,-5.12908697364902
2025-03-30 15:03:41.615,-2.521974092241834
2025-03-30 15:03:41.615,0.3962913380482942
2025-03-30 15:03:41.624,3.337096813747345
2025-03-30 15:03:41.625,5.058257349425454
2025-03-30 15:03:41.625,4.017483133542776
2025-03-30 15:03:41.625,0.5093993736628258
2025-03-30 15:03:41.625,-3.3948227417368675
2025-03-30 15:03:41.634,-5.674580511730141
2025-03-30 15:03:41.635,-5.05095110505855
2025-03-30 15:03:41.635,-0.9759620832888449
2025-03-30 15:03:41.635,4.902073400089537
2025-03-30 15:03:41.635,7.941874661168725
2025-03-30 15:03:41.643,4.364375700771634
2025-03-30 15:03:41.643,-3.2513728651582214
2025-03-30 15:03:41.643,-7.269127868657909
2025-03-30 15:03:41.643,-3.7692668044715125
2025-03-30 15:03:41.644,2.263759713395024
2025-03-30 15:03:41.653,3.323326041926665
2025-03-30 15:03:41.653,-0.6410224185549299
2025-03-30 15:03:41.653,-2.5446513904293493
2025-03-30 15:03:41.653,1.437206080032243
2025-03-30 15:03:41.654,6.04405416508915
2025-03-30 15:03:41.663,3.913739586884526
2025-03-30 15:03:41.663,-4.278839452926005
2025-03-30 15:03:41.663,-9.967979045369148
2025-03-30 15:03:41.663,-6.404861260910042
2025-03-30 15:03:41.672,4.022163824059616
2025-03-30 15:03:41.673,12.085884382490347
2025-03-30 15:03:41.673,10.054054795378653
2025-03-30 15:03:41.673,-1.4484273628786388
2025-03-30 15:03:41.673,-13.023985187745017
2025-03-30 15:03:41.681,-13.699109242753076
2025-03-30 15:03:41.681,-1.4501879983118748
2025-03-30 15:03:41.681,12.900025058747515
2025-03-30 15:03:41.681,15.182742079063443
2025-03-30 15:03:41.682,2.9892227373326783
2025-03-30 15:03:41.691,-10.985521655156717
2025-03-30 15:03:41.691,-12.921161173417886
2025-03-30 15:03:41.691,-3.0682070285645517
2025-03-30 15:03:41.691,6.355289470186337
2025-03-30 15:03:41.700,6.914367781947345
2025-03-30 15:03:41.701,2.4090842634218577
2025-03-30 15:03:41.701,0.44147888308448713
2025-03-30 15:03:41.701,1.0641888184179278
2025-03-30 15:03:41.701,-1.1884891368878394
2025-03-30 15:03:41.710,-6.548966786850973
2025-03-30 15:03:41.710,-7.874993837030235
2025-03-30 15:03:41.711,-0.7761054080304178
2025-03-30 15:03:41.711,8.869698215337953
2025-03-30 15:03:41.711,11.014876373986917
2025-03-30 15:03:41.719,3.1004131042102525
2025-03-30 15:03:41.719,-7.274068178619398
2025-03-30 15:03:41.719,-10.643192134647547
2025-03-30 15:03:41.719,-4.683748151209582
2025-03-30 15:03:41.719,4.558658718423314
2025-03-30 15:03:41.729,8.750751672945663
2025-03-30 15:03:41.729,4.7010460810997206
2025-03-30 15:03:41.729,-3.014369209417908
2025-03-30 15:03:41.729,-6.722768203496204
2025-03-30 15:03:41.738,-3.4696212755286413
2025-03-30 15:03:41.739,2.3309954299015985
2025-03-30 15:03:41.739,4.526115223836357
2025-03-30 15:03:41.739,2.1221699413994313
2025-03-30 15:03:41.739,-0.9900475108735297
2025-03-30 15:03:41.748,-1.9174265010092486
2025-03-30 15:03:41.749,-1.561771539299038
2025-03-30 15:03:41.749,-1.4453211887434398
2025-03-30 15:03:41.749,-0.7349117515867413
2025-03-30 15:03:41.749,1.7098501518227271
2025-03-30 15:03:41.758,4.028451644246932
2025-03-30 15:03:41.759,2.821366127545962
2025-03-30 15:03:41.759,-1.8756369914733702
2025-03-30 15:03:41.759,-5.35583459726816
2025-03-30 15:03:41.759,-3.5846710334406398
2025-03-30 15:03:41.768,1.4566085021893211
2025-03-30 15:03:41.769,4.056459408463026
2025-03-30 15:03:41.769,2.1647282614071113
2025-03-30 15:03:41.769,-0.2994992456415143
