timestamp,bandpass_and_notch
2025-03-30 14:26:59.774,-0.4191619546441603
2025-03-30 14:26:59.774,7.150529610929083
2025-03-30 14:26:59.774,4.724531179679339
2025-03-30 14:26:59.774,-12.139896287992606
2025-03-30 14:26:59.783,-30.918228357109776
2025-03-30 14:26:59.783,-25.847596416527715
2025-03-30 14:26:59.784,11.556792241564928
2025-03-30 14:26:59.784,50.11429442897112
2025-03-30 14:26:59.784,45.12395690399435
2025-03-30 14:26:59.792,-8.304455149479091
2025-03-30 14:26:59.792,-61.290775590621706
2025-03-30 14:26:59.792,-60.329040675056305
2025-03-30 14:26:59.792,-4.612819678400754
2025-03-30 14:26:59.800,53.9980189689153
2025-03-30 14:26:59.800,65.1014362884721
2025-03-30 14:26:59.800,25.970848179621523
2025-03-30 14:26:59.800,-24.492088413590352
2025-03-30 14:26:59.809,-47.44146248113775
2025-03-30 14:26:59.810,-34.68142573354662
2025-03-30 14:26:59.810,-5.0370544910056125
2025-03-30 14:26:59.810,18.65584321694312
2025-03-30 14:26:59.810,26.087666523941284
2025-03-30 14:26:59.818,19.878068535052037
2025-03-30 14:26:59.818,7.4919798607907415
2025-03-30 14:26:59.818,-5.074053118579236
2025-03-30 14:26:59.818,-14.421000875299205
2025-03-30 14:26:59.827,-18.12672449221527
2025-03-30 14:26:59.827,-14.175268045397655
2025-03-30 14:26:59.828,-3.0046063767166555
2025-03-30 14:26:59.828,10.240456956142197
2025-03-30 14:26:59.828,17.42656574054346
2025-03-30 14:26:59.836,13.55960894791182
2025-03-30 14:26:59.836,1.7767469402761409
2025-03-30 14:26:59.836,-8.82846821136017
2025-03-30 14:26:59.836,-11.317662252772843
2025-03-30 14:26:59.845,-6.622817027672629
2025-03-30 14:26:59.846,-0.8648137948136652
2025-03-30 14:26:59.846,1.9370412920358797
2025-03-30 14:26:59.846,2.8963399307905675
2025-03-30 14:26:59.846,4.346658376361614
2025-03-30 14:26:59.855,5.383017127986009
2025-03-30 14:26:59.856,3.1944381094414545
2025-03-30 14:26:59.856,-2.0424217002800713
2025-03-30 14:26:59.856,-6.005122440063241
2025-03-30 14:26:59.856,-4.895661854010456
2025-03-30 14:26:59.865,0.021406664987366042
2025-03-30 14:26:59.866,3.8252249874891686
2025-03-30 14:26:59.866,3.3471898605047814
2025-03-30 14:26:59.866,0.024716880769765637
2025-03-30 14:26:59.866,-2.4431393676420177
2025-03-30 14:26:59.875,-2.10546562713708
2025-03-30 14:26:59.876,-0.030169631099108668
2025-03-30 14:26:59.876,1.6304160371050611
2025-03-30 14:26:59.876,1.9017971528688549
2025-03-30 14:26:59.876,1.1830864537377475
2025-03-30 14:26:59.885,-0.005091678034710279
2025-03-30 14:26:59.886,-1.475616766750607
2025-03-30 14:26:59.886,-2.598093185323999
2025-03-30 14:26:59.886,-2.2017518132615708
2025-03-30 14:26:59.886,-0.04252134145776009
2025-03-30 14:26:59.896,2.226024533211222
2025-03-30 14:26:59.896,2.566952949239931
2025-03-30 14:26:59.896,0.991367041022428
2025-03-30 14:26:59.896,-0.4542369591887799
2025-03-30 14:26:59.896,-0.38494910622336304
2025-03-30 14:26:59.905,0.18387999234466215
2025-03-30 14:26:59.906,-0.4689965368776899
2025-03-30 14:26:59.906,-2.0384510556833164
2025-03-30 14:26:59.906,-2.358669871934203
2025-03-30 14:26:59.906,-0.3183902224278379
2025-03-30 14:26:59.915,2.433482551007616
2025-03-30 14:26:59.916,3.2569089712272805
2025-03-30 14:26:59.916,1.492428111874205
2025-03-30 14:26:59.916,-0.9670881912448399
2025-03-30 14:26:59.916,-1.9526910825936405
2025-03-30 14:26:59.925,-1.2455237364302425
2025-03-30 14:26:59.925,-0.28739255872396313
2025-03-30 14:26:59.926,-0.1422813765068897
2025-03-30 14:26:59.926,-0.352070826065852
2025-03-30 14:26:59.926,0.11163701786756561
2025-03-30 14:26:59.935,1.2145164214419166
2025-03-30 14:26:59.936,1.6889130304965554
2025-03-30 14:26:59.936,0.637612880194231
2025-03-30 14:26:59.936,-1.095392187309959
2025-03-30 14:26:59.936,-1.7298464686124997
2025-03-30 14:26:59.944,-0.6934281855898203
2025-03-30 14:26:59.944,0.6875489209280213
2025-03-30 14:26:59.944,0.8930426919812441
2025-03-30 14:26:59.944,0.020866360356646657
2025-03-30 14:26:59.944,-0.5944384466877065
2025-03-30 14:26:59.955,-0.20812327106517103
2025-03-30 14:26:59.956,0.5240386216495049
2025-03-30 14:26:59.956,0.5855422921014108
2025-03-30 14:26:59.956,-0.059316930311173605
2025-03-30 14:26:59.956,-0.5107565380268297
2025-03-30 14:26:59.964,-0.17492314772497897
2025-03-30 14:26:59.964,0.4186746024632143
2025-03-30 14:26:59.964,0.28134214530377477
2025-03-30 14:26:59.964,-0.6344701884937851
2025-03-30 14:26:59.974,-1.118132528721503
2025-03-30 14:26:59.974,-0.1850770415020938
2025-03-30 14:26:59.974,1.3729731478562677
2025-03-30 14:26:59.974,1.6839561642330434
2025-03-30 14:26:59.974,0.18036109923592125
2025-03-30 14:26:59.975,-1.5143531025221864
2025-03-30 14:26:59.983,-1.5490686458773957
2025-03-30 14:26:59.984,-0.07732440734106757
2025-03-30 14:26:59.984,1.1010533485054232
2025-03-30 14:26:59.984,0.8026311893194152
2025-03-30 14:26:59.994,-0.2888291712966411
2025-03-30 14:26:59.994,-0.6866907808366205
2025-03-30 14:26:59.994,0.043297072549383156
2025-03-30 14:26:59.994,0.8540161608236735
2025-03-30 14:26:59.994,0.5829046281050485
2025-03-30 14:27:00.003,-0.6015976026249625
2025-03-30 14:27:00.003,-1.358611225283802
2025-03-30 14:27:00.004,-0.7057111270595069
2025-03-30 14:27:00.004,0.8123362012139161
2025-03-30 14:27:00.004,1.622202883361709
2025-03-30 14:27:00.014,0.8136273362568329
2025-03-30 14:27:00.014,-0.8094238811446068
2025-03-30 14:27:00.014,-1.565513713416484
2025-03-30 14:27:00.014,-0.7348444381439672
2025-03-30 14:27:00.014,0.6948435245492411
2025-03-30 14:27:00.023,1.1981018536821786
2025-03-30 14:27:00.024,0.4158397802795195
2025-03-30 14:27:00.024,-0.5522256804670915
2025-03-30 14:27:00.024,-0.5712890507438722
2025-03-30 14:27:00.024,0.13714974906820376
2025-03-30 14:27:00.033,0.41348157450411727
2025-03-30 14:27:00.034,-0.17067840382965907
2025-03-30 14:27:00.034,-0.7046272949861381
2025-03-30 14:27:00.034,-0.25649608754357484
2025-03-30 14:27:00.034,0.747943556068818
2025-03-30 14:27:00.043,1.0248057142457307
2025-03-30 14:27:00.044,0.11674451722302942
2025-03-30 14:27:00.044,-1.0013463933277271
2025-03-30 14:27:00.044,-1.1168902068710242
2025-03-30 14:27:00.044,-0.1436644583289673
2025-03-30 14:27:00.053,0.9443166257029048
2025-03-30 14:27:00.054,1.1917121861168956
2025-03-30 14:27:00.054,0.4164279273409878
2025-03-30 14:27:00.054,-0.7411410105810232
2025-03-30 14:27:00.054,-1.239965051306817
2025-03-30 14:27:00.063,-0.5395143888814137
2025-03-30 14:27:00.063,0.6251836112482938
2025-03-30 14:27:00.064,0.8930124730938761
2025-03-30 14:27:00.064,0.027963484375436207
2025-03-30 14:27:00.064,-0.6483395385629926
2025-03-30 14:27:00.073,-0.0920212975207769
2025-03-30 14:27:00.074,0.891830760741584
2025-03-30 14:27:00.074,0.7529869370339348
2025-03-30 14:27:00.074,-0.5566594609441388
2025-03-30 14:27:00.074,-1.4616761796863353
2025-03-30 14:27:00.082,-0.8768987050462508
2025-03-30 14:27:00.082,0.49722308919071745
2025-03-30 14:27:00.082,1.2601786826390524
2025-03-30 14:27:00.082,0.9190066356515207
2025-03-30 14:27:00.083,0.021089939111447173
2025-03-30 14:27:00.093,-0.6834621691918004
2025-03-30 14:27:00.093,-0.7550897031749497
2025-03-30 14:27:00.094,-0.21181728174083223
2025-03-30 14:27:00.094,0.39890611044930674
2025-03-30 14:27:00.094,0.3898220764637413
2025-03-30 14:27:00.102,-0.24830768648969903
2025-03-30 14:27:00.102,-0.6518803288770124
2025-03-30 14:27:00.102,-0.0758596741765423
2025-03-30 14:27:00.102,1.0086482296469748
2025-03-30 14:27:00.112,1.2424356463269504
2025-03-30 14:27:00.112,0.016836539039650544
2025-03-30 14:27:00.112,-1.549728315286057
2025-03-30 14:27:00.112,-1.7308528546133262
2025-03-30 14:27:00.112,-0.19718015180247264
2025-03-30 14:27:00.113,1.5547726344283863
2025-03-30 14:27:00.122,1.8371892316956724
2025-03-30 14:27:00.122,0.48264313405355663
2025-03-30 14:27:00.122,-1.1628643508372103
2025-03-30 14:27:00.122,-1.6558739196528474
2025-03-30 14:27:00.132,-0.7113008850495353
2025-03-30 14:27:00.132,0.7265548870722832
2025-03-30 14:27:00.132,1.4037785694871763
2025-03-30 14:27:00.132,0.8099512466923593
2025-03-30 14:27:00.132,-0.42659073923543095
2025-03-30 14:27:00.133,-1.135411351574598
2025-03-30 14:27:00.142,-0.7378611144441214
2025-03-30 14:27:00.142,0.2207703215369322
2025-03-30 14:27:00.142,0.7606393910931611
2025-03-30 14:27:00.142,0.5240085594042735
2025-03-30 14:27:00.152,-0.04163291670189991
2025-03-30 14:27:00.152,-0.3534125042524537
2025-03-30 14:27:00.152,-0.2589004116232327
2025-03-30 14:27:00.152,-0.008858635986280963
2025-03-30 14:27:00.152,0.10664819005995156
2025-03-30 14:27:00.161,0.03706010144584993
2025-03-30 14:27:00.162,-0.06765183803122772
2025-03-30 14:27:00.162,-0.09261247820394694
2025-03-30 14:27:00.162,-0.04395843181492913
2025-03-30 14:27:00.162,0.06571805745236134
2025-03-30 14:27:00.172,0.2340416795022094
2025-03-30 14:27:00.172,0.33556963221327496
2025-03-30 14:27:00.172,0.15133298626116568
2025-03-30 14:27:00.172,-0.33802610545803563
2025-03-30 14:27:00.172,-0.7520598564027745
2025-03-30 14:27:00.181,-0.5755791533049801
2025-03-30 14:27:00.182,0.25457836445225535
2025-03-30 14:27:00.182,1.0901502498952333
2025-03-30 14:27:00.182,1.0812642240257622
2025-03-30 14:27:00.182,0.04368311292414959
2025-03-30 14:27:00.191,-1.2129876672084428
2025-03-30 14:27:00.191,-1.5170466362872788
2025-03-30 14:27:00.192,-0.4418372358896241
2025-03-30 14:27:00.192,1.1462978789813438
2025-03-30 14:27:00.192,1.785053061131172
2025-03-30 14:27:00.201,0.8152165135196175
2025-03-30 14:27:00.201,-0.9342259634317027
2025-03-30 14:27:00.202,-1.887550658779854
2025-03-30 14:27:00.202,-1.1520374057297573
2025-03-30 14:27:00.202,0.6405213104312806
2025-03-30 14:27:00.211,1.8262552519260666
2025-03-30 14:27:00.212,1.2661296201733563
2025-03-30 14:27:00.212,-0.43355561873007875
2025-03-30 14:27:00.212,-1.4949580835457157
2025-03-30 14:27:00.212,-0.9167928872651508
2025-03-30 14:27:00.221,0.43826423980452645
2025-03-30 14:27:00.221,0.9482176776114815
2025-03-30 14:27:00.222,0.1859922119019517
2025-03-30 14:27:00.222,-0.6566199441039177
2025-03-30 14:27:00.222,-0.3793312736466157
2025-03-30 14:27:00.231,0.6238721282277042
2025-03-30 14:27:00.232,0.8838252151765836
2025-03-30 14:27:00.232,-0.12912374568719304
2025-03-30 14:27:00.232,-1.2022352090116852
2025-03-30 14:27:00.232,-0.9196950551346545
2025-03-30 14:27:00.241,0.49578633288760776
2025-03-30 14:27:00.242,1.435458069052789
2025-03-30 14:27:00.242,0.8466490505489598
2025-03-30 14:27:00.242,-0.5979725957585308
2025-03-30 14:27:00.242,-1.3890026359130272
2025-03-30 14:27:00.252,-0.8457644375758546
2025-03-30 14:27:00.252,0.37969938319427454
2025-03-30 14:27:00.252,1.1792825117646506
2025-03-30 14:27:00.252,0.981461114196493
2025-03-30 14:27:00.252,0.03022336948557114
2025-03-30 14:27:00.261,-0.8973168105724469
2025-03-30 14:27:00.262,-1.0672337496835242
2025-03-30 14:27:00.262,-0.4034401692188019
2025-03-30 14:27:00.262,0.4444726469454752
2025-03-30 14:27:00.262,0.7946509396009197
2025-03-30 14:27:00.272,0.5928560059964418
2025-03-30 14:27:00.272,0.23276216821364598
2025-03-30 14:27:00.272,-0.08457295881206864
2025-03-30 14:27:00.272,-0.4758210588921288
2025-03-30 14:27:00.272,-0.8748253490534478
2025-03-30 14:27:00.282,-0.8058675597801547
2025-03-30 14:27:00.282,0.03537043279406282
2025-03-30 14:27:00.282,1.1287910583554672
2025-03-30 14:27:00.282,1.4406243280321367
2025-03-30 14:27:00.282,0.515371774326528
2025-03-30 14:27:00.292,-0.9106310588914721
2025-03-30 14:27:00.292,-1.546374992221616
2025-03-30 14:27:00.292,-0.8239834873045456
2025-03-30 14:27:00.292,0.5130402779528024
2025-03-30 14:27:00.292,1.1772298916459338
2025-03-30 14:27:00.301,0.6719413736028357
2025-03-30 14:27:00.302,-0.2787382220779964
2025-03-30 14:27:00.302,-0.6427307074359221
2025-03-30 14:27:00.302,-0.21275989363724224
2025-03-30 14:27:00.302,0.3125561684448156
2025-03-30 14:27:00.312,0.2626193719295284
2025-03-30 14:27:00.312,-0.2160167966838462
2025-03-30 14:27:00.312,-0.4286112657998862
2025-03-30 14:27:00.312,-0.07217795628296715
2025-03-30 14:27:00.312,0.3908131540543806
2025-03-30 14:27:00.321,0.3859231786804265
2025-03-30 14:27:00.322,-0.0437842524608494
2025-03-30 14:27:00.322,-0.3757049533652543
2025-03-30 14:27:00.322,-0.26338026588678914
2025-03-30 14:27:00.322,0.16046531554859025
2025-03-30 14:27:00.332,0.4767413738387212
2025-03-30 14:27:00.332,0.30814079422166185
2025-03-30 14:27:00.332,-0.35146206472595015
2025-03-30 14:27:00.332,-0.9275948674762733
2025-03-30 14:27:00.332,-0.6215462418438289
2025-03-30 14:27:00.341,0.6276067598889512
2025-03-30 14:27:00.342,1.6551155058032858
2025-03-30 14:27:00.342,1.1166645561091688
2025-03-30 14:27:00.342,-0.804974254790669
2025-03-30 14:27:00.342,-2.2485563717273003
2025-03-30 14:27:00.352,-1.6098333340340032
2025-03-30 14:27:00.352,0.6317731668453318
2025-03-30 14:27:00.352,2.3435660735995545
2025-03-30 14:27:00.352,1.9055476831985887
2025-03-30 14:27:00.352,-0.2070191591298602
2025-03-30 14:27:00.361,-1.9512593410846608
2025-03-30 14:27:00.362,-1.76478230129663
2025-03-30 14:27:00.362,-0.07408856300193939
2025-03-30 14:27:00.362,1.287944774159253
2025-03-30 14:27:00.362,1.0953378366178912
2025-03-30 14:27:00.372,-0.0679691619637734
2025-03-30 14:27:00.372,-0.6823476504870478
2025-03-30 14:27:00.372,-0.12569534912513802
2025-03-30 14:27:00.372,0.6696826684065091
2025-03-30 14:27:00.372,0.4540280904419751
2025-03-30 14:27:00.380,-0.7155518952832518
2025-03-30 14:27:00.380,-1.4509880605959626
2025-03-30 14:27:00.380,-0.674675406173721
2025-03-30 14:27:00.380,1.0332999797305213
2025-03-30 14:27:00.380,1.9678462570027635
2025-03-30 14:27:00.390,1.1043919950433507
2025-03-30 14:27:00.390,-0.7947777246527058
2025-03-30 14:27:00.390,-1.9391982277351338
2025-03-30 14:27:00.390,-1.3227432493058378
2025-03-30 14:27:00.391,0.3259713020254522
2025-03-30 14:27:00.400,1.4028313244897543
2025-03-30 14:27:00.400,1.0711874485738966
2025-03-30 14:27:00.400,-0.04474739403184147
2025-03-30 14:27:00.400,-0.6913728345855967
2025-03-30 14:27:00.410,-0.3723388062624137
2025-03-30 14:27:00.410,0.1922099401246562
2025-03-30 14:27:00.410,0.08029195744894202
2025-03-30 14:27:00.410,-0.5372956972614815
2025-03-30 14:27:00.410,-0.5827104772937147
2025-03-30 14:27:00.411,0.35904458809137885
2025-03-30 14:27:00.420,1.2486029262272187
2025-03-30 14:27:00.420,0.8506125452859797
2025-03-30 14:27:00.420,-0.5638965537848815
2025-03-30 14:27:00.420,-1.4314343619629384
2025-03-30 14:27:00.430,-0.8217375110973393
2025-03-30 14:27:00.430,0.46947481111563016
2025-03-30 14:27:00.430,1.0377116346640654
2025-03-30 14:27:00.430,0.5617989569990499
2025-03-30 14:27:00.430,-0.13160599081857488
2025-03-30 14:27:00.431,-0.3526561058386562
2025-03-30 14:27:00.440,-0.23567992897942316
2025-03-30 14:27:00.440,-0.18713852184526697
2025-03-30 14:27:00.440,-0.22592215981364341
2025-03-30 14:27:00.440,-0.08932568721633205
2025-03-30 14:27:00.450,0.27084072311229634
2025-03-30 14:27:00.450,0.5305963897705949
2025-03-30 14:27:00.450,0.3508539677378487
2025-03-30 14:27:00.450,-0.18106305313936946
2025-03-30 14:27:00.450,-0.5794231894788723
2025-03-30 14:27:00.451,-0.47104201376209615
2025-03-30 14:27:00.460,0.025387917967512552
2025-03-30 14:27:00.460,0.4737883667694095
2025-03-30 14:27:00.460,0.5343512469467924
2025-03-30 14:27:00.460,0.16127272992576047
2025-03-30 14:27:00.470,-0.39027508168110825
2025-03-30 14:27:00.470,-0.6417999309311276
2025-03-30 14:27:00.470,-0.25744478159832807
2025-03-30 14:27:00.470,0.4430319734424737
2025-03-30 14:27:00.470,0.6468073471070125
2025-03-30 14:27:00.480,0.06626924523041403
2025-03-30 14:27:00.480,-0.5390230551957912
2025-03-30 14:27:00.480,-0.34612582546494497
2025-03-30 14:27:00.480,0.33781578787392796
2025-03-30 14:27:00.480,0.5085436648493883
2025-03-30 14:27:00.490,-0.08150247643906745
2025-03-30 14:27:00.490,-0.6044566615333689
2025-03-30 14:27:00.490,-0.3514185431622884
2025-03-30 14:27:00.490,0.33325562036844597
2025-03-30 14:27:00.490,0.5726388366747232
2025-03-30 14:27:00.500,0.10381839754447253
2025-03-30 14:27:00.500,-0.43049534904391057
2025-03-30 14:27:00.500,-0.33676308862995297
2025-03-30 14:27:00.500,0.23921914628207205
2025-03-30 14:27:00.500,0.508996320843574
2025-03-30 14:27:00.510,0.06876532098566322
2025-03-30 14:27:00.510,-0.5628120138674565
2025-03-30 14:27:00.510,-0.5849367541811828
2025-03-30 14:27:00.510,0.08137686353352427
2025-03-30 14:27:00.510,0.6834772946978577
2025-03-30 14:27:00.519,0.5457050817549666
2025-03-30 14:27:00.520,-0.1366421774624644
2025-03-30 14:27:00.520,-0.5671181543011711
2025-03-30 14:27:00.520,-0.2957208255660017
2025-03-30 14:27:00.520,0.2914598410493044
2025-03-30 14:27:00.529,0.4411053963437344
2025-03-30 14:27:00.530,-0.09056994000528659
2025-03-30 14:27:00.530,-0.6898263444697151
2025-03-30 14:27:00.530,-0.5180826500038078
2025-03-30 14:27:00.530,0.45950798951826594
2025-03-30 14:27:00.539,1.2530854493029513
2025-03-30 14:27:00.540,0.844053506496113
2025-03-30 14:27:00.540,-0.6382580564131017
2025-03-30 14:27:00.540,-1.8525266299134682
2025-03-30 14:27:00.540,-1.4455338532410666
2025-03-30 14:27:00.550,0.5265150204440434
2025-03-30 14:27:00.550,2.3481044808069704
2025-03-30 14:27:00.550,2.1341311219022163
2025-03-30 14:27:00.550,-0.16357478655250432
2025-03-30 14:27:00.550,-2.4443355072096256
2025-03-30 14:27:00.559,-2.4891849740159087
2025-03-30 14:27:00.560,-0.27493147009203867
2025-03-30 14:27:00.560,1.9926296671345076
2025-03-30 14:27:00.560,2.205432528433653
2025-03-30 14:27:00.560,0.4861211874342643
2025-03-30 14:27:00.570,-1.1838716840329213
2025-03-30 14:27:00.570,-1.2818885531184503
2025-03-30 14:27:00.570,-0.2672044080204377
2025-03-30 14:27:00.570,0.34066056542738493
2025-03-30 14:27:00.570,-0.010910769614508584
2025-03-30 14:27:00.580,-0.34975554028163
2025-03-30 14:27:00.580,0.28181899974708924
2025-03-30 14:27:00.580,1.2807060354737114
2025-03-30 14:27:00.580,1.1117497496392483
2025-03-30 14:27:00.580,-0.5592707414692416
2025-03-30 14:27:00.590,-2.088567703869071
2025-03-30 14:27:00.590,-1.6680145917184777
2025-03-30 14:27:00.590,0.4711890780200404
2025-03-30 14:27:00.590,2.214957279683461
2025-03-30 14:27:00.590,1.8551095761716596
2025-03-30 14:27:00.599,-0.1668918453927209
2025-03-30 14:27:00.600,-1.854369594968701
2025-03-30 14:27:00.600,-1.723763978120483
2025-03-30 14:27:00.600,-0.1311026175538844
2025-03-30 14:27:00.600,1.3105900834855642
2025-03-30 14:27:00.609,1.381394920209591
2025-03-30 14:27:00.610,0.2794962288964017
2025-03-30 14:27:00.610,-0.7932146124912914
2025-03-30 14:27:00.610,-0.8906021121797029
2025-03-30 14:27:00.610,-0.17767197228630682
2025-03-30 14:27:00.619,0.4062473647011176
2025-03-30 14:27:00.620,0.2761328918637011
2025-03-30 14:27:00.620,-0.15660671020774056
2025-03-30 14:27:00.620,-0.11330148881731598
2025-03-30 14:27:00.620,0.40878837945041946
2025-03-30 14:27:00.629,0.5296304115905587
2025-03-30 14:27:00.630,-0.24769304111763038
2025-03-30 14:27:00.630,-1.064517065886691
2025-03-30 14:27:00.630,-0.6589932345585647
2025-03-30 14:27:00.630,0.7719055446324213
2025-03-30 14:27:00.638,1.5040267569221226
2025-03-30 14:27:00.638,0.4566679117704015
2025-03-30 14:27:00.638,-1.2559572693400114
2025-03-30 14:27:00.638,-1.6058328463125184
2025-03-30 14:27:00.638,-0.15183075284274158
2025-03-30 14:27:00.648,1.439435803989428
2025-03-30 14:27:00.648,1.419731109621001
2025-03-30 14:27:00.648,-0.04197355928379798
2025-03-30 14:27:00.648,-1.2424627716903591
2025-03-30 14:27:00.649,-1.0351403940221102
2025-03-30 14:27:00.658,0.029308767869681313
2025-03-30 14:27:00.658,0.7003155044512348
2025-03-30 14:27:00.658,0.5607173333831901
2025-03-30 14:27:00.658,0.162944806239704
2025-03-30 14:27:00.658,0.009318531663664729
2025-03-30 14:27:00.668,-0.03643454523281453
2025-03-30 14:27:00.668,-0.3008339693973586
2025-03-30 14:27:00.668,-0.6564790543030508
2025-03-30 14:27:00.668,-0.5871008162809006
2025-03-30 14:27:00.678,0.14564612699367926
2025-03-30 14:27:00.678,1.0641780160774694
2025-03-30 14:27:00.678,1.2976814822217748
2025-03-30 14:27:00.678,0.38464186651448445
2025-03-30 14:27:00.678,-1.144749344798075
2025-03-30 14:27:00.688,-1.9754339284241844
2025-03-30 14:27:00.688,-1.1006652123434382
2025-03-30 14:27:00.688,0.9801764086867027
2025-03-30 14:27:00.688,2.3665431158869548
2025-03-30 14:27:00.688,1.5660023308923188
2025-03-30 14:27:00.698,-0.7459853308304731
2025-03-30 14:27:00.698,-2.2410757971918738
2025-03-30 14:27:00.698,-1.4568159687557587
2025-03-30 14:27:00.698,0.5756125321944728
2025-03-30 14:27:00.698,1.62087436699019
2025-03-30 14:27:00.708,0.8529163035421417
2025-03-30 14:27:00.708,-0.4596927958902515
2025-03-30 14:27:00.708,-0.8061867542062758
2025-03-30 14:27:00.708,-0.17353736936246011
2025-03-30 14:27:00.708,0.3763974995458063
2025-03-30 14:27:00.718,0.22635220850368906
2025-03-30 14:27:00.718,-0.26063926922981234
2025-03-30 14:27:00.718,-0.4411024819091403
2025-03-30 14:27:00.718,-0.1198400610090219
2025-03-30 14:27:00.718,0.39662341173052695
2025-03-30 14:27:00.728,0.6510017045412108
2025-03-30 14:27:00.728,0.3840246991891286
2025-03-30 14:27:00.728,-0.25383410226969566
2025-03-30 14:27:00.728,-0.7541342015104577
2025-03-30 14:27:00.728,-0.670831139479396
2025-03-30 14:27:00.738,-0.07880872229337957
2025-03-30 14:27:00.738,0.5078801984651964
2025-03-30 14:27:00.738,0.6956124672774079
2025-03-30 14:27:00.738,0.49437765960461594
2025-03-30 14:27:00.738,0.057336312181249925
2025-03-30 14:27:00.748,-0.5017417542693949
2025-03-30 14:27:00.748,-0.8969101629322873
2025-03-30 14:27:00.748,-0.6710172031908632
2025-03-30 14:27:00.748,0.23445016929545928
2025-03-30 14:27:00.748,1.108304434753444
2025-03-30 14:27:00.758,1.0741426271160215
2025-03-30 14:27:00.758,0.08113102058696306
2025-03-30 14:27:00.758,-0.9870370240640128
2025-03-30 14:27:00.758,-1.218943889268935
2025-03-30 14:27:00.758,-0.47399807981794095
2025-03-30 14:27:00.768,0.6440700525241865
2025-03-30 14:27:00.768,1.275020438267091
2025-03-30 14:27:00.768,0.8481561287343132
2025-03-30 14:27:00.768,-0.38273782633405246
2025-03-30 14:27:00.768,-1.3122638304253045
2025-03-30 14:27:00.777,-0.9680343384240832
2025-03-30 14:27:00.778,0.3375743708233876
2025-03-30 14:27:00.778,1.2252055202908714
2025-03-30 14:27:00.778,0.7854287758702049
2025-03-30 14:27:00.778,-0.4075703599628647
2025-03-30 14:27:00.788,-1.0208753992675799
2025-03-30 14:27:00.788,-0.48333903220487595
2025-03-30 14:27:00.788,0.48515075910182276
2025-03-30 14:27:00.788,0.8031805187223233
2025-03-30 14:27:00.788,0.22067543104972295
2025-03-30 14:27:00.797,-0.5258464379563752
2025-03-30 14:27:00.798,-0.6127832774875812
2025-03-30 14:27:00.798,-0.02319851380133786
2025-03-30 14:27:00.798,0.5050889137995765
2025-03-30 14:27:00.798,0.3795291423879976
2025-03-30 14:27:00.807,-0.1588430504580015
2025-03-30 14:27:00.808,-0.4040067331924119
2025-03-30 14:27:00.808,-0.09825579842389554
2025-03-30 14:27:00.808,0.3282922232846336
2025-03-30 14:27:00.808,0.36908637987093007
2025-03-30 14:27:00.817,-0.03544393632988051
2025-03-30 14:27:00.818,-0.5405657074006139
2025-03-30 14:27:00.818,-0.6523597037433615
2025-03-30 14:27:00.818,-0.05540054736258894
2025-03-30 14:27:00.818,0.9154619091958791
2025-03-30 14:27:00.827,1.2428533346537793
2025-03-30 14:27:00.828,0.2275560509932223
2025-03-30 14:27:00.828,-1.377270225532722
2025-03-30 14:27:00.828,-1.82209104096517
2025-03-30 14:27:00.828,-0.3581384375852429
2025-03-30 14:27:00.837,1.6179251583423948
2025-03-30 14:27:00.838,1.994557688922753
2025-03-30 14:27:00.838,0.3872845596025969
2025-03-30 14:27:00.838,-1.4285595421947157
2025-03-30 14:27:00.838,-1.6023286653809743
2025-03-30 14:27:00.846,-0.22836639882314844
2025-03-30 14:27:00.846,0.9915059638297379
2025-03-30 14:27:00.846,0.8197665422000202
2025-03-30 14:27:00.846,-0.20147061541104175
2025-03-30 14:27:00.856,-0.6161181255667421
2025-03-30 14:27:00.856,0.06346378282525092
2025-03-30 14:27:00.856,0.7963746492986717
2025-03-30 14:27:00.856,0.4364682135541831
2025-03-30 14:27:00.856,-0.7259229599440704
2025-03-30 14:27:00.866,-1.2844143518270503
2025-03-30 14:27:00.866,-0.46009715889882
2025-03-30 14:27:00.866,0.9265976875059331
2025-03-30 14:27:00.866,1.4063942889952
2025-03-30 14:27:00.866,0.5279331325869684
2025-03-30 14:27:00.876,-0.7217175022161726
2025-03-30 14:27:00.876,-1.096574713134311
2025-03-30 14:27:00.876,-0.39113697798257185
2025-03-30 14:27:00.876,0.5057480706157464
2025-03-30 14:27:00.876,0.6365322614240512
2025-03-30 14:27:00.886,-0.05134651041372957
2025-03-30 14:27:00.886,-0.6765267533315488
2025-03-30 14:27:00.886,-0.3847508078190371
2025-03-30 14:27:00.886,0.613806265411865
2025-03-30 14:27:00.886,1.1497060952263634
2025-03-30 14:27:00.896,0.4274942308173602
2025-03-30 14:27:00.896,-0.9181055573366999
2025-03-30 14:27:00.896,-1.4381283259139714
2025-03-30 14:27:00.896,-0.5519076435881843
2025-03-30 14:27:00.896,0.7474552108902821
2025-03-30 14:27:00.906,1.1038714896958164
2025-03-30 14:27:00.906,0.4221049105660643
2025-03-30 14:27:00.906,-0.20108886008309776
2025-03-30 14:27:00.906,-0.08871019224616554
2025-03-30 14:27:00.906,0.1391673665912696
2025-03-30 14:27:00.916,-0.36187735448690705
2025-03-30 14:27:00.916,-1.2062495588443254
2025-03-30 14:27:00.916,-1.0701399086712566
2025-03-30 14:27:00.916,0.5177992195892913
2025-03-30 14:27:00.916,2.2005239565766592
2025-03-30 14:27:00.917,2.064903760777669
2025-03-30 14:27:00.926,-0.14677583727295557
2025-03-30 14:27:00.926,-2.4817632666571647
2025-03-30 14:27:00.926,-2.6678515155008102
2025-03-30 14:27:00.926,-0.4530370533287736
2025-03-30 14:27:00.936,2.0935867363046983
2025-03-30 14:27:00.936,2.615449647314698
2025-03-30 14:27:00.936,0.7755509758262471
2025-03-30 14:27:00.936,-1.479451748127067
2025-03-30 14:27:00.936,-1.9793533460545385
2025-03-30 14:27:00.945,-0.5445075342550018
2025-03-30 14:27:00.946,1.0340289324715133
2025-03-30 14:27:00.946,1.1179903194801348
2025-03-30 14:27:00.946,-0.048237523158502035
2025-03-30 14:27:00.946,-0.8804383422198805
2025-03-30 14:27:00.955,-0.42914117407126395
2025-03-30 14:27:00.956,0.5994994568540674
2025-03-30 14:27:00.956,0.8638741334939538
2025-03-30 14:27:00.956,0.05678615365323735
2025-03-30 14:27:00.956,-0.8247169659604207
2025-03-30 14:27:00.966,-0.7754579447685871
2025-03-30 14:27:00.966,0.07946917794177097
2025-03-30 14:27:00.966,0.7741960728127679
2025-03-30 14:27:00.966,0.6331303792179555
2025-03-30 14:27:00.966,-0.11782860525244185
2025-03-30 14:27:00.976,-0.7227048541887195
2025-03-30 14:27:00.976,-0.6279229614829844
2025-03-30 14:27:00.976,0.10831207113384493
2025-03-30 14:27:00.976,0.8632599750733695
2025-03-30 14:27:00.976,0.8749278547536248
2025-03-30 14:27:00.985,-0.0519725986468823
2025-03-30 14:27:00.986,-1.122508685588255
2025-03-30 14:27:00.986,-1.1774606748488523
2025-03-30 14:27:00.986,-0.010662318607499777
2025-03-30 14:27:00.986,1.2142803515107574
2025-03-30 14:27:00.995,1.2040582839196678
2025-03-30 14:27:00.996,0.02669955353613092
2025-03-30 14:27:00.996,-1.0047590628848653
2025-03-30 14:27:00.996,-0.8917862285151584
2025-03-30 14:27:00.996,0.010541664068170531
2025-03-30 14:27:01.006,0.6394488911214024
2025-03-30 14:27:01.006,0.5030502743463872
2025-03-30 14:27:01.006,-0.02507290287979698
2025-03-30 14:27:01.006,-0.38541629667871363
2025-03-30 14:27:01.006,-0.3417617089914571
2025-03-30 14:27:01.015,0.03242069248863863
2025-03-30 14:27:01.016,0.42816126699323015
2025-03-30 14:27:01.016,0.43117899386205827
2025-03-30 14:27:01.016,-0.06052258212229704
2025-03-30 14:27:01.016,-0.5961419657858021
2025-03-30 14:27:01.024,-0.6112966510724753
2025-03-30 14:27:01.024,-0.056388889313492396
2025-03-30 14:27:01.024,0.5740507082750922
2025-03-30 14:27:01.025,0.7515239269893679
2025-03-30 14:27:01.025,0.3479705657377783
2025-03-30 14:27:01.036,-0.316458194676922
2025-03-30 14:27:01.036,-0.7345740870941125
2025-03-30 14:27:01.036,-0.5966706408204739
2025-03-30 14:27:01.036,-0.03759076027954002
2025-03-30 14:27:01.036,0.49503566167371615
2025-03-30 14:27:01.044,0.6512512397074423
2025-03-30 14:27:01.044,0.4181737128544475
2025-03-30 14:27:01.044,-0.03240556072714982
2025-03-30 14:27:01.044,-0.5294535508625764
2025-03-30 14:27:01.054,-0.8129924727591715
2025-03-30 14:27:01.054,-0.5328795464080166
2025-03-30 14:27:01.054,0.31558676404125974
2025-03-30 14:27:01.054,1.0772664625131922
2025-03-30 14:27:01.054,0.9648536175230993
2025-03-30 14:27:01.055,-0.02588476547125035
2025-03-30 14:27:01.064,-1.008825404161119
2025-03-30 14:27:01.064,-1.128515265601581
2025-03-30 14:27:01.064,-0.3845052526603423
2025-03-30 14:27:01.064,0.5552298049088984
2025-03-30 14:27:01.074,1.0763516038747856
2025-03-30 14:27:01.074,0.9224428796627402
2025-03-30 14:27:01.074,0.11252924436091367
2025-03-30 14:27:01.074,-0.9424818647307649
2025-03-30 14:27:01.074,-1.3960351527684418
2025-03-30 14:27:01.083,-0.6626949883270851
2025-03-30 14:27:01.084,0.7312114996058422
2025-03-30 14:27:01.084,1.4808175971484414
2025-03-30 14:27:01.084,0.889977165729914
2025-03-30 14:27:01.084,-0.382784384732143
2025-03-30 14:27:01.094,-1.1152231028161992
2025-03-30 14:27:01.094,-0.8013063385774922
2025-03-30 14:27:01.094,0.02913654371379254
2025-03-30 14:27:01.094,0.5619216144355921
2025-03-30 14:27:01.094,0.49567861086789283
2025-03-30 14:27:01.104,0.1193052918183356
2025-03-30 14:27:01.104,-0.1431875318464562
2025-03-30 14:27:01.104,-0.13161186514573853
2025-03-30 14:27:01.104,-0.004400376089281635
2025-03-30 14:27:01.104,-0.006033389232595292
2025-03-30 14:27:01.114,-0.16590927650578763
2025-03-30 14:27:01.114,-0.23519804817677684
2025-03-30 14:27:01.114,0.0081529704711185
2025-03-30 14:27:01.114,0.3955802556386966
2025-03-30 14:27:01.114,0.4366889319369906
2025-03-30 14:27:01.124,-0.09567477081933096
2025-03-30 14:27:01.124,-0.6862183967983612
2025-03-30 14:27:01.124,-0.5102646845689377
2025-03-30 14:27:01.124,0.4461948003129704
2025-03-30 14:27:01.124,1.0736261993827554
2025-03-30 14:27:01.134,0.42673958089156583
2025-03-30 14:27:01.134,-0.9187602179403049
2025-03-30 14:27:01.134,-1.4111141820697173
2025-03-30 14:27:01.134,-0.3897263031414099
2025-03-30 14:27:01.134,1.1336962230174534
2025-03-30 14:27:01.144,1.641458077707211
2025-03-30 14:27:01.144,0.6596842167384779
2025-03-30 14:27:01.144,-0.9312574748956048
2025-03-30 14:27:01.144,-1.7862096055337495
2025-03-30 14:27:01.144,-1.1864731086567901
2025-03-30 14:27:01.153,0.4213956288751699
2025-03-30 14:27:01.154,1.7326504985784217
2025-03-30 14:27:01.154,1.629692422318386
2025-03-30 14:27:01.154,0.21287880171885049
2025-03-30 14:27:01.154,-1.2466080367242156
2025-03-30 14:27:01.163,-1.5520123084294064
2025-03-30 14:27:01.163,-0.7127045592957629
2025-03-30 14:27:01.164,0.2991578553769608
2025-03-30 14:27:01.164,0.7430343841336776
2025-03-30 14:27:01.164,0.7311134946523112
2025-03-30 14:27:01.173,0.6674133483971753
2025-03-30 14:27:01.173,0.4964297062368869
2025-03-30 14:27:01.174,-0.12029030981848204
2025-03-30 14:27:01.174,-1.0292678682272223
2025-03-30 14:27:01.174,-1.4653287197908915
2025-03-30 14:27:01.182,-0.8656918776652534
2025-03-30 14:27:01.182,0.46605058545180994
2025-03-30 14:27:01.182,1.6154842761340624
2025-03-30 14:27:01.182,1.767029988545942
2025-03-30 14:27:01.182,0.7128603203813371
2025-03-30 14:27:01.193,-0.9521586216556519
2025-03-30 14:27:01.193,-2.070849160255772
2025-03-30 14:27:01.193,-1.740044973030271
2025-03-30 14:27:01.193,-0.14159448815147802
2025-03-30 14:27:01.193,1.51728233949372
2025-03-30 14:27:01.202,2.00866783818094
2025-03-30 14:27:01.202,1.0889978413594923
2025-03-30 14:27:01.202,-0.4120915142816127
2025-03-30 14:27:01.202,-1.4105114735980893
2025-03-30 14:27:01.213,-1.4131949773153265
2025-03-30 14:27:01.213,-0.6347287360009684
2025-03-30 14:27:01.213,0.3988004905126923
2025-03-30 14:27:01.213,1.1272264267062506
2025-03-30 14:27:01.213,1.1077093580250357
2025-03-30 14:27:01.213,0.3364357550444323
2025-03-30 14:27:01.221,-0.5774891040735312
2025-03-30 14:27:01.222,-0.887257751401423
2025-03-30 14:27:01.222,-0.46005851972376327
2025-03-30 14:27:01.222,0.12333507412925944
2025-03-30 14:27:01.232,0.28952764093795574
2025-03-30 14:27:01.232,0.106478932901162
2025-03-30 14:27:01.232,0.039251580001428935
2025-03-30 14:27:01.232,0.23446269634889616
2025-03-30 14:27:01.232,0.34713023385411573
2025-03-30 14:27:01.232,0.07788143303923535
2025-03-30 14:27:01.241,-0.3891869071847233
2025-03-30 14:27:01.241,-0.5878999059876872
2025-03-30 14:27:01.241,-0.2871392867388877
2025-03-30 14:27:01.242,0.2532289036776304
2025-03-30 14:27:01.252,0.5285202459815783
2025-03-30 14:27:01.252,0.3105338510910969
2025-03-30 14:27:01.252,-0.1118479520890381
2025-03-30 14:27:01.252,-0.27981169089980784
2025-03-30 14:27:01.252,-0.08978189789930116
2025-03-30 14:27:01.261,0.13253349829669916
2025-03-30 14:27:01.261,0.05780248546854147
2025-03-30 14:27:01.261,-0.23144854612374527
2025-03-30 14:27:01.261,-0.3088263270904214
2025-03-30 14:27:01.262,0.0696617148874044
2025-03-30 14:27:01.271,0.5647495085554441
2025-03-30 14:27:01.272,0.5467430589626248
2025-03-30 14:27:01.272,-0.14888063565508922
2025-03-30 14:27:01.272,-0.8896608339633821
2025-03-30 14:27:01.272,-0.8248647145615662
2025-03-30 14:27:01.282,0.15898085027382164
2025-03-30 14:27:01.282,1.1570645682170957
2025-03-30 14:27:01.282,1.100461231876321
2025-03-30 14:27:01.282,-0.06370454590749591
2025-03-30 14:27:01.282,-1.2198502410374612
2025-03-30 14:27:01.292,-1.2235414311140875
2025-03-30 14:27:01.292,-0.08540790386584106
2025-03-30 14:27:01.292,1.0669171711747412
2025-03-30 14:27:01.292,1.1380197720005034
2025-03-30 14:27:01.292,0.1291412729902897
2025-03-30 14:27:01.301,-0.9083334295770741
2025-03-30 14:27:01.301,-0.9561557942113795
2025-03-30 14:27:01.301,-0.040761286597665064
2025-03-30 14:27:01.302,0.8558536263712018
2025-03-30 14:27:01.302,0.8382786123769879
2025-03-30 14:27:01.312,-0.018746499355037173
2025-03-30 14:27:01.312,-0.8144092883199223
2025-03-30 14:27:01.312,-0.7845581769178138
2025-03-30 14:27:01.312,-0.04643215613857111
2025-03-30 14:27:01.312,0.6350378925213881
2025-03-30 14:27:01.321,0.6842298322013655
2025-03-30 14:27:01.321,0.18289180325790447
2025-03-30 14:27:01.321,-0.3637894295244689
2025-03-30 14:27:01.322,-0.5154743292528097
2025-03-30 14:27:01.322,-0.21488291289915903
2025-03-30 14:27:01.332,0.1972285850182486
2025-03-30 14:27:01.332,0.3017685743325876
2025-03-30 14:27:01.332,0.03688636502221403
2025-03-30 14:27:01.332,-0.22108826591522854
2025-03-30 14:27:01.332,-0.09408704155877003
2025-03-30 14:27:01.341,0.30101213361095874
2025-03-30 14:27:01.341,0.41415855131257495
2025-03-30 14:27:01.341,-0.06837044248932987
2025-03-30 14:27:01.342,-0.6974950111189167
2025-03-30 14:27:01.342,-0.6619326991659715
2025-03-30 14:27:01.352,0.19595202176836687
2025-03-30 14:27:01.352,1.011316865524975
2025-03-30 14:27:01.352,0.7989825826948084
2025-03-30 14:27:01.352,-0.3380955312566917
2025-03-30 14:27:01.352,-1.1836826172654473
2025-03-30 14:27:01.361,-0.7436508891439634
2025-03-30 14:27:01.361,0.5684479747000484
2025-03-30 14:27:01.361,1.3369097074066274
2025-03-30 14:27:01.362,0.6764768530958574
2025-03-30 14:27:01.362,-0.8498491996896999
2025-03-30 14:27:01.372,-1.7642306193219452
2025-03-30 14:27:01.372,-0.9946090376833864
2025-03-30 14:27:01.372,1.0632651849758072
2025-03-30 14:27:01.372,2.5778614328606273
2025-03-30 14:27:01.372,1.7900543589900253
2025-03-30 14:27:01.381,-1.0193022686274718
2025-03-30 14:27:01.381,-3.314661841187903
2025-03-30 14:27:01.381,-2.668698061444371
2025-03-30 14:27:01.381,0.5643199709505295
2025-03-30 14:27:01.381,3.366048953534428
2025-03-30 14:27:01.391,3.094324169280175
2025-03-30 14:27:01.391,0.16223289960754683
2025-03-30 14:27:01.391,-2.571362280900626
2025-03-30 14:27:01.392,-2.8178051976179366
2025-03-30 14:27:01.392,-0.8462497058371703
2025-03-30 14:27:01.401,1.323398115108319
2025-03-30 14:27:01.401,2.0389241788752255
2025-03-30 14:27:01.401,1.1771897259698203
2025-03-30 14:27:01.401,-0.2430637116979572
2025-03-30 14:27:01.401,-1.1229460353333311
2025-03-30 14:27:01.411,-1.041158155481345
2025-03-30 14:27:01.411,-0.3196921393229043
2025-03-30 14:27:01.411,0.40639336519531305
2025-03-30 14:27:01.412,0.6754215958406284
2025-03-30 14:27:01.412,0.43399189176409997
2025-03-30 14:27:01.421,-0.045493066005962465
2025-03-30 14:27:01.421,-0.42153294033979793
2025-03-30 14:27:01.421,-0.46362205070587054
2025-03-30 14:27:01.421,-0.10353800081188791
2025-03-30 14:27:01.421,0.45985507292202177
2025-03-30 14:27:01.431,0.7044078290432855
2025-03-30 14:27:01.431,0.19064086946955178
2025-03-30 14:27:01.432,-0.7556803499330449
2025-03-30 14:27:01.432,-1.0810651792255537
2025-03-30 14:27:01.432,-0.1604057785350867
2025-03-30 14:27:01.441,1.184090718771548
2025-03-30 14:27:01.441,1.366598305653699
2025-03-30 14:27:01.441,-0.04741232684674944
2025-03-30 14:27:01.441,-1.5816233382670246
2025-03-30 14:27:01.441,-1.4616517848436967
2025-03-30 14:27:01.451,0.27027017832008715
2025-03-30 14:27:01.451,1.7650865189539386
2025-03-30 14:27:01.451,1.443670999290886
2025-03-30 14:27:01.452,-0.33490588963556245
2025-03-30 14:27:01.452,-1.744641450100675
2025-03-30 14:27:01.461,-1.4027349336920873
2025-03-30 14:27:01.461,0.2829918869308861
2025-03-30 14:27:01.461,1.6050340224414021
2025-03-30 14:27:01.461,1.3150000062393625
2025-03-30 14:27:01.461,-0.16790147948688328
2025-03-30 14:27:01.471,-1.2984056247670748
2025-03-30 14:27:01.471,-1.0573327226522622
2025-03-30 14:27:01.472,0.050209387599176314
2025-03-30 14:27:01.472,0.7156743400787124
2025-03-30 14:27:01.472,0.4269904115406349
2025-03-30 14:27:01.480,-0.02874058094204989
2025-03-30 14:27:01.480,0.1617453002744156
2025-03-30 14:27:01.480,0.5603090576986258
2025-03-30 14:27:01.480,0.113405811537311
2025-03-30 14:27:01.480,-1.0969785833963515
2025-03-30 14:27:01.491,-1.563326110087886
2025-03-30 14:27:01.491,-0.23626119971804327
2025-03-30 14:27:01.491,1.783397055770518
2025-03-30 14:27:01.491,2.1976302233887584
2025-03-30 14:27:01.492,0.2640542113962799
2025-03-30 14:27:01.500,-2.0638503680331177
2025-03-30 14:27:01.500,-2.261177560525597
2025-03-30 14:27:01.500,-0.14652575752411687
2025-03-30 14:27:01.500,1.9545015243113264
2025-03-30 14:27:01.510,1.8984891308700143
2025-03-30 14:27:01.510,-0.00720165513122259
2025-03-30 14:27:01.510,-1.6215801938419683
2025-03-30 14:27:01.510,-1.4300477667141451
2025-03-30 14:27:01.510,0.045472155206234946
2025-03-30 14:27:01.519,1.1762607081370449
2025-03-30 14:27:01.519,1.041956329004412
2025-03-30 14:27:01.519,0.07724540210934736
2025-03-30 14:27:01.520,-0.7150858054182393
2025-03-30 14:27:01.520,-0.7527096851392369
2025-03-30 14:27:01.530,-0.18012107832197577
2025-03-30 14:27:01.530,0.41928336783950604
2025-03-30 14:27:01.530,0.5247904497128488
2025-03-30 14:27:01.530,0.10077775942067126
2025-03-30 14:27:01.530,-0.36470828149642476
2025-03-30 14:27:01.539,-0.3463397292661219
2025-03-30 14:27:01.539,0.10927407926929622
2025-03-30 14:27:01.539,0.40858462015115316
2025-03-30 14:27:01.540,0.18699640052694536
2025-03-30 14:27:01.540,-0.19435433339896552
2025-03-30 14:27:01.550,-0.24571598349257873
2025-03-30 14:27:01.550,-0.12225621165015206
2025-03-30 14:27:01.550,-0.224335342550351
2025-03-30 14:27:01.550,-0.2849565794652858
2025-03-30 14:27:01.550,0.2923870095390012
2025-03-30 14:27:01.559,1.1558022612061403
2025-03-30 14:27:01.559,1.0177354591689185
2025-03-30 14:27:01.560,-0.5615356214388117
2025-03-30 14:27:01.560,-2.086231376406897
2025-03-30 14:27:01.560,-1.6443445817972855
2025-03-30 14:27:01.569,0.6430285449149384
2025-03-30 14:27:01.569,2.47538558312421
2025-03-30 14:27:01.569,1.9273875509671057
2025-03-30 14:27:01.570,-0.3888110408877305
2025-03-30 14:27:01.570,-2.1260929085874474
2025-03-30 14:27:01.579,-1.815771893917764
2025-03-30 14:27:01.579,-0.1510212821313749
2025-03-30 14:27:01.579,1.1986155101314315
2025-03-30 14:27:01.580,1.3923067464389833
2025-03-30 14:27:01.580,0.7643672628585555
2025-03-30 14:27:01.589,-0.08559608061429046
2025-03-30 14:27:01.589,-0.8389519548802986
2025-03-30 14:27:01.590,-1.1775564604353073
2025-03-30 14:27:01.590,-0.7285303605838458
2025-03-30 14:27:01.590,0.34642028692236176
2025-03-30 14:27:01.599,1.1685368698425722
2025-03-30 14:27:01.599,0.9867954586347432
2025-03-30 14:27:01.599,0.022954535772250324
2025-03-30 14:27:01.600,-0.7995256725237336
2025-03-30 14:27:01.600,-0.8357194497174163
2025-03-30 14:27:01.609,-0.23280226568876028
2025-03-30 14:27:01.609,0.4001663221207363
2025-03-30 14:27:01.609,0.5875079734320798
2025-03-30 14:27:01.610,0.27341980846867914
2025-03-30 14:27:01.610,-0.2289125635146525
2025-03-30 14:27:01.619,-0.46185887018893107
2025-03-30 14:27:01.619,-0.18992617503666576
2025-03-30 14:27:01.619,0.30518429809183584
2025-03-30 14:27:01.620,0.44892940327405
2025-03-30 14:27:01.620,0.03771492918568062
2025-03-30 14:27:01.629,-0.4679663085280399
2025-03-30 14:27:01.630,-0.4629920884840034
2025-03-30 14:27:01.630,0.0901655243040741
2025-03-30 14:27:01.630,0.6010891803716957
2025-03-30 14:27:01.630,0.49136997083394507
2025-03-30 14:27:01.639,-0.1631601682686097
2025-03-30 14:27:01.639,-0.6776551648866891
2025-03-30 14:27:01.639,-0.48056436679346276
2025-03-30 14:27:01.640,0.2406853268966408
2025-03-30 14:27:01.640,0.6954937570560884
2025-03-30 14:27:01.649,0.34422064198983904
2025-03-30 14:27:01.649,-0.4364990904879693
2025-03-30 14:27:01.650,-0.7041659977527743
2025-03-30 14:27:01.650,-0.07406230930285457
2025-03-30 14:27:01.650,0.7309657690150615
2025-03-30 14:27:01.659,0.7346371113504061
2025-03-30 14:27:01.659,-0.08847559553424689
2025-03-30 14:27:01.659,-0.8481084521429254
2025-03-30 14:27:01.659,-0.8330971479521758
2025-03-30 14:27:01.659,-0.15429760018175964
2025-03-30 14:27:01.669,0.6098368165473106
2025-03-30 14:27:01.669,0.9693060777121645
2025-03-30 14:27:01.669,0.7069439337735058
2025-03-30 14:27:01.669,-0.0808189951463927
2025-03-30 14:27:01.669,-0.9185591130230518
2025-03-30 14:27:01.679,-1.1551203295787988
2025-03-30 14:27:01.679,-0.5279846639303649
2025-03-30 14:27:01.679,0.4861631719363374
2025-03-30 14:27:01.680,1.0882614077446773
2025-03-30 14:27:01.680,0.928281309087833
2025-03-30 14:27:01.689,0.2898579198535541
2025-03-30 14:27:01.689,-0.40473131719887195
2025-03-30 14:27:01.689,-0.9348461431395579
2025-03-30 14:27:01.689,-1.0960676107771852
2025-03-30 14:27:01.689,-0.5928852017818117
2025-03-30 14:27:01.699,0.5411345886901872
2025-03-30 14:27:01.699,1.5505701499986424
2025-03-30 14:27:01.699,1.4259851734635622
2025-03-30 14:27:01.699,0.027631934988875298
2025-03-30 14:27:01.699,-1.4737932244775955
2025-03-30 14:27:01.709,-1.6730584008848661
2025-03-30 14:27:01.709,-0.445210505782815
2025-03-30 14:27:01.709,0.941477757795767
2025-03-30 14:27:01.709,1.25729792051337
2025-03-30 14:27:01.709,0.527205344083551
2025-03-30 14:27:01.719,-0.283924286372316
2025-03-30 14:27:01.719,-0.4780347700401006
2025-03-30 14:27:01.719,-0.23063174593164193
2025-03-30 14:27:01.719,-0.09973479342959818
2025-03-30 14:27:01.719,-0.25542599233297697
2025-03-30 14:27:01.729,-0.3487219801511591
2025-03-30 14:27:01.729,-0.011598146740841328
2025-03-30 14:27:01.729,0.6482269666096707
2025-03-30 14:27:01.729,1.02272880645797
2025-03-30 14:27:01.729,0.5257885616435113
2025-03-30 14:27:01.738,-0.6774280645107222
2025-03-30 14:27:01.738,-1.538415133769078
2025-03-30 14:27:01.738,-1.0725497947186202
2025-03-30 14:27:01.738,0.46665636264836513
2025-03-30 14:27:01.738,1.650386230789408
2025-03-30 14:27:01.748,1.3146346599314
2025-03-30 14:27:01.748,-0.18371783901892524
2025-03-30 14:27:01.748,-1.3398095465586786
2025-03-30 14:27:01.748,-1.117061828810551
2025-03-30 14:27:01.748,0.013123791127800613
2025-03-30 14:27:01.758,0.7652786276083825
2025-03-30 14:27:01.758,0.5535335839483142
2025-03-30 14:27:01.758,-0.02031453380081493
2025-03-30 14:27:01.758,-0.1454032657153232
2025-03-30 14:27:01.758,0.14789921931148295
2025-03-30 14:27:01.768,0.18021766564848965
2025-03-30 14:27:01.768,-0.31940295573420263
2025-03-30 14:27:01.768,-0.7518083681484824
2025-03-30 14:27:01.768,-0.41698871564924367
2025-03-30 14:27:01.768,0.509882816375539
2025-03-30 14:27:01.778,1.0993672997201824
2025-03-30 14:27:01.778,0.7025375929292593
2025-03-30 14:27:01.778,-0.3807509257686451
2025-03-30 14:27:01.778,-1.209559553767056
2025-03-30 14:27:01.788,-1.0146894077747945
2025-03-30 14:27:01.788,0.12267042597234297
2025-03-30 14:27:01.788,1.2005616300455697
2025-03-30 14:27:01.788,1.130077357629394
2025-03-30 14:27:01.788,-0.07351125933062264
2025-03-30 14:27:01.798,-1.1259220885506431
2025-03-30 14:27:01.798,-0.858587171834352
2025-03-30 14:27:01.798,0.34957102007883406
2025-03-30 14:27:01.798,0.9827659099021541
2025-03-30 14:27:01.798,0.28232679974985225
2025-03-30 14:27:01.808,-0.7900461853627536
2025-03-30 14:27:01.808,-0.8051986616731986
2025-03-30 14:27:01.808,0.31144789577759013
2025-03-30 14:27:01.808,1.2112008918441683
2025-03-30 14:27:01.808,0.7624931909487913
2025-03-30 14:27:01.818,-0.6467422144183246
2025-03-30 14:27:01.818,-1.530648305733218
2025-03-30 14:27:01.818,-0.8894332747012198
2025-03-30 14:27:01.818,0.6956100786089673
2025-03-30 14:27:01.818,1.6178931026693801
2025-03-30 14:27:01.828,0.945157762358874
2025-03-30 14:27:01.828,-0.5774194236334558
2025-03-30 14:27:01.828,-1.3733584366266627
2025-03-30 14:27:01.828,-0.7571974970471006
2025-03-30 14:27:01.828,0.4272654432695131
2025-03-30 14:27:01.838,0.8857721305596558
2025-03-30 14:27:01.838,0.3247522212322899
2025-03-30 14:27:01.838,-0.38412072247493634
2025-03-30 14:27:01.838,-0.3656167830888533
2025-03-30 14:27:01.838,0.2466189287907496
2025-03-30 14:27:01.848,0.5601915486797594
2025-03-30 14:27:01.848,0.029730161539463257
2025-03-30 14:27:01.848,-0.8255456812906786
2025-03-30 14:27:01.848,-0.9126795713034084
2025-03-30 14:27:01.848,0.12303370105334716
2025-03-30 14:27:01.858,1.2574065214085406
2025-03-30 14:27:01.858,1.1501447801100457
2025-03-30 14:27:01.858,-0.19846615513580754
2025-03-30 14:27:01.858,-1.3497302436180207
2025-03-30 14:27:01.858,-1.0960862837699041
2025-03-30 14:27:01.868,0.20372410368548788
2025-03-30 14:27:01.868,1.1483843761791508
2025-03-30 14:27:01.868,0.8535325273761203
2025-03-30 14:27:01.868,-0.22370769981898453
2025-03-30 14:27:01.868,-0.8959422987856185
2025-03-30 14:27:01.878,-0.5220603582153029
2025-03-30 14:27:01.878,0.36723981528029165
2025-03-30 14:27:01.878,0.7148931385640592
2025-03-30 14:27:01.878,0.1495323886930119
2025-03-30 14:27:01.878,-0.5951621068010684
2025-03-30 14:27:01.888,-0.5764537855028726
2025-03-30 14:27:01.888,0.18872637930129255
2025-03-30 14:27:01.888,0.751732702257204
2025-03-30 14:27:01.888,0.4390857181671593
2025-03-30 14:27:01.888,-0.3461764430300079
2025-03-30 14:27:01.897,-0.7166370105212444
2025-03-30 14:27:01.898,-0.36968272167382055
2025-03-30 14:27:01.898,0.22591018100656318
2025-03-30 14:27:01.898,0.5117016634382768
2025-03-30 14:27:01.898,0.3847899863142617
2025-03-30 14:27:01.908,0.08649818791035407
2025-03-30 14:27:01.908,-0.18251650880201406
2025-03-30 14:27:01.908,-0.3706354247281993
2025-03-30 14:27:01.908,-0.4085369508739125
2025-03-30 14:27:01.908,-0.18601208412764983
2025-03-30 14:27:01.918,0.22967118864428995
2025-03-30 14:27:01.918,0.5326570807479711
2025-03-30 14:27:01.918,0.4634117561916163
2025-03-30 14:27:01.918,0.07166796353238436
2025-03-30 14:27:01.918,-0.36453735459740155
2025-03-30 14:27:01.927,-0.5865433868971803
2025-03-30 14:27:01.928,-0.4673701903217852
2025-03-30 14:27:01.928,-0.01332192640632602
2025-03-30 14:27:01.928,0.5609359134300644
2025-03-30 14:27:01.928,0.8044288372686887
2025-03-30 14:27:01.938,0.3797551461537017
2025-03-30 14:27:01.938,-0.42622045565265376
2025-03-30 14:27:01.938,-0.843779185147817
2025-03-30 14:27:01.938,-0.5003757836710861
2025-03-30 14:27:01.938,0.13692558080919864
2025-03-30 14:27:01.947,0.4468765558841043
2025-03-30 14:27:01.947,0.4087482289471313
2025-03-30 14:27:01.948,0.31981993605688974
2025-03-30 14:27:01.948,0.15359045147163444
2025-03-30 14:27:01.948,-0.26675147141297684
2025-03-30 14:27:01.957,-0.6810171974458571
2025-03-30 14:27:01.957,-0.5767401927469544
2025-03-30 14:27:01.957,0.03895320920290494
2025-03-30 14:27:01.957,0.5657010878821139
2025-03-30 14:27:01.958,0.6082047488559323
2025-03-30 14:27:01.967,0.37494255623819045
2025-03-30 14:27:01.967,0.12458799402743946
2025-03-30 14:27:01.967,-0.2553684891670734
2025-03-30 14:27:01.968,-0.7841671575791668
2025-03-30 14:27:01.968,-0.9654724501415007
2025-03-30 14:27:01.977,-0.33486085664672005
2025-03-30 14:27:01.977,0.7667874667554229
2025-03-30 14:27:01.977,1.393379715575134
2025-03-30 14:27:01.978,0.9598517171203049
2025-03-30 14:27:01.978,-0.20726040477929333
2025-03-30 14:27:01.987,-1.2372037906421078
2025-03-30 14:27:01.987,-1.4252067661936894
2025-03-30 14:27:01.988,-0.6225434622674627
2025-03-30 14:27:01.988,0.7164945401862437
2025-03-30 14:27:01.988,1.6648140092619974
2025-03-30 14:27:01.997,1.3474803735081977
2025-03-30 14:27:01.997,-0.17113639882693726
2025-03-30 14:27:01.997,-1.6186153141636785
2025-03-30 14:27:01.997,-1.6265628308333386
2025-03-30 14:27:01.998,-0.20541091670023304
2025-03-30 14:27:02.007,1.224570209719621
2025-03-30 14:27:02.007,1.370546346360338
2025-03-30 14:27:02.007,0.3610837905516175
2025-03-30 14:27:02.008,-0.6302482630319459
2025-03-30 14:27:02.008,-0.7824580808741841
2025-03-30 14:27:02.017,-0.31220220383725455
2025-03-30 14:27:02.017,0.12818202864492348
2025-03-30 14:27:02.017,0.24283093367110334
2025-03-30 14:27:02.018,0.127420869663915
2025-03-30 14:27:02.018,-0.0345799055457609
2025-03-30 14:27:02.027,-0.03383803295782679
2025-03-30 14:27:02.027,0.23144434455218876
2025-03-30 14:27:02.028,0.430572124667317
2025-03-30 14:27:02.028,0.03418042338991951
2025-03-30 14:27:02.028,-0.801757553287627
2025-03-30 14:27:02.037,-1.0429331464642635
2025-03-30 14:27:02.037,-0.01719792551840143
2025-03-30 14:27:02.037,1.405185395732345
2025-03-30 14:27:02.038,1.56295203906642
2025-03-30 14:27:02.038,0.037669654142406916
2025-03-30 14:27:02.047,-1.6604560618982955
2025-03-30 14:27:02.047,-1.781977443342548
2025-03-30 14:27:02.048,-0.2962830137509834
2025-03-30 14:27:02.048,1.2585741354148485
2025-03-30 14:27:02.048,1.5754321601772858
2025-03-30 14:27:02.057,0.7197991808004877
2025-03-30 14:27:02.057,-0.3794916492976792
2025-03-30 14:27:02.057,-0.9862019297489726
2025-03-30 14:27:02.057,-0.922998606299237
2025-03-30 14:27:02.058,-0.3503934521077487
2025-03-30 14:27:02.066,0.35314455388417176
2025-03-30 14:27:02.066,0.6566651810620534
2025-03-30 14:27:02.066,0.3319236309907697
2025-03-30 14:27:02.066,-0.1365191000008047
2025-03-30 14:27:02.066,-0.06601255397581211
2025-03-30 14:27:02.076,0.4328033246416877
2025-03-30 14:27:02.076,0.4882346847458388
2025-03-30 14:27:02.076,-0.3212699115618842
2025-03-30 14:27:02.076,-1.2446589287388532
2025-03-30 14:27:02.076,-1.17790520229227
2025-03-30 14:27:02.086,0.026404835110960888
2025-03-30 14:27:02.086,1.3667984935378408
2025-03-30 14:27:02.086,1.7246518494804493
2025-03-30 14:27:02.086,0.8513803826416594
2025-03-30 14:27:02.096,-0.6078260829829166
2025-03-30 14:27:02.096,-1.7131797681191674
2025-03-30 14:27:02.096,-1.7472282368676475
2025-03-30 14:27:02.096,-0.5738686890125408
2025-03-30 14:27:02.096,1.1037316878415353
2025-03-30 14:27:02.096,2.0407751194647252
2025-03-30 14:27:02.106,1.458198981977921
2025-03-30 14:27:02.106,-0.16324394019258415
2025-03-30 14:27:02.106,-1.4861002773105156
2025-03-30 14:27:02.106,-1.569238636304204
2025-03-30 14:27:02.116,-0.6328489629345877
2025-03-30 14:27:02.116,0.3991877831675335
2025-03-30 14:27:02.116,0.8911896778731156
2025-03-30 14:27:02.116,0.8580260112663443
2025-03-30 14:27:02.116,0.550597983810736
2025-03-30 14:27:02.116,0.08768092836618767
2025-03-30 14:27:02.126,-0.44512515173259
2025-03-30 14:27:02.126,-0.8211704986086835
2025-03-30 14:27:02.126,-0.7595813614341174
2025-03-30 14:27:02.126,-0.18863068961413204
2025-03-30 14:27:02.136,0.5370526744596581
2025-03-30 14:27:02.136,0.7981666030543773
2025-03-30 14:27:02.136,0.35608218830400556
2025-03-30 14:27:02.136,-0.24082317443036563
2025-03-30 14:27:02.136,-0.26897720025822636
2025-03-30 14:27:02.146,0.17932583687714967
2025-03-30 14:27:02.146,0.2707449757325985
2025-03-30 14:27:02.146,-0.3778340550594333
2025-03-30 14:27:02.146,-1.0115327428285965
2025-03-30 14:27:02.146,-0.6105658367001333
2025-03-30 14:27:02.156,0.7090830104797403
2025-03-30 14:27:02.156,1.6101549272166478
2025-03-30 14:27:02.156,1.0093354299815398
2025-03-30 14:27:02.156,-0.6283565585044204
2025-03-30 14:27:02.156,-1.7239550139494308
2025-03-30 14:27:02.165,-1.2327731395255388
2025-03-30 14:27:02.166,0.31531480988840555
2025-03-30 14:27:02.166,1.4224487621884236
2025-03-30 14:27:02.166,1.1630596068710695
2025-03-30 14:27:02.166,0.010019180676064582
2025-03-30 14:27:02.176,-0.8680672376834172
2025-03-30 14:27:02.176,-0.8649293253315541
2025-03-30 14:27:02.176,-0.27717097233907534
2025-03-30 14:27:02.176,0.3133742500773746
2025-03-30 14:27:02.176,0.5652499946075945
2025-03-30 14:27:02.186,0.418837193483853
2025-03-30 14:27:02.186,0.03211262451740047
2025-03-30 14:27:02.186,-0.30216267126128143
2025-03-30 14:27:02.186,-0.38803984448604595
2025-03-30 14:27:02.186,-0.26536764863709267
2025-03-30 14:27:02.195,-0.047443119447484326
2025-03-30 14:27:02.196,0.24044943109002256
2025-03-30 14:27:02.196,0.5184772640001709
2025-03-30 14:27:02.196,0.4872289951488728
2025-03-30 14:27:02.196,-0.07828446926487836
2025-03-30 14:27:02.205,-0.7971567678654489
2025-03-30 14:27:02.206,-0.8303338387873025
2025-03-30 14:27:02.206,0.08606373691017244
2025-03-30 14:27:02.206,1.0299843135527693
2025-03-30 14:27:02.206,0.8468483476988936
2025-03-30 14:27:02.216,-0.342514213114618
2025-03-30 14:27:02.216,-1.129126651058342
2025-03-30 14:27:02.216,-0.5081791576521487
2025-03-30 14:27:02.216,0.7965361701310394
2025-03-30 14:27:02.216,1.1200368302619446
2025-03-30 14:27:02.225,-0.07540672619358427
2025-03-30 14:27:02.225,-1.3889096142130417
2025-03-30 14:27:02.225,-1.090831074735894
2025-03-30 14:27:02.226,0.6950568323981636
2025-03-30 14:27:02.226,1.9676590526248825
2025-03-30 14:27:02.236,1.142743463041363
2025-03-30 14:27:02.236,-1.0410912318025327
2025-03-30 14:27:02.236,-2.2852087406043955
2025-03-30 14:27:02.236,-1.278721516425481
2025-03-30 14:27:02.236,0.9167438454585508
2025-03-30 14:27:02.245,2.1309892300485807
2025-03-30 14:27:02.245,1.3724576292519146
2025-03-30 14:27:02.246,-0.41196988011997115
2025-03-30 14:27:02.246,-1.5696588054749643
2025-03-30 14:27:02.246,-1.3147941034565844
2025-03-30 14:27:02.256,-0.1503458755581516
2025-03-30 14:27:02.256,0.8669727937651002
2025-03-30 14:27:02.256,1.0762847195003575
2025-03-30 14:27:02.256,0.5521373263849301
2025-03-30 14:27:02.256,-0.21841391974772395
2025-03-30 14:27:02.265,-0.7624407440367788
2025-03-30 14:27:02.265,-0.7895549308175552
2025-03-30 14:27:02.265,-0.2634052536514176
2025-03-30 14:27:02.266,0.4979021953230758
2025-03-30 14:27:02.266,0.9147532762473775
2025-03-30 14:27:02.275,0.5697360548008681
2025-03-30 14:27:02.275,-0.3338740964093721
2025-03-30 14:27:02.275,-0.9993576358503532
2025-03-30 14:27:02.276,-0.7333651449711153
2025-03-30 14:27:02.276,0.28560798665503245
2025-03-30 14:27:02.284,1.0786616872005503
2025-03-30 14:27:02.284,0.8268109636746359
2025-03-30 14:27:02.284,-0.2867711906144855
2025-03-30 14:27:02.284,-1.212532828618719
2025-03-30 14:27:02.284,-0.996431179882586
2025-03-30 14:27:02.295,0.2798346844819875
2025-03-30 14:27:02.295,1.442057144000809
2025-03-30 14:27:02.295,1.2682649029140363
2025-03-30 14:27:02.296,-0.23380023507529313
2025-03-30 14:27:02.296,-1.6637977324761344
2025-03-30 14:27:02.304,-1.5440380034829
2025-03-30 14:27:02.304,0.12001685568921934
2025-03-30 14:27:02.304,1.721439830586911
2025-03-30 14:27:02.304,1.6682339715497791
2025-03-30 14:27:02.315,0.05927118177458078
2025-03-30 14:27:02.315,-1.4706440337437476
2025-03-30 14:27:02.315,-1.5278548239717877
2025-03-30 14:27:02.316,-0.2856628227292165
2025-03-30 14:27:02.316,0.9641341065696782
2025-03-30 14:27:02.316,1.20795467821093
2025-03-30 14:27:02.324,0.47534013090353017
2025-03-30 14:27:02.324,-0.49449379844830593
2025-03-30 14:27:02.324,-0.9591949761713178
2025-03-30 14:27:02.324,-0.587155227699351
2025-03-30 14:27:02.334,0.3640131523307175
2025-03-30 14:27:02.334,1.0436304804730843
2025-03-30 14:27:02.334,0.6151471804824019
2025-03-30 14:27:02.334,-0.687412589037031
2025-03-30 14:27:02.334,-1.4431558452094266
2025-03-30 14:27:02.334,-0.5626438978111934
2025-03-30 14:27:02.344,1.219375925581988
2025-03-30 14:27:02.344,1.9379409283343199
2025-03-30 14:27:02.344,0.5915662981358911
2025-03-30 14:27:02.344,-1.6001801678184437
2025-03-30 14:27:02.354,-2.36828745574521
2025-03-30 14:27:02.354,-0.789543746388418
2025-03-30 14:27:02.354,1.6564611723349785
2025-03-30 14:27:02.354,2.5551200511770062
2025-03-30 14:27:02.354,1.0269345319357368
2025-03-30 14:27:02.364,-1.4046407439878077
2025-03-30 14:27:02.364,-2.3965495169032054
2025-03-30 14:27:02.364,-1.1169724735875204
2025-03-30 14:27:02.364,1.0340848882282707
2025-03-30 14:27:02.364,1.9515959547962924
2025-03-30 14:27:02.374,0.9439694924214952
2025-03-30 14:27:02.374,-0.7437131725145152
2025-03-30 14:27:02.374,-1.390303039330188
2025-03-30 14:27:02.374,-0.5562417981614092
2025-03-30 14:27:02.374,0.6517254477244325
2025-03-30 14:27:02.384,0.9111275653950408
2025-03-30 14:27:02.384,0.10452972181812611
2025-03-30 14:27:02.384,-0.699069801693171
2025-03-30 14:27:02.384,-0.589133008127171
2025-03-30 14:27:02.384,0.18737528887094118
2025-03-30 14:27:02.394,0.6965535211719994
2025-03-30 14:27:02.394,0.4504971068391227
2025-03-30 14:27:02.394,-0.2035286477219815
2025-03-30 14:27:02.394,-0.6122582331124352
2025-03-30 14:27:02.394,-0.45365432222604424
2025-03-30 14:27:02.404,0.07330276240896552
2025-03-30 14:27:02.404,0.4910490400771228
2025-03-30 14:27:02.404,0.4613049260638725
2025-03-30 14:27:02.404,0.06203842841050971
2025-03-30 14:27:02.404,-0.3109650519257229
2025-03-30 14:27:02.414,-0.3522852711520908
2025-03-30 14:27:02.414,-0.14661051820402843
2025-03-30 14:27:02.414,0.019554055270722494
2025-03-30 14:27:02.414,0.07905142436253679
2025-03-30 14:27:02.414,0.1806013859328366
2025-03-30 14:27:02.423,0.2937974226597296
2025-03-30 14:27:02.423,0.18674795780044237
2025-03-30 14:27:02.424,-0.12963008904788306
2025-03-30 14:27:02.424,-0.3226445221698991
2025-03-30 14:27:02.424,-0.23144383522413542
2025-03-30 14:27:02.434,-0.08059801702861424
2025-03-30 14:27:02.434,-0.045086353416164
2025-03-30 14:27:02.434,0.05864540264618445
2025-03-30 14:27:02.434,0.38923030710224177
2025-03-30 14:27:02.434,0.6200641733316492
2025-03-30 14:27:02.442,0.24791534062414514
2025-03-30 14:27:02.442,-0.621694148189718
2025-03-30 14:27:02.442,-1.1527697124427096
2025-03-30 14:27:02.442,-0.6602049941481227
2025-03-30 14:27:02.442,0.5566998584659165
2025-03-30 14:27:02.453,1.4366162605254293
2025-03-30 14:27:02.453,1.1444571810787507
2025-03-30 14:27:02.454,-0.1612273244784426
2025-03-30 14:27:02.454,-1.400220711423543
2025-03-30 14:27:02.454,-1.4722470203828395
2025-03-30 14:27:02.462,-0.29916139708657224
2025-03-30 14:27:02.462,1.0555022210882135
2025-03-30 14:27:02.462,1.4249076884907783
2025-03-30 14:27:02.462,0.6183657695788685
2025-03-30 14:27:02.473,-0.5552585516316269
2025-03-30 14:27:02.473,-1.1195928403659736
2025-03-30 14:27:02.474,-0.7122911349241443
2025-03-30 14:27:02.474,0.2093774782756262
2025-03-30 14:27:02.474,0.7800265180492527
2025-03-30 14:27:02.474,0.5052944818971585
2025-03-30 14:27:02.482,-0.2223229129900878
2025-03-30 14:27:02.482,-0.5177995321280771
2025-03-30 14:27:02.482,-0.04610437315292613
2025-03-30 14:27:02.482,0.5253416054857389
2025-03-30 14:27:02.492,0.36910753606950353
2025-03-30 14:27:02.492,-0.39237664327639155
2025-03-30 14:27:02.492,-0.8214267167432103
2025-03-30 14:27:02.492,-0.3638232165668345
2025-03-30 14:27:02.492,0.4992089350871038
2025-03-30 14:27:02.492,0.8821437887621738
2025-03-30 14:27:02.502,0.4701050968089327
2025-03-30 14:27:02.502,-0.276474774220066
2025-03-30 14:27:02.502,-0.7027400680546031
2025-03-30 14:27:02.502,-0.5605789091954905
2025-03-30 14:27:02.512,-0.06892503151425945
2025-03-30 14:27:02.512,0.4115743663917362
2025-03-30 14:27:02.512,0.6074256923883714
2025-03-30 14:27:02.512,0.38009571869309433
2025-03-30 14:27:02.512,-0.16720365067316234
2025-03-30 14:27:02.522,-0.6226187435681743
2025-03-30 14:27:02.522,-0.5602460434408177
2025-03-30 14:27:02.522,-0.0014151479334319449
2025-03-30 14:27:02.522,0.5543854301312402
2025-03-30 14:27:02.522,0.628867327524478
2025-03-30 14:27:02.532,0.199301289197274
2025-03-30 14:27:02.532,-0.3880026443852284
2025-03-30 14:27:02.532,-0.7474559579125462
2025-03-30 14:27:02.532,-0.5895480858544653
2025-03-30 14:27:02.532,0.16341549927347757
2025-03-30 14:27:02.542,1.0465447090535493
2025-03-30 14:27:02.542,1.1316647847576646
2025-03-30 14:27:02.542,0.03113976721843084
2025-03-30 14:27:02.542,-1.3022577425625461
2025-03-30 14:27:02.542,-1.4410868429224775
2025-03-30 14:27:02.552,-0.18996430422900407
2025-03-30 14:27:02.552,1.1502240997929154
2025-03-30 14:27:02.552,1.3168056885309452
2025-03-30 14:27:02.552,0.3751744036328787
2025-03-30 14:27:02.552,-0.6599251166619554
2025-03-30 14:27:02.562,-1.0003747866321164
2025-03-30 14:27:02.562,-0.5848146940634684
2025-03-30 14:27:02.562,0.20765355522593157
2025-03-30 14:27:02.562,0.8436298766103522
2025-03-30 14:27:02.562,0.7881893962302585
2025-03-30 14:27:02.572,-0.050301891129177045
2025-03-30 14:27:02.572,-0.9432205230678505
2025-03-30 14:27:02.572,-0.9184805748658901
2025-03-30 14:27:02.572,0.08644977818084411
2025-03-30 14:27:02.572,1.0446755487022734
2025-03-30 14:27:02.582,1.003215665642489
2025-03-30 14:27:02.582,0.0772687946054462
2025-03-30 14:27:02.582,-0.87860504362673
2025-03-30 14:27:02.582,-1.1870310827490946
2025-03-30 14:27:02.582,-0.6768566821027682
2025-03-30 14:27:02.592,0.4396329135362218
2025-03-30 14:27:02.592,1.4846389155264892
2025-03-30 14:27:02.592,1.4480956538457783
2025-03-30 14:27:02.592,0.0003010701969766577
2025-03-30 14:27:02.592,-1.655472345890702
2025-03-30 14:27:02.600,-1.775264662685734
2025-03-30 14:27:02.600,-0.1585297892437758
2025-03-30 14:27:02.600,1.4511916163416592
2025-03-30 14:27:02.600,1.393496347830605
2025-03-30 14:27:02.610,-0.021685961073135612
2025-03-30 14:27:02.610,-1.063231953018441
2025-03-30 14:27:02.610,-0.6708630127354089
2025-03-30 14:27:02.611,0.4671974695488772
2025-03-30 14:27:02.611,0.9029800266703496
2025-03-30 14:27:02.611,0.13109584290427506
2025-03-30 14:27:02.620,-0.9414807115616883
2025-03-30 14:27:02.620,-1.0968922186690973
2025-03-30 14:27:02.620,-0.09556221181843798
2025-03-30 14:27:02.621,1.1395439108608238
2025-03-30 14:27:02.630,1.430914206525741
2025-03-30 14:27:02.630,0.45265548349902207
2025-03-30 14:27:02.630,-0.9294160923578938
2025-03-30 14:27:02.631,-1.4700574635847152
2025-03-30 14:27:02.631,-0.7702955607207522
2025-03-30 14:27:02.640,0.4016343500327509
2025-03-30 14:27:02.640,1.007448260311514
2025-03-30 14:27:02.640,0.7459321015399081
2025-03-30 14:27:02.640,0.11117571429887532
2025-03-30 14:27:02.641,-0.3072696661796944
2025-03-30 14:27:02.650,-0.3656713330098498
2025-03-30 14:27:02.650,-0.28104280916673996
2025-03-30 14:27:02.650,-0.23809838391525218
2025-03-30 14:27:02.650,-0.1920639670976126
2025-03-30 14:27:02.651,0.01354867524181357
2025-03-30 14:27:02.660,0.3987247305182666
2025-03-30 14:27:02.660,0.6964202894228825
2025-03-30 14:27:02.660,0.5208538636737482
2025-03-30 14:27:02.660,-0.17938469661248713
2025-03-30 14:27:02.661,-0.8930863521411628
2025-03-30 14:27:02.670,-0.9538515071453505
2025-03-30 14:27:02.670,-0.21943721715037295
2025-03-30 14:27:02.670,0.7141840903698694
2025-03-30 14:27:02.671,1.0249945000701
2025-03-30 14:27:02.671,0.46353481999420376
2025-03-30 14:27:02.680,-0.372812042666092
2025-03-30 14:27:02.680,-0.699175397840786
2025-03-30 14:27:02.680,-0.4097815736645843
2025-03-30 14:27:02.680,-0.025289921291598252
2025-03-30 14:27:02.680,0.12663372267010142
2025-03-30 14:27:02.690,0.23400029853247456
2025-03-30 14:27:02.690,0.44867973231681846
2025-03-30 14:27:02.690,0.47465541624284235
2025-03-30 14:27:02.690,-0.004320526870538251
2025-03-30 14:27:02.690,-0.7087102632556912
2025-03-30 14:27:02.700,-0.9209760853790282
2025-03-30 14:27:02.700,-0.3100330563946646
2025-03-30 14:27:02.700,0.6217249629224075
2025-03-30 14:27:02.700,1.0441842646032578
2025-03-30 14:27:02.701,0.6141761456360628
2025-03-30 14:27:02.710,-0.2903797022722177
2025-03-30 14:27:02.710,-0.942121449018661
2025-03-30 14:27:02.710,-0.7868305201519301
2025-03-30 14:27:02.710,0.106199645124437
2025-03-30 14:27:02.711,0.9356782797217578
2025-03-30 14:27:02.720,0.7999275684078572
2025-03-30 14:27:02.720,-0.2794844026621224
2025-03-30 14:27:02.720,-1.1546229257962453
2025-03-30 14:27:02.720,-0.7329925312623089
2025-03-30 14:27:02.721,0.6543764260185495
2025-03-30 14:27:02.730,1.4546523412020618
2025-03-30 14:27:02.730,0.6604616764354058
2025-03-30 14:27:02.730,-0.9370020408463638
2025-03-30 14:27:02.730,-1.6131893713219314
2025-03-30 14:27:02.730,-0.6604849902304942
2025-03-30 14:27:02.740,0.9037050166720626
2025-03-30 14:27:02.740,1.5347760689601422
2025-03-30 14:27:02.740,0.7418239930866974
2025-03-30 14:27:02.740,-0.5861868403953965
2025-03-30 14:27:02.740,-1.2087418144602355
2025-03-30 14:27:02.750,-0.7269774407337134
2025-03-30 14:27:02.750,0.20742778555413147
2025-03-30 14:27:02.750,0.6989480935184664
2025-03-30 14:27:02.750,0.4758046203576934
2025-03-30 14:27:02.751,-0.014781065520960146
2025-03-30 14:27:02.760,-0.22131783239703484
2025-03-30 14:27:02.760,-0.07384878709297388
2025-03-30 14:27:02.760,0.081916684137257
2025-03-30 14:27:02.760,0.01490336144204469
2025-03-30 14:27:02.760,-0.15898347621215775
2025-03-30 14:27:02.770,-0.256165898038079
2025-03-30 14:27:02.770,-0.22038242716251938
2025-03-30 14:27:02.770,0.0014549412620233231
2025-03-30 14:27:02.770,0.40739639864093125
2025-03-30 14:27:02.771,0.6744430457157142
2025-03-30 14:27:02.780,0.3488203825189085
2025-03-30 14:27:02.780,-0.4841267915352119
2025-03-30 14:27:02.780,-1.0204734350534608
2025-03-30 14:27:02.780,-0.5571902762469392
2025-03-30 14:27:02.780,0.5604718376493305
2025-03-30 14:27:02.790,1.133363695948062
2025-03-30 14:27:02.790,0.45398653014581936
2025-03-30 14:27:02.790,-0.753061253263414
2025-03-30 14:27:02.790,-1.1005207201438998
2025-03-30 14:27:02.791,-0.18447382570665224
2025-03-30 14:27:02.800,0.9453753455430318
2025-03-30 14:27:02.800,1.039818764835932
2025-03-30 14:27:02.800,0.04569657568654288
2025-03-30 14:27:02.800,-0.9353873021387322
2025-03-30 14:27:02.800,-0.9227536464874943
2025-03-30 14:27:02.810,-0.06576286025173095
2025-03-30 14:27:02.810,0.667124586063114
2025-03-30 14:27:02.810,0.6177949632389064
2025-03-30 14:27:02.810,0.04255291478954077
2025-03-30 14:27:02.811,-0.33624499820951287
2025-03-30 14:27:02.821,-0.1462631037611006
2025-03-30 14:27:02.821,0.2760436149015127
2025-03-30 14:27:02.821,0.250143430628762
2025-03-30 14:27:02.821,-0.42123690493009747
2025-03-30 14:27:02.821,-0.982304183983295
2025-03-30 14:27:02.829,-0.443307906933002
2025-03-30 14:27:02.830,1.0176454328002564
2025-03-30 14:27:02.830,1.8073752981702043
2025-03-30 14:27:02.830,0.6603393575720647
2025-03-30 14:27:02.830,-1.5075248758891426
2025-03-30 14:27:02.839,-2.2789202680225125
2025-03-30 14:27:02.840,-0.6067039674900605
2025-03-30 14:27:02.840,1.6984132651306483
2025-03-30 14:27:02.840,2.059485542083883
2025-03-30 14:27:02.840,0.25162383727265275
2025-03-30 14:27:02.850,-1.485237051821698
2025-03-30 14:27:02.850,-1.3109780337635557
2025-03-30 14:27:02.850,0.1897493591501519
2025-03-30 14:27:02.850,1.0977188178414083
2025-03-30 14:27:02.850,0.541922007644809
2025-03-30 14:27:02.860,-0.56314584900047
2025-03-30 14:27:02.860,-0.8665839196476415
2025-03-30 14:27:02.860,-0.0977458886412947
2025-03-30 14:27:02.860,0.8314945667648295
2025-03-30 14:27:02.860,0.8829943387329093
2025-03-30 14:27:02.869,-0.07230668954648217
2025-03-30 14:27:02.870,-1.0707168265824771
2025-03-30 14:27:02.870,-0.9453335111282413
2025-03-30 14:27:02.870,0.3255071599493122
2025-03-30 14:27:02.870,1.3270883822266388
2025-03-30 14:27:02.878,0.7563108637888918
2025-03-30 14:27:02.878,-0.842644064389224
2025-03-30 14:27:02.878,-1.543567384213962
2025-03-30 14:27:02.878,-0.3796061361120885
2025-03-30 14:27:02.879,1.383862446873609
2025-03-30 14:27:02.888,1.714233009960593
2025-03-30 14:27:02.888,0.1889709555953828
2025-03-30 14:27:02.888,-1.5914332680917025
2025-03-30 14:27:02.888,-1.846516081940063
2025-03-30 14:27:02.888,-0.3904054678630184
2025-03-30 14:27:02.898,1.4168141834195822
2025-03-30 14:27:02.898,1.99355717154505
2025-03-30 14:27:02.898,0.7871882298152947
2025-03-30 14:27:02.898,-1.2286890679394402
2025-03-30 14:27:02.898,-2.1796758142687427
2025-03-30 14:27:02.908,-0.9930564937474387
2025-03-30 14:27:02.908,1.269011724462353
2025-03-30 14:27:02.908,2.2593938845840773
2025-03-30 14:27:02.909,0.8758174836514467
2025-03-30 14:27:02.909,-1.395778019449338
2025-03-30 14:27:02.918,-2.09406933514189
2025-03-30 14:27:02.918,-0.567156733512616
2025-03-30 14:27:02.918,1.382739389515887
2025-03-30 14:27:02.919,1.6942900547320674
2025-03-30 14:27:02.919,0.3027910166179615
2025-03-30 14:27:02.928,-1.1301356948899237
2025-03-30 14:27:02.928,-1.2522441916261509
2025-03-30 14:27:02.928,-0.24490164172900836
2025-03-30 14:27:02.928,0.7546636763120192
2025-03-30 14:27:02.929,0.9042429847107536
2025-03-30 14:27:02.938,0.2779918695377266
2025-03-30 14:27:02.938,-0.411653777707315
2025-03-30 14:27:02.938,-0.5365648768149582
2025-03-30 14:27:02.939,-0.1248963436271699
2025-03-30 14:27:02.948,0.19579283019323157
2025-03-30 14:27:02.948,-0.04267165461215916
2025-03-30 14:27:02.948,-0.43520394034541604
2025-03-30 14:27:02.948,-0.12747517768064542
2025-03-30 14:27:02.949,0.8527756760360916
2025-03-30 14:27:02.958,1.2500800645907266
2025-03-30 14:27:02.958,0.142765290484794
2025-03-30 14:27:02.958,-1.5427200564418106
2025-03-30 14:27:02.958,-1.8704322307207994
2025-03-30 14:27:02.958,-0.2473565339647285
2025-03-30 14:27:02.968,1.715958384396219
2025-03-30 14:27:02.968,1.9846454872598243
2025-03-30 14:27:02.968,0.37861534148189807
2025-03-30 14:27:02.968,-1.3333424575797659
2025-03-30 14:27:02.969,-1.5120324687159499
2025-03-30 14:27:02.978,-0.3476561335559991
2025-03-30 14:27:02.978,0.6807685919231787
2025-03-30 14:27:02.978,0.6353675988054799
2025-03-30 14:27:02.978,0.0038574874634042244
2025-03-30 14:27:02.978,-0.16077339348300515
2025-03-30 14:27:02.988,0.3519338316718093
2025-03-30 14:27:02.988,0.6371758374192822
2025-03-30 14:27:02.988,-0.07762049383341031
2025-03-30 14:27:02.988,-1.1877093498951485
2025-03-30 14:27:02.989,-1.2583657054591642
2025-03-30 14:27:02.998,0.11504635949598879
2025-03-30 14:27:02.998,1.5821112392349939
2025-03-30 14:27:02.998,1.5299241439829059
2025-03-30 14:27:02.998,-0.03948497545457107
2025-03-30 14:27:02.998,-1.505772241514887
2025-03-30 14:27:03.008,-1.4058138287473618
2025-03-30 14:27:03.008,0.05027900551420603
2025-03-30 14:27:03.008,1.282968109877557
2025-03-30 14:27:03.008,1.0397331955259212
2025-03-30 14:27:03.009,-0.31826075930422143
2025-03-30 14:27:03.018,-1.2463686501011895
2025-03-30 14:27:03.018,-0.6910180559719141
2025-03-30 14:27:03.018,0.750244384459519
2025-03-30 14:27:03.018,1.451086424142142
2025-03-30 14:27:03.019,0.5486281737815194
2025-03-30 14:27:03.028,-1.0612526379393497
2025-03-30 14:27:03.028,-1.67254606212136
2025-03-30 14:27:03.028,-0.6141002903639494
2025-03-30 14:27:03.028,1.0459628830099026
2025-03-30 14:27:03.028,1.6605181754392533
2025-03-30 14:27:03.038,0.72552565979455
2025-03-30 14:27:03.038,-0.7020163687458414
2025-03-30 14:27:03.038,-1.26931174396212
2025-03-30 14:27:03.038,-0.7220215203230111
2025-03-30 14:27:03.038,0.14282721930127812
2025-03-30 14:27:03.046,0.589798913726673
2025-03-30 14:27:03.046,0.57031197120513
2025-03-30 14:27:03.047,0.3592048668170103
2025-03-30 14:27:03.047,0.06794923048063893
2025-03-30 14:27:03.047,-0.2999051443454774
2025-03-30 14:27:03.056,-0.5666683169516272
2025-03-30 14:27:03.056,-0.4496991310738496
2025-03-30 14:27:03.057,0.04053650222088867
2025-03-30 14:27:03.057,0.4761207686857805
2025-03-30 14:27:03.057,0.4668532806779818
2025-03-30 14:27:03.066,0.1174611343571482
2025-03-30 14:27:03.066,-0.1721650896680438
2025-03-30 14:27:03.066,-0.23663453675052457
2025-03-30 14:27:03.067,-0.2194138848374866
2025-03-30 14:27:03.076,-0.2038469453426123
2025-03-30 14:27:03.076,-0.07027246513599346
2025-03-30 14:27:03.076,0.22703970815446597
2025-03-30 14:27:03.077,0.4674474349909024
2025-03-30 14:27:03.077,0.3939675538329258
2025-03-30 14:27:03.086,0.017125802793032004
2025-03-30 14:27:03.086,-0.43985944357454565
2025-03-30 14:27:03.086,-0.7409202884579703
2025-03-30 14:27:03.086,-0.6189682676677253
2025-03-30 14:27:03.087,0.12679731534373576
2025-03-30 14:27:03.096,1.1227997861191354
2025-03-30 14:27:03.096,1.3442691086483827
2025-03-30 14:27:03.096,0.2070955777200495
2025-03-30 14:27:03.096,-1.377794409921463
2025-03-30 14:27:03.096,-1.7421060148791259
2025-03-30 14:27:03.106,-0.38985857294924525
2025-03-30 14:27:03.106,1.3234345417814093
2025-03-30 14:27:03.106,1.6753870605903933
2025-03-30 14:27:03.106,0.4242608748331124
2025-03-30 14:27:03.106,-1.0713428432610015
2025-03-30 14:27:03.116,-1.3794686668528224
2025-03-30 14:27:03.116,-0.36222205413127356
2025-03-30 14:27:03.116,0.8870995102417039
2025-03-30 14:27:03.116,1.172897688958413
2025-03-30 14:27:03.117,0.26478466711959825
2025-03-30 14:27:03.126,-0.9122055171580578
2025-03-30 14:27:03.126,-1.1432136433482807
2025-03-30 14:27:03.126,-0.1624306252510548
2025-03-30 14:27:03.126,1.0189803162189677
2025-03-30 14:27:03.126,1.1734893177211794
2025-03-30 14:27:03.136,0.15063047869720392
2025-03-30 14:27:03.136,-1.0208852368504353
2025-03-30 14:27:03.136,-1.2149131830788156
2025-03-30 14:27:03.136,-0.28127706811531666
2025-03-30 14:27:03.137,0.8735940498712457
2025-03-30 14:27:03.146,1.1880721171467996
2025-03-30 14:27:03.146,0.45022294104457633
2025-03-30 14:27:03.146,-0.5686919710011185
2025-03-30 14:27:03.146,-0.9558425704373671
2025-03-30 14:27:03.147,-0.5401218102468986
2025-03-30 14:27:03.156,0.12384643273666623
2025-03-30 14:27:03.156,0.5092729942142512
2025-03-30 14:27:03.156,0.5715319036322395
2025-03-30 14:27:03.156,0.42229794968668055
2025-03-30 14:27:03.157,-0.018796577004799503
2025-03-30 14:27:03.164,-0.6869675588543316
2025-03-30 14:27:03.164,-0.9952211637990726
2025-03-30 14:27:03.164,-0.36532871467032874
2025-03-30 14:27:03.165,0.8582130367039699
2025-03-30 14:27:03.165,1.4909115834650808
2025-03-30 14:27:03.174,0.7320431770417042
2025-03-30 14:27:03.174,-0.8600443037220101
2025-03-30 14:27:03.174,-1.8083571211227916
2025-03-30 14:27:03.175,-1.1603280295311427
2025-03-30 14:27:03.175,0.5574006971149194
2025-03-30 14:27:03.184,1.820087969035573
2025-03-30 14:27:03.184,1.5039443016631395
2025-03-30 14:27:03.184,-0.10015113353456805
2025-03-30 14:27:03.185,-1.5240878713890826
2025-03-30 14:27:03.194,-1.4712508252167678
2025-03-30 14:27:03.194,-0.12358031439502762
2025-03-30 14:27:03.194,1.0289786151768565
2025-03-30 14:27:03.195,0.8704349557822597
2025-03-30 14:27:03.195,-0.08773071932227734
2025-03-30 14:27:03.204,-0.4933794012732077
2025-03-30 14:27:03.204,0.05987004761136115
2025-03-30 14:27:03.204,0.5996841673390941
2025-03-30 14:27:03.204,0.16964752785992435
2025-03-30 14:27:03.204,-0.8487106171922048
2025-03-30 14:27:03.214,-1.1695202724630567
2025-03-30 14:27:03.214,-0.19916276187880866
2025-03-30 14:27:03.214,1.1869831507276545
2025-03-30 14:27:03.215,1.580497333443506
2025-03-30 14:27:03.215,0.5336084423453034
2025-03-30 14:27:03.224,-1.0235830963277206
2025-03-30 14:27:03.224,-1.7205528731065973
2025-03-30 14:27:03.224,-0.9877571984400564
2025-03-30 14:27:03.224,0.5155568961446686
2025-03-30 14:27:03.225,1.5442780906422025
2025-03-30 14:27:03.234,1.3213860691324353
2025-03-30 14:27:03.234,0.10045041315517476
2025-03-30 14:27:03.234,-1.1175825318868478
2025-03-30 14:27:03.235,-1.3933145471626147
2025-03-30 14:27:03.235,-0.5775370018944876
2025-03-30 14:27:03.244,0.5980518487458175
2025-03-30 14:27:03.244,1.1810743133654116
2025-03-30 14:27:03.244,0.806514565063031
2025-03-30 14:27:03.244,-0.09942897434400103
2025-03-30 14:27:03.245,-0.7828784166611326
2025-03-30 14:27:03.254,-0.7794787496654386
2025-03-30 14:27:03.254,-0.22916642923252437
2025-03-30 14:27:03.254,0.3132836083955826
2025-03-30 14:27:03.254,0.4364395308942171
2025-03-30 14:27:03.255,0.24167608370864382
2025-03-30 14:27:03.264,0.10128401609484143
2025-03-30 14:27:03.264,0.1406548112264148
2025-03-30 14:27:03.264,0.10836672291221011
2025-03-30 14:27:03.264,-0.23702727785009947
2025-03-30 14:27:03.264,-0.707847595930994
2025-03-30 14:27:03.274,-0.754285231193361
2025-03-30 14:27:03.274,-0.03835905958412557
2025-03-30 14:27:03.274,1.0445164433209697
2025-03-30 14:27:03.274,1.5155936191326906
2025-03-30 14:27:03.274,0.6656884230002892
2025-03-30 14:27:03.284,-1.0651107482833562
2025-03-30 14:27:03.284,-2.149460099727288
2025-03-30 14:27:03.284,-1.3407673718252542
2025-03-30 14:27:03.284,0.8237009863823356
2025-03-30 14:27:03.285,2.299785240460576
2025-03-30 14:27:03.294,1.663279389086633
2025-03-30 14:27:03.294,-0.35239729211666204
2025-03-30 14:27:03.294,-1.7715952567388613
2025-03-30 14:27:03.294,-1.5133593248489268
2025-03-30 14:27:03.295,-0.22520587801831243
2025-03-30 14:27:03.302,0.7849816406301096
2025-03-30 14:27:03.302,0.9435849614760067
2025-03-30 14:27:03.302,0.6267705874864208
2025-03-30 14:27:03.303,0.3197219638778421
2025-03-30 14:27:03.303,-0.02678818840431996
2025-03-30 14:27:03.314,-0.6531135190746388
2025-03-30 14:27:03.314,-1.2512362641572314
2025-03-30 14:27:03.314,-1.0182910962209477
2025-03-30 14:27:03.314,0.3164281861684064
2025-03-30 14:27:03.314,1.7604207060859824
2025-03-30 14:27:03.322,1.8285536236088749
2025-03-30 14:27:03.322,0.1981520930707068
2025-03-30 14:27:03.323,-1.7162070055374956
2025-03-30 14:27:03.323,-2.118788319517919
2025-03-30 14:27:03.323,-0.663159116261096
2025-03-30 14:27:03.334,1.2406151040710398
2025-03-30 14:27:03.334,1.8796268676356955
2025-03-30 14:27:03.334,0.8705490117035434
2025-03-30 14:27:03.334,-0.641015240855763
2025-03-30 14:27:03.334,-1.2754931734904786
2025-03-30 14:27:03.342,-0.7453214477563621
2025-03-30 14:27:03.342,0.13950396644006127
2025-03-30 14:27:03.343,0.535955373336317
2025-03-30 14:27:03.343,0.36560422088583105
2025-03-30 14:27:03.353,0.1157989305021804
2025-03-30 14:27:03.354,0.11642206237361946
2025-03-30 14:27:03.354,0.17038658966766257
2025-03-30 14:27:03.354,-0.08574690936852884
2025-03-30 14:27:03.354,-0.5614817100379658
2025-03-30 14:27:03.354,-0.6806222750369951
2025-03-30 14:27:03.362,-0.0860374361055387
2025-03-30 14:27:03.362,0.7881595361967114
2025-03-30 14:27:03.362,1.051934944947136
2025-03-30 14:27:03.363,0.2896730188828746
2025-03-30 14:27:03.372,-0.900011288014054
2025-03-30 14:27:03.372,-1.3679399221518207
2025-03-30 14:27:03.372,-0.5343778281577419
2025-03-30 14:27:03.373,0.9278636529088085
2025-03-30 14:27:03.373,1.647743358764386
2025-03-30 14:27:03.373,0.8753037031964205
2025-03-30 14:27:03.382,-0.7615315443120898
2025-03-30 14:27:03.382,-1.8063266756975391
2025-03-30 14:27:03.382,-1.2899493354564242
2025-03-30 14:27:03.383,0.3842205470179542
2025-03-30 14:27:03.392,1.7680891733710546
2025-03-30 14:27:03.392,1.6375151457259378
2025-03-30 14:27:03.392,0.09063371911056019
2025-03-30 14:27:03.393,-1.5190664013381006
2025-03-30 14:27:03.393,-1.7900071619161384
2025-03-30 14:27:03.393,-0.5345356922080944
2025-03-30 14:27:03.402,1.0944184971435444
2025-03-30 14:27:03.402,1.7049167834872028
2025-03-30 14:27:03.402,0.8756277762402407
2025-03-30 14:27:03.403,-0.6005414930774065
2025-03-30 14:27:03.412,-1.4575775291933355
2025-03-30 14:27:03.412,-0.9976406057822261
2025-03-30 14:27:03.412,0.2996214278442775
2025-03-30 14:27:03.413,1.1586424560251865
2025-03-30 14:27:03.413,0.7541253480304384
2025-03-30 14:27:03.422,-0.37620643730572223
2025-03-30 14:27:03.422,-0.9016756004231908
2025-03-30 14:27:03.422,-0.236379146992174
2025-03-30 14:27:03.422,0.7533477574051849
2025-03-30 14:27:03.422,0.7750753013633547
2025-03-30 14:27:03.432,-0.3028145801629635
2025-03-30 14:27:03.432,-1.2187891699236102
2025-03-30 14:27:03.433,-0.7859310582069102
2025-03-30 14:27:03.433,0.6646721405078334
2025-03-30 14:27:03.433,1.5920088929895426
2025-03-30 14:27:03.442,0.9379823827894003
2025-03-30 14:27:03.442,-0.7266939286702649
2025-03-30 14:27:03.442,-1.7981015156792646
2025-03-30 14:27:03.442,-1.247151697188361
2025-03-30 14:27:03.442,0.4269880943434251
2025-03-30 14:27:03.452,1.7435050031585546
2025-03-30 14:27:03.452,1.606928851579724
2025-03-30 14:27:03.452,0.182635703367041
2025-03-30 14:27:03.452,-1.348055327982847
2025-03-30 14:27:03.453,-1.779514423484976
2025-03-30 14:27:03.462,-0.8164726788270633
2025-03-30 14:27:03.462,0.7175790101645563
2025-03-30 14:27:03.462,1.5667409024486783
2025-03-30 14:27:03.462,1.1007964684775664
2025-03-30 14:27:03.462,-0.149551295423184
2025-03-30 14:27:03.472,-1.0080400036678538
2025-03-30 14:27:03.472,-0.8169767204051152
2025-03-30 14:27:03.472,-0.07146503237031845
2025-03-30 14:27:03.472,0.2737161158577948
2025-03-30 14:27:03.473,0.032655202242820675
2025-03-30 14:27:03.482,-0.08038799672819949
2025-03-30 14:27:03.482,0.3965083670118422
2025-03-30 14:27:03.482,0.8954479681439373
2025-03-30 14:27:03.482,0.5343505125551404
2025-03-30 14:27:03.482,-0.6523092385031628
2025-03-30 14:27:03.492,-1.5721544539146934
2025-03-30 14:27:03.492,-1.1955888627349185
2025-03-30 14:27:03.492,0.32430096708847744
2025-03-30 14:27:03.492,1.7119160494649739
2025-03-30 14:27:03.492,1.7387833204786425
2025-03-30 14:27:03.500,0.3524886697979813
2025-03-30 14:27:03.500,-1.2830353854171537
2025-03-30 14:27:03.501,-1.820351855266797
2025-03-30 14:27:03.501,-0.8878086415590065
2025-03-30 14:27:03.501,0.6285477438555586
2025-03-30 14:27:03.512,1.4196488619448797
2025-03-30 14:27:03.512,0.9391232445649754
2025-03-30 14:27:03.512,-0.18044408117940608
2025-03-30 14:27:03.512,-0.8449605227077148
2025-03-30 14:27:03.512,-0.5789347422687544
2025-03-30 14:27:03.520,0.1168298485356091
2025-03-30 14:27:03.521,0.42409899169950216
2025-03-30 14:27:03.521,0.11427963123773843
2025-03-30 14:27:03.521,-0.29507674248039434
2025-03-30 14:27:03.521,-0.23955569938962962
2025-03-30 14:27:03.532,0.21727643142802083
2025-03-30 14:27:03.532,0.49673034267989125
2025-03-30 14:27:03.532,0.20764734266799112
2025-03-30 14:27:03.532,-0.3719480866328155
2025-03-30 14:27:03.533,-0.5835192436300705
2025-03-30 14:27:03.540,-0.17159913599912205
2025-03-30 14:27:03.540,0.36932800140061783
2025-03-30 14:27:03.541,0.4066582749281721
2025-03-30 14:27:03.541,-0.00826342202476106
2025-03-30 14:27:03.541,-0.2420026617093501
2025-03-30 14:27:03.552,0.020840952562380843
2025-03-30 14:27:03.552,0.3344946007028089
2025-03-30 14:27:03.552,0.12306311357928357
2025-03-30 14:27:03.552,-0.46037005044622614
2025-03-30 14:27:03.553,-0.6325407016120973
2025-03-30 14:27:03.560,-0.014230488927488207
2025-03-30 14:27:03.560,0.7316370370253937
2025-03-30 14:27:03.560,0.6417237498974996
2025-03-30 14:27:03.561,-0.2639576449663733
2025-03-30 14:27:03.570,-0.8839953039017668
2025-03-30 14:27:03.570,-0.3793328432380196
2025-03-30 14:27:03.570,0.7203011343684648
2025-03-30 14:27:03.571,1.085579616193652
2025-03-30 14:27:03.571,0.1746049866694077
2025-03-30 14:27:03.571,-1.0826630979068603
2025-03-30 14:27:03.580,-1.320897882484818
2025-03-30 14:27:03.580,-0.2499559753794432
2025-03-30 14:27:03.580,1.0859530562160082
2025-03-30 14:27:03.581,1.4415871122142112
2025-03-30 14:27:03.590,0.5402007013649485
2025-03-30 14:27:03.590,-0.7956535806982211
2025-03-30 14:27:03.590,-1.4220871012158482
2025-03-30 14:27:03.591,-0.817528848913882
2025-03-30 14:27:03.591,0.4759228719782927
2025-03-30 14:27:03.600,1.282369791159079
2025-03-30 14:27:03.600,0.8687976532473991
2025-03-30 14:27:03.600,-0.2862572350987626
2025-03-30 14:27:03.601,-0.9575485279585324
2025-03-30 14:27:03.601,-0.5452050972067362
2025-03-30 14:27:03.610,0.24014053747883884
2025-03-30 14:27:03.610,0.35695087893760813
2025-03-30 14:27:03.610,-0.1459779709098376
2025-03-30 14:27:03.610,-0.2640999835479989
2025-03-30 14:27:03.611,0.4095464689142615
2025-03-30 14:27:03.620,0.9560220008825188
2025-03-30 14:27:03.620,0.3496652525787713
2025-03-30 14:27:03.620,-1.0218606613246561
2025-03-30 14:27:03.620,-1.6304569640424162
2025-03-30 14:27:03.620,-0.5886615599147212
2025-03-30 14:27:03.630,1.2390410031059407
2025-03-30 14:27:03.630,2.0738748492269536
2025-03-30 14:27:03.630,1.0219536966113896
2025-03-30 14:27:03.630,-1.0381426806383427
2025-03-30 14:27:03.631,-2.2558395157521156
2025-03-30 14:27:03.640,-1.5043986367365205
2025-03-30 14:27:03.640,0.553399013948482
2025-03-30 14:27:03.640,2.0656778917800893
2025-03-30 14:27:03.640,1.7573327308004119
2025-03-30 14:27:03.641,0.07480214655766491
2025-03-30 14:27:03.650,-1.4288815289597945
2025-03-30 14:27:03.650,-1.6224078820015397
2025-03-30 14:27:03.650,-0.6169387854159949
2025-03-30 14:27:03.651,0.6115008104126602
2025-03-30 14:27:03.651,1.1230694348584873
2025-03-30 14:27:03.660,0.6967870978627423
2025-03-30 14:27:03.660,-0.08875481673869037
2025-03-30 14:27:03.660,-0.4412955184530361
2025-03-30 14:27:03.660,-0.16332336398504244
2025-03-30 14:27:03.661,0.1478979624751139
2025-03-30 14:27:03.670,-0.13140723043708008
2025-03-30 14:27:03.670,-0.7257538500456012
2025-03-30 14:27:03.670,-0.6593246998513614
2025-03-30 14:27:03.670,0.41674857506488483
2025-03-30 14:27:03.671,1.471534920580504
2025-03-30 14:27:03.680,1.170089780233424
2025-03-30 14:27:03.680,-0.41297008198213936
2025-03-30 14:27:03.680,-1.6921167099000978
2025-03-30 14:27:03.680,-1.3286494223144816
2025-03-30 14:27:03.680,0.2749055107577355
2025-03-30 14:27:03.690,1.4747663825635002
2025-03-30 14:27:03.690,1.167852963078678
2025-03-30 14:27:03.690,-0.18582991622496814
2025-03-30 14:27:03.690,-1.2104539296977879
2025-03-30 14:27:03.691,-1.001531441160167
2025-03-30 14:27:03.700,0.13686219673461256
2025-03-30 14:27:03.700,1.103554304018727
2025-03-30 14:27:03.700,1.0429117754694623
2025-03-30 14:27:03.700,0.06213860679354326
2025-03-30 14:27:03.700,-0.9744143262354991
2025-03-30 14:27:03.710,-1.2419556111035612
2025-03-30 14:27:03.710,-0.5440446797191013
2025-03-30 14:27:03.710,0.6160478063495649
2025-03-30 14:27:03.710,1.3502746222530753
2025-03-30 14:27:03.711,1.0396169805186584
2025-03-30 14:27:03.718,-0.036825095144730195
2025-03-30 14:27:03.718,-0.9264222469882814
2025-03-30 14:27:03.719,-1.0459478216333147
2025-03-30 14:27:03.719,-0.6748296582116843
2025-03-30 14:27:03.719,-0.225347809216667
2025-03-30 14:27:03.730,0.4171318992726545
2025-03-30 14:27:03.730,1.3054232514293203
2025-03-30 14:27:03.730,1.6471726613966569
2025-03-30 14:27:03.730,0.5148699411753118
2025-03-30 14:27:03.730,-1.5707642606264156
2025-03-30 14:27:03.738,-2.604250155785783
2025-03-30 14:27:03.738,-1.2477328852942302
2025-03-30 14:27:03.738,1.3679735497913459
2025-03-30 14:27:03.739,2.6845193349399485
2025-03-30 14:27:03.748,1.505559157011732
2025-03-30 14:27:03.748,-0.8256370550750525
2025-03-30 14:27:03.748,-2.081150122077162
2025-03-30 14:27:03.749,-1.4115295561513483
2025-03-30 14:27:03.749,0.2349391198603249
2025-03-30 14:27:03.758,1.383665353025452
2025-03-30 14:27:03.758,1.2599764518154328
2025-03-30 14:27:03.758,0.10943200562914761
2025-03-30 14:27:03.758,-1.0786974129924387
2025-03-30 14:27:03.758,-1.224744773885602
2025-03-30 14:27:03.768,-0.10900962641447447
2025-03-30 14:27:03.768,1.1949258389723527
2025-03-30 14:27:03.768,1.2731450535653341
2025-03-30 14:27:03.769,-0.044373391244511395
2025-03-30 14:27:03.769,-1.3766515142364113
2025-03-30 14:27:03.778,-1.2936371511231606
2025-03-30 14:27:03.778,0.09409937118389014
2025-03-30 14:27:03.778,1.304519279607013
2025-03-30 14:27:03.778,1.1590958765131365
2025-03-30 14:27:03.779,-0.0028838242021959754
2025-03-30 14:27:03.788,-0.9003881337138449
2025-03-30 14:27:03.788,-0.8237493428055982
2025-03-30 14:27:03.788,-0.19265556145150037
2025-03-30 14:27:03.789,0.29470948881558967
2025-03-30 14:27:03.789,0.49165241518746844
2025-03-30 14:27:03.798,0.5332583419810043
2025-03-30 14:27:03.798,0.26595042113527656
2025-03-30 14:27:03.798,-0.44035584249220694
2025-03-30 14:27:03.798,-1.0113745070610651
2025-03-30 14:27:03.799,-0.5774293053473095
2025-03-30 14:27:03.808,0.7042491780801754
2025-03-30 14:27:03.808,1.4217659357582362
2025-03-30 14:27:03.808,0.5707491055141578
2025-03-30 14:27:03.808,-0.994883658687301
2025-03-30 14:27:03.809,-1.4858095124071284
2025-03-30 14:27:03.818,-0.37140655270811923
2025-03-30 14:27:03.818,1.044484334218635
2025-03-30 14:27:03.818,1.2586681700533884
2025-03-30 14:27:03.818,0.1869852723520249
2025-03-30 14:27:03.819,-0.9894574353073934
2025-03-30 14:27:03.828,-1.1341073249905596
2025-03-30 14:27:03.828,-0.12522285171414552
2025-03-30 14:27:03.828,1.1124073703143469
2025-03-30 14:27:03.828,1.3412357745527865
2025-03-30 14:27:03.829,0.13930141599501045
2025-03-30 14:27:03.838,-1.4261762329536303
2025-03-30 14:27:03.838,-1.6362827300026321
2025-03-30 14:27:03.838,-0.06377856136186012
2025-03-30 14:27:03.839,1.6566087488520127
2025-03-30 14:27:03.839,1.5914441864976798
2025-03-30 14:27:03.848,-0.15234234062915153
2025-03-30 14:27:03.848,-1.534549198452598
2025-03-30 14:27:03.848,-1.0652679197480004
2025-03-30 14:27:03.848,0.47024085437846186
2025-03-30 14:27:03.849,1.1163811310185416
2025-03-30 14:27:03.858,0.1890137652961973
2025-03-30 14:27:03.858,-0.9574962288332959
2025-03-30 14:27:03.858,-0.7038018917151706
2025-03-30 14:27:03.858,0.7500410528602531
2025-03-30 14:27:03.858,1.5743050125622204
2025-03-30 14:27:03.868,0.5530422932324
2025-03-30 14:27:03.868,-1.3592682369477616
2025-03-30 14:27:03.868,-2.056006687081571
2025-03-30 14:27:03.868,-0.6717317760581115
2025-03-30 14:27:03.869,1.4234027484286869
2025-03-30 14:27:03.876,2.126663627491621
2025-03-30 14:27:03.877,0.8448459619037311
2025-03-30 14:27:03.877,-1.0219191384819781
2025-03-30 14:27:03.877,-1.7190396894391438
2025-03-30 14:27:03.877,-0.8905585669651213
2025-03-30 14:27:03.886,0.40091099230605354
2025-03-30 14:27:03.887,1.0287914164984113
2025-03-30 14:27:03.887,0.7894026588621215
2025-03-30 14:27:03.887,0.1679111263186071
2025-03-30 14:27:03.887,-0.3655753109446434
2025-03-30 14:27:03.896,-0.601555225471478
2025-03-30 14:27:03.896,-0.4773455743014657
2025-03-30 14:27:03.896,-0.0792023441652987
2025-03-30 14:27:03.897,0.33998449515027773
2025-03-30 14:27:03.897,0.5409525090482225
2025-03-30 14:27:03.906,0.41537184331871296
2025-03-30 14:27:03.906,-0.059328339532588356
2025-03-30 14:27:03.907,-0.6811527205619898
2025-03-30 14:27:03.907,-0.8635488149983114
2025-03-30 14:27:03.916,-0.12843439843191798
2025-03-30 14:27:03.916,1.0584587985827532
2025-03-30 14:27:03.916,1.4370851390600539
2025-03-30 14:27:03.917,0.32985701544369356
2025-03-30 14:27:03.917,-1.3618660680821066
2025-03-30 14:27:03.926,-1.9350455526862762
2025-03-30 14:27:03.926,-0.7013672150302637
2025-03-30 14:27:03.926,1.2112570084735783
2025-03-30 14:27:03.927,2.027005201575762
2025-03-30 14:27:03.927,1.1434168552061175
2025-03-30 14:27:03.936,-0.45722474834413335
2025-03-30 14:27:03.936,-1.4755496681921256
2025-03-30 14:27:03.936,-1.4853944147089468
2025-03-30 14:27:03.937,-0.7702172875860218
2025-03-30 14:27:03.937,0.3779675698714877
2025-03-30 14:27:03.946,1.6037561166189052
2025-03-30 14:27:03.946,2.061896929087537
2025-03-30 14:27:03.946,0.9255766952891104
2025-03-30 14:27:03.946,-1.3628185495108567
2025-03-30 14:27:03.947,-2.9138163276067117
2025-03-30 14:27:03.956,-2.0838129249296196
2025-03-30 14:27:03.956,0.6757972633061694
2025-03-30 14:27:03.956,3.0148829924801763
2025-03-30 14:27:03.956,2.852073788805838
2025-03-30 14:27:03.957,0.3115153025668319
2025-03-30 14:27:03.966,-2.415662230353801
2025-03-30 14:27:03.966,-3.0546512465780298
2025-03-30 14:27:03.966,-1.2104807995623754
2025-03-30 14:27:03.966,1.422458229742174
2025-03-30 14:27:03.967,2.666233434168956
2025-03-30 14:27:03.976,1.7049756491014507
2025-03-30 14:27:03.976,-0.43233142834237925
2025-03-30 14:27:03.976,-1.9359091275403444
2025-03-30 14:27:03.976,-1.727576551603522
2025-03-30 14:27:03.977,-0.20611502315434949
2025-03-30 14:27:03.986,1.2249334954212558
2025-03-30 14:27:03.986,1.3910241411028634
2025-03-30 14:27:03.986,0.3406999890641747
2025-03-30 14:27:03.986,-0.7749250347326274
2025-03-30 14:27:03.987,-0.8921052061673999
2025-03-30 14:27:03.996,-0.10902937456117132
2025-03-30 14:27:03.996,0.5643068318149402
2025-03-30 14:27:03.996,0.45798254960276596
2025-03-30 14:27:03.996,-0.09343673042237166
2025-03-30 14:27:03.996,-0.39611549567319143
2025-03-30 14:27:04.006,-0.27721351900764674
2025-03-30 14:27:04.006,-0.0363838072443609
2025-03-30 14:27:04.006,0.15449408692817662
2025-03-30 14:27:04.006,0.3493354746340141
2025-03-30 14:27:04.007,0.4291736062818798
2025-03-30 14:27:04.016,0.11253414631081335
2025-03-30 14:27:04.016,-0.4855931094503026
2025-03-30 14:27:04.016,-0.7383385494015076
2025-03-30 14:27:04.016,-0.2734172944379666
2025-03-30 14:27:04.017,0.4413617458036546
2025-03-30 14:27:04.026,0.6480177124464475
2025-03-30 14:27:04.026,0.24339207738520402
2025-03-30 14:27:04.026,-0.1875503378376738
2025-03-30 14:27:04.026,-0.19225206779400733
2025-03-30 14:27:04.027,0.030258403070872804
2025-03-30 14:27:04.036,0.003228171115798928
2025-03-30 14:27:04.036,-0.3303545540322168
2025-03-30 14:27:04.036,-0.4918871908303047
2025-03-30 14:27:04.036,-0.09540356810023327
2025-03-30 14:27:04.037,0.5819665355719243
2025-03-30 14:27:04.044,0.8551496356867033
2025-03-30 14:27:04.044,0.4046337208740885
2025-03-30 14:27:04.045,-0.38260716561467834
2025-03-30 14:27:04.045,-0.8384458446667092
2025-03-30 14:27:04.045,-0.6492667820793725
2025-03-30 14:27:04.056,-0.0618273942671553
2025-03-30 14:27:04.056,0.4307666548333617
2025-03-30 14:27:04.056,0.5301047564121836
2025-03-30 14:27:04.056,0.29833766157214797
2025-03-30 14:27:04.057,0.00955629350203447
2025-03-30 14:27:04.064,-0.10461248917142231
2025-03-30 14:27:04.065,-0.048097670603882224
2025-03-30 14:27:04.065,-0.048080054518433356
2025-03-30 14:27:04.065,-0.2584979552877467
2025-03-30 14:27:04.065,-0.47604875554777615
2025-03-30 14:27:04.076,-0.3216320475879685
2025-03-30 14:27:04.076,0.24764514974602375
2025-03-30 14:27:04.076,0.7743139241763396
2025-03-30 14:27:04.076,0.7485752193133534
2025-03-30 14:27:04.076,0.1389697919897591
2025-03-30 14:27:04.084,-0.5892987423561864
2025-03-30 14:27:04.084,-0.9130223146673091
2025-03-30 14:27:04.085,-0.637286551488851
2025-03-30 14:27:04.085,0.04854460656701254
2025-03-30 14:27:04.085,0.7145244630716526
2025-03-30 14:27:04.094,0.918801947037606
2025-03-30 14:27:04.095,0.5132346104693623
2025-03-30 14:27:04.095,-0.21280708523631872
2025-03-30 14:27:04.095,-0.7782483966041337
2025-03-30 14:27:04.095,-0.854150652248673
2025-03-30 14:27:04.104,-0.36743164021706776
2025-03-30 14:27:04.104,0.4348991396728393
2025-03-30 14:27:04.104,0.9219148653186683
2025-03-30 14:27:04.105,0.5417388817169776
2025-03-30 14:27:04.114,-0.3738558526167093
2025-03-30 14:27:04.114,-0.7437099198264705
2025-03-30 14:27:04.115,-0.07920669381363912
2025-03-30 14:27:04.115,0.7373820346853632
2025-03-30 14:27:04.115,0.5400959408910727
2025-03-30 14:27:04.115,-0.5437629286008915
2025-03-30 14:27:04.124,-1.2036982459655048
2025-03-30 14:27:04.125,-0.5805593904524426
2025-03-30 14:27:04.125,0.730591718036275
2025-03-30 14:27:04.125,1.4195804088082258
2025-03-30 14:27:04.134,0.8348110920940516
2025-03-30 14:27:04.134,-0.49195296436293195
2025-03-30 14:27:04.135,-1.3945118754392598
2025-03-30 14:27:04.135,-1.06245731207919
2025-03-30 14:27:04.135,0.23298831098520817
2025-03-30 14:27:04.135,1.3027313904692384
2025-03-30 14:27:04.144,1.13844859823715
2025-03-30 14:27:04.144,-0.07432383782830208
2025-03-30 14:27:04.145,-1.151955605042186
2025-03-30 14:27:04.145,-1.1126945147180176
2025-03-30 14:27:04.154,-0.09194832044792366
2025-03-30 14:27:04.154,0.8929401049908658
2025-03-30 14:27:04.155,0.9766130841199778
2025-03-30 14:27:04.155,0.22021281055284572
2025-03-30 14:27:04.155,-0.5733699665441743
2025-03-30 14:27:04.164,-0.7069392342866652
2025-03-30 14:27:04.164,-0.20776260809732855
2025-03-30 14:27:04.164,0.32073577302659145
2025-03-30 14:27:04.164,0.3751329317187006
2025-03-30 14:27:04.165,0.04820235689818767
2025-03-30 14:27:04.174,-0.1795753602149126
2025-03-30 14:27:04.174,-0.08012676549717684
2025-03-30 14:27:04.174,0.10422536826264782
2025-03-30 14:27:04.175,0.11485722129220526
2025-03-30 14:27:04.175,0.027276019167734845
2025-03-30 14:27:04.184,-0.023499409171475458
2025-03-30 14:27:04.184,-0.13237611602485289
2025-03-30 14:27:04.184,-0.3369052629858626
2025-03-30 14:27:04.184,-0.32039105945447083
2025-03-30 14:27:04.185,0.16871336899096082
2025-03-30 14:27:04.194,0.7356172734782852
2025-03-30 14:27:04.194,0.6731624531007973
2025-03-30 14:27:04.194,-0.07445280218538229
2025-03-30 14:27:04.195,-0.7500134922979752
2025-03-30 14:27:04.195,-0.7403308564526269
2025-03-30 14:27:04.204,-0.24547028345222868
2025-03-30 14:27:04.204,0.22061853387627434
2025-03-30 14:27:04.204,0.5061997189769789
2025-03-30 14:27:04.205,0.6498076750380982
2025-03-30 14:27:04.205,0.4744424930687382
2025-03-30 14:27:04.214,-0.14197989820729556
2025-03-30 14:27:04.214,-0.7974264357520864
2025-03-30 14:27:04.214,-0.8503043369352905
2025-03-30 14:27:04.215,-0.20196106973353822
2025-03-30 14:27:04.215,0.5289309600137521
2025-03-30 14:27:04.224,0.724249643731692
2025-03-30 14:27:04.224,0.4098907186297373
2025-03-30 14:27:04.224,0.012814842742422762
2025-03-30 14:27:04.224,-0.2593383135227493
2025-03-30 14:27:04.225,-0.4595816925391933
2025-03-30 14:27:04.234,-0.49464659341393535
2025-03-30 14:27:04.234,-0.14602743743380334
2025-03-30 14:27:04.234,0.4352733806396176
2025-03-30 14:27:04.235,0.6504263525451759
2025-03-30 14:27:04.235,0.15182932976059577
2025-03-30 14:27:04.244,-0.5423152609765084
2025-03-30 14:27:04.244,-0.522428812888709
2025-03-30 14:27:04.244,0.30626380234025696
2025-03-30 14:27:04.244,0.8937259072664725
2025-03-30 14:27:04.245,0.3211778626358911
2025-03-30 14:27:04.254,-0.8788778106796751
2025-03-30 14:27:04.254,-1.2676049103221374
2025-03-30 14:27:04.254,-0.2967273208963452
2025-03-30 14:27:04.254,1.0271638409165782
2025-03-30 14:27:04.255,1.3820326719915204
2025-03-30 14:27:04.264,0.5500151171346779
2025-03-30 14:27:04.264,-0.6042260937512693
2025-03-30 14:27:04.264,-1.1702710019591573
2025-03-30 14:27:04.264,-0.8780246489584592
2025-03-30 14:27:04.265,-0.034381515357642875
2025-03-30 14:27:04.274,0.7669135894712684
2025-03-30 14:27:04.274,0.9578927487636442
2025-03-30 14:27:04.274,0.44714013375391193
2025-03-30 14:27:04.274,-0.2331298327701654
2025-03-30 14:27:04.275,-0.5368206992449015
2025-03-30 14:27:04.284,-0.5334928224865311
2025-03-30 14:27:04.284,-0.5503018111640648
2025-03-30 14:27:04.284,-0.40455484776861006
2025-03-30 14:27:04.284,0.37157641720747736
2025-03-30 14:27:04.284,1.4780945991607035
2025-03-30 14:27:04.294,1.6596008968659803
2025-03-30 14:27:04.294,0.09578961612675538
2025-03-30 14:27:04.294,-2.174930868500755
2025-03-30 14:27:04.294,-2.8511856720422473
2025-03-30 14:27:04.294,-0.8093360651254418
2025-03-30 14:27:04.302,2.3076399185335035
2025-03-30 14:27:04.302,3.4967615781347194
2025-03-30 14:27:04.303,1.5028214028810873
2025-03-30 14:27:04.303,-1.8078077843807545
2025-03-30 14:27:04.312,-3.343372801281944
2025-03-30 14:27:04.312,-1.8730881423527133
2025-03-30 14:27:04.313,0.9471281985687707
2025-03-30 14:27:04.313,2.4901376732052154
2025-03-30 14:27:04.313,1.7505258978770752
2025-03-30 14:27:04.313,-0.09264531383284905
2025-03-30 14:27:04.322,-1.2989727870786203
2025-03-30 14:27:04.322,-1.2360864403228764
2025-03-30 14:27:04.323,-0.4760293435164137
2025-03-30 14:27:04.323,0.21484217613721865
2025-03-30 14:27:04.332,0.5783203896651755
2025-03-30 14:27:04.332,0.677969958785259
2025-03-30 14:27:04.332,0.4672182409626785
2025-03-30 14:27:04.333,-0.10269023827066733
2025-03-30 14:27:04.333,-0.6728603897570954
2025-03-30 14:27:04.342,-0.6494877639871232
2025-03-30 14:27:04.342,0.03381948696251954
2025-03-30 14:27:04.342,0.657860894431653
2025-03-30 14:27:04.343,0.5045171374131905
2025-03-30 14:27:04.343,-0.25692446842639916
2025-03-30 14:27:04.352,-0.7356949949455276
2025-03-30 14:27:04.352,-0.35046248015804515
2025-03-30 14:27:04.353,0.5059060771967975
2025-03-30 14:27:04.353,0.9012885198415891
2025-03-30 14:27:04.353,0.3583749251185046
2025-03-30 14:27:04.362,-0.6469027045746354
2025-03-30 14:27:04.362,-1.1209415324465948
2025-03-30 14:27:04.362,-0.5022969557650675
2025-03-30 14:27:04.362,0.7101940842089639
2025-03-30 14:27:04.363,1.328388341761416
2025-03-30 14:27:04.372,0.6575531092754715
2025-03-30 14:27:04.372,-0.7018970909897717
2025-03-30 14:27:04.372,-1.4012843478675026
2025-03-30 14:27:04.373,-0.7223915613214251
2025-03-30 14:27:04.373,0.6557560612741764
2025-03-30 14:27:04.382,1.3041601435677213
2025-03-30 14:27:04.382,0.5381064220873149
2025-03-30 14:27:04.382,-0.7506459747270104
2025-03-30 14:27:04.383,-1.030157869320225
2025-03-30 14:27:04.383,0.011383906242965564
2025-03-30 14:27:04.392,0.994287374915258
2025-03-30 14:27:04.392,0.5874890095920651
2025-03-30 14:27:04.393,-0.7115672432352746
2025-03-30 14:27:04.393,-1.1826338578118405
2025-03-30 14:27:04.393,-0.13492771630255798
2025-03-30 14:27:04.402,1.1941499107822044
2025-03-30 14:27:04.402,1.245829341609761
2025-03-30 14:27:04.402,0.017244732578632904
2025-03-30 14:27:04.402,-1.1787438104149215
2025-03-30 14:27:04.403,-1.3580010459667027
2025-03-30 14:27:04.412,-0.5899028699407665
2025-03-30 14:27:04.412,0.5888470436777148
2025-03-30 14:27:04.412,1.6056436710959106
2025-03-30 14:27:04.413,1.7144026390115243
2025-03-30 14:27:04.413,0.37480409891887156
2025-03-30 14:27:04.422,-1.7336482268412585
2025-03-30 14:27:04.422,-2.702615751406913
2025-03-30 14:27:04.422,-1.2498927322574158
2025-03-30 14:27:04.422,1.4873124691528827
2025-03-30 14:27:04.423,2.827670600070136
2025-03-30 14:27:04.432,1.5072637390541774
2025-03-30 14:27:04.432,-0.8896882059572961
2025-03-30 14:27:04.432,-1.9019734308191296
2025-03-30 14:27:04.432,-0.99456452683544
2025-03-30 14:27:04.433,0.27732131952510786
2025-03-30 14:27:04.442,0.5182673132716004
2025-03-30 14:27:04.442,0.018318467409298725
2025-03-30 14:27:04.442,-0.10232167819179924
2025-03-30 14:27:04.443,0.4522234968592931
2025-03-30 14:27:04.443,0.9161217183341624
2025-03-30 14:27:04.452,0.5836668839985446
2025-03-30 14:27:04.452,-0.42579515372804394
2025-03-30 14:27:04.452,-1.42982944649021
2025-03-30 14:27:04.453,-1.6509794447142758
2025-03-30 14:27:04.453,-0.562633342704189
2025-03-30 14:27:04.462,1.4541230068269237
2025-03-30 14:27:04.462,2.7750407953550744
2025-03-30 14:27:04.462,1.7978451380261735
2025-03-30 14:27:04.462,-1.0278306148603473
2025-03-30 14:27:04.463,-3.139636748372126
2025-03-30 14:27:04.472,-2.455015791456513
2025-03-30 14:27:04.472,0.3110826822492636
2025-03-30 14:27:04.472,2.451006433977642
2025-03-30 14:27:04.473,2.1940437490878364
2025-03-30 14:27:04.473,0.3030465266845962
2025-03-30 14:27:04.480,-1.1967693231854162
2025-03-30 14:27:04.481,-1.2583906319792533
2025-03-30 14:27:04.481,-0.4744193299033601
2025-03-30 14:27:04.481,0.095902508430583
2025-03-30 14:27:04.492,0.1857012935629878
2025-03-30 14:27:04.492,0.25790353290942203
2025-03-30 14:27:04.492,0.521075562455814
2025-03-30 14:27:04.492,0.529404137781277
2025-03-30 14:27:04.492,-0.04732134531679924
2025-03-30 14:27:04.493,-0.7060248535571059
2025-03-30 14:27:04.500,-0.673378063396401
2025-03-30 14:27:04.500,0.025430507529782723
2025-03-30 14:27:04.501,0.6002730900518801
2025-03-30 14:27:04.501,0.516416046560033
2025-03-30 14:27:04.510,-0.001812149871491607
2025-03-30 14:27:04.511,-0.4441642798455024
2025-03-30 14:27:04.511,-0.5243280399075556
2025-03-30 14:27:04.511,-0.1894548356245536
2025-03-30 14:27:04.511,0.4206005803015956
2025-03-30 14:27:04.511,0.8483207806219705
2025-03-30 14:27:04.520,0.5383889385417961
2025-03-30 14:27:04.520,-0.46715128436327047
2025-03-30 14:27:04.521,-1.2543787129950787
2025-03-30 14:27:04.521,-0.889416595120087
2025-03-30 14:27:04.530,0.4258135287182912
2025-03-30 14:27:04.530,1.4002443538597091
2025-03-30 14:27:04.531,1.0286008962192994
2025-03-30 14:27:04.531,-0.27767970533870867
2025-03-30 14:27:04.531,-1.1546483624323838
2025-03-30 14:27:04.531,-0.8159164263587507
2025-03-30 14:27:04.540,0.15707237342096897
2025-03-30 14:27:04.540,0.6581137949173508
2025-03-30 14:27:04.541,0.3672884881550386
2025-03-30 14:27:04.541,-0.12391665196521812
2025-03-30 14:27:04.550,-0.2592146115519167
2025-03-30 14:27:04.550,-0.07475690844551969
2025-03-30 14:27:04.551,0.14113043066035327
2025-03-30 14:27:04.551,0.2407862173507964
2025-03-30 14:27:04.551,0.16367858408313096
2025-03-30 14:27:04.551,-0.12710153263829782
2025-03-30 14:27:04.560,-0.46560376294123734
2025-03-30 14:27:04.560,-0.47778026964946685
2025-03-30 14:27:04.561,0.003432889474677823
2025-03-30 14:27:04.561,0.5965800994124779
2025-03-30 14:27:04.570,0.6898053988350116
2025-03-30 14:27:04.570,0.1509042815460232
2025-03-30 14:27:04.571,-0.4783662597667985
2025-03-30 14:27:04.571,-0.5963564259006082
2025-03-30 14:27:04.571,-0.19221173537836664
2025-03-30 14:27:04.580,0.2298029017826792
2025-03-30 14:27:04.580,0.2705662115360048
2025-03-30 14:27:04.580,0.05138151229143816
2025-03-30 14:27:04.581,-0.025296141483728787
2025-03-30 14:27:04.581,0.13526605857966062
2025-03-30 14:27:04.590,0.18008259986411498
2025-03-30 14:27:04.591,-0.11973971013881402
2025-03-30 14:27:04.591,-0.42884935912416416
2025-03-30 14:27:04.591,-0.29636552663805976
2025-03-30 14:27:04.591,0.15659956604368477
2025-03-30 14:27:04.600,0.4013561379369809
2025-03-30 14:27:04.600,0.24808443153291634
2025-03-30 14:27:04.600,0.0041686162747584694
2025-03-30 14:27:04.601,-0.09789574503692153
2025-03-30 14:27:04.601,-0.18289216458915505
2025-03-30 14:27:04.610,-0.31366189247033754
2025-03-30 14:27:04.611,-0.2186855024488568
2025-03-30 14:27:04.611,0.24237375547176251
2025-03-30 14:27:04.611,0.6355463750419921
2025-03-30 14:27:04.611,0.3994968657598177
2025-03-30 14:27:04.620,-0.359660258259655
2025-03-30 14:27:04.620,-0.8777958630753822
2025-03-30 14:27:04.620,-0.5662053779456536
2025-03-30 14:27:04.621,0.34742124454479373
2025-03-30 14:27:04.621,1.0260878929897772
2025-03-30 14:27:04.630,0.821585218607585
2025-03-30 14:27:04.630,-0.0983497831826613
2025-03-30 14:27:04.630,-0.9293360047640536
2025-03-30 14:27:04.631,-1.034482337896577
2025-03-30 14:27:04.631,-0.44682773722155594
2025-03-30 14:27:04.640,0.384504340623085
2025-03-30 14:27:04.640,1.0223176436269608
2025-03-30 14:27:04.640,1.1243842886882858
2025-03-30 14:27:04.641,0.4914125335320636
2025-03-30 14:27:04.641,-0.6364584210585779
2025-03-30 14:27:04.650,-1.4872422688771658
2025-03-30 14:27:04.650,-1.3075780076537917
2025-03-30 14:27:04.651,-0.11696744312746876
2025-03-30 14:27:04.651,1.2049307518475658
2025-03-30 14:27:04.651,1.6684530798245731
2025-03-30 14:27:04.660,0.97856004122072
2025-03-30 14:27:04.660,-0.3512322647746536
2025-03-30 14:27:04.660,-1.453190337406093
2025-03-30 14:27:04.661,-1.6065894678665376
2025-03-30 14:27:04.661,-0.6289960145693344
2025-03-30 14:27:04.670,0.8743327658003341
2025-03-30 14:27:04.670,1.7563995086984332
2025-03-30 14:27:04.670,1.2276896372958934
2025-03-30 14:27:04.671,-0.29347779849228034
2025-03-30 14:27:04.671,-1.4152345726600895
2025-03-30 14:27:04.680,-1.133208943273714
2025-03-30 14:27:04.680,0.07323717093960933
2025-03-30 14:27:04.680,0.7993630899519273
2025-03-30 14:27:04.680,0.3949952903248349
2025-03-30 14:27:04.680,-0.32315851120050676
2025-03-30 14:27:04.690,-0.2554122711353549
2025-03-30 14:27:04.690,0.4930937504476915
2025-03-30 14:27:04.690,0.796895842403391
2025-03-30 14:27:04.691,0.060127691296140165
2025-03-30 14:27:04.691,-0.9610072304069837
2025-03-30 14:27:04.700,-1.104968182730465
2025-03-30 14:27:04.700,-0.21184755942447014
2025-03-30 14:27:04.700,0.7922612471966414
2025-03-30 14:27:04.700,1.032394415188917
2025-03-30 14:27:04.700,0.4888881127733639
2025-03-30 14:27:04.710,-0.2603071470557159
2025-03-30 14:27:04.710,-0.6677859240435101
2025-03-30 14:27:04.710,-0.5409705423426304
2025-03-30 14:27:04.710,-0.09216368716275591
2025-03-30 14:27:04.711,0.2245635361688526
2025-03-30 14:27:04.720,0.14293373601584428
2025-03-30 14:27:04.720,-0.0831027792576783
2025-03-30 14:27:04.720,0.03881159853574461
2025-03-30 14:27:04.720,0.5364892082051629
2025-03-30 14:27:04.721,0.7441056400450088
2025-03-30 14:27:04.730,0.05061460874410375
2025-03-30 14:27:04.730,-1.1307830403800838
2025-03-30 14:27:04.730,-1.5192003057360774
2025-03-30 14:27:04.730,-0.3910327956406108
2025-03-30 14:27:04.731,1.354396389831841
2025-03-30 14:27:04.740,1.9682060322422767
2025-03-30 14:27:04.740,0.7425024898797631
2025-03-30 14:27:04.740,-1.1627849143212632
2025-03-30 14:27:04.740,-1.927556452446234
2025-03-30 14:27:04.741,-0.9308395350827987
2025-03-30 14:27:04.750,0.7547332011429126
2025-03-30 14:27:04.750,1.5718404445248721
2025-03-30 14:27:04.750,0.9391998166534112
2025-03-30 14:27:04.751,-0.4039662164886842
2025-03-30 14:27:04.751,-1.1995075900956351
2025-03-30 14:27:04.760,-0.7864557496598032
2025-03-30 14:27:04.760,0.3286141872079836
2025-03-30 14:27:04.760,0.9568229586300432
2025-03-30 14:27:04.760,0.4514799688383698
2025-03-30 14:27:04.761,-0.5617533864217746
2025-03-30 14:27:04.770,-0.8652964803166845
2025-03-30 14:27:04.770,-0.055356388965604825
2025-03-30 14:27:04.770,0.9518233753368003
2025-03-30 14:27:04.770,0.9405031746293713
2025-03-30 14:27:04.771,-0.19879075434268867
2025-03-30 14:27:04.778,-1.286960777781021
2025-03-30 14:27:04.779,-1.1200628880030394
2025-03-30 14:27:04.779,0.2254973708025942
2025-03-30 14:27:04.779,1.4388389963725174
2025-03-30 14:27:04.779,1.286149393455045
2025-03-30 14:27:04.790,-0.1245427123231332
2025-03-30 14:27:04.790,-1.3912809181773749
2025-03-30 14:27:04.790,-1.2494192871132221
2025-03-30 14:27:04.790,0.05745298732973332
2025-03-30 14:27:04.791,1.087744742919079
2025-03-30 14:27:04.798,0.8833455305125427
2025-03-30 14:27:04.799,-0.06020755464726886
2025-03-30 14:27:04.799,-0.6186193026348961
2025-03-30 14:27:04.799,-0.37102029421653826
2025-03-30 14:27:04.808,0.18369359838765378
2025-03-30 14:27:04.809,0.39053344106309085
2025-03-30 14:27:04.809,0.04952533779000169
2025-03-30 14:27:04.809,-0.5318838149504298
2025-03-30 14:27:04.809,-0.7542222704818693
2025-03-30 14:27:04.809,-0.1559648160376263
2025-03-30 14:27:04.818,0.9858731560742324
2025-03-30 14:27:04.819,1.585406647858015
2025-03-30 14:27:04.819,0.7429529677141938
2025-03-30 14:27:04.819,-1.0979457784140056
2025-03-30 14:27:04.828,-2.3270893331103997
2025-03-30 14:27:04.828,-1.6791439894183244
2025-03-30 14:27:04.829,0.5017654021826098
2025-03-30 14:27:04.829,2.4778414177479227
2025-03-30 14:27:04.829,2.567586494916363
2025-03-30 14:27:04.829,0.601691004610257
2025-03-30 14:27:04.838,-1.8618428069225903
2025-03-30 14:27:04.838,-2.848760817964235
2025-03-30 14:27:04.839,-1.6550233742808844
2025-03-30 14:27:04.839,0.6547934435964471
2025-03-30 14:27:04.848,2.276983904877271
2025-03-30 14:27:04.848,2.1505273670154943
2025-03-30 14:27:04.849,0.6280580635955682
2025-03-30 14:27:04.849,-1.0516904444516846
2025-03-30 14:27:04.849,-1.8355932117953957
2025-03-30 14:27:04.858,-1.4718466397365069
2025-03-30 14:27:04.858,-0.35582012598890034
2025-03-30 14:27:04.859,0.8789144801521963
2025-03-30 14:27:04.859,1.602215740714233
2025-03-30 14:27:04.859,1.3881521329872797
2025-03-30 14:27:04.868,0.28841067382751306
2025-03-30 14:27:04.868,-1.0641135783301063
2025-03-30 14:27:04.869,-1.7559936613641602
2025-03-30 14:27:04.869,-1.2105598229897208
2025-03-30 14:27:04.869,0.2733888337867222
2025-03-30 14:27:04.878,1.5770645245188433
2025-03-30 14:27:04.878,1.5941653682408565
2025-03-30 14:27:04.879,0.2655225379566246
2025-03-30 14:27:04.879,-1.2132138777012704
2025-03-30 14:27:04.879,-1.4529173893607523
2025-03-30 14:27:04.888,-0.2960488258042685
2025-03-30 14:27:04.889,0.9673424543926348
2025-03-30 14:27:04.889,1.0023843045513152
2025-03-30 14:27:04.889,-0.07846297363538365
2025-03-30 14:27:04.889,-0.9026969084921281
2025-03-30 14:27:04.898,-0.49519014116057786
2025-03-30 14:27:04.898,0.5797960192113096
2025-03-30 14:27:04.899,0.9483122312120994
2025-03-30 14:27:04.899,0.11703430631157388
2025-03-30 14:27:04.899,-0.9476575064565405
2025-03-30 14:27:04.908,-1.0147382216727483
2025-03-30 14:27:04.909,-0.01103682366060784
2025-03-30 14:27:04.909,1.005281888725421
2025-03-30 14:27:04.909,1.0628143447317717
2025-03-30 14:27:04.909,0.18451859699423512
2025-03-30 14:27:04.918,-0.7921539914746188
2025-03-30 14:27:04.918,-1.0397200467669006
2025-03-30 14:27:04.918,-0.4117303291952069
2025-03-30 14:27:04.919,0.5022007814128101
2025-03-30 14:27:04.919,0.901506032813936
2025-03-30 14:27:04.928,0.45801113949408784
2025-03-30 14:27:04.928,-0.36963125289212384
2025-03-30 14:27:04.929,-0.7235039403777572
2025-03-30 14:27:04.929,-0.22705999912994612
2025-03-30 14:27:04.929,0.525050734251704
2025-03-30 14:27:04.938,0.5937176917768949
2025-03-30 14:27:04.938,-0.15774706991966536
2025-03-30 14:27:04.938,-0.8326835209273048
2025-03-30 14:27:04.939,-0.5596299785274149
2025-03-30 14:27:04.939,0.4361613091498147
2025-03-30 14:27:04.948,1.0566764317136177
2025-03-30 14:27:04.948,0.5900993547895175
2025-03-30 14:27:04.948,-0.47976785748219186
2025-03-30 14:27:04.949,-1.0469947377639806
2025-03-30 14:27:04.949,-0.6025554389770018
2025-03-30 14:27:04.958,0.32975625186120533
2025-03-30 14:27:04.958,0.8525070180802099
2025-03-30 14:27:04.959,0.5443351429217225
2025-03-30 14:27:04.959,-0.24072076737064593
2025-03-30 14:27:04.959,-0.6908368281319451
2025-03-30 14:27:04.968,-0.2916226353736613
2025-03-30 14:27:04.968,0.5245704632126512
2025-03-30 14:27:04.969,0.704134740242246
2025-03-30 14:27:04.969,-0.16445808430774067
2025-03-30 14:27:04.969,-1.137301635181674
2025-03-30 14:27:04.978,-0.9050173367467892
2025-03-30 14:27:04.978,0.5376017797393198
2025-03-30 14:27:04.978,1.682660793663166
2025-03-30 14:27:04.979,1.1921439414026052
2025-03-30 14:27:04.979,-0.52971951069717
2025-03-30 14:27:04.988,-1.7779041142568588
2025-03-30 14:27:04.988,-1.3971835568874749
2025-03-30 14:27:04.989,0.1284417755619468
2025-03-30 14:27:04.989,1.3528328997580739
2025-03-30 14:27:04.989,1.326328078501609
2025-03-30 14:27:04.998,0.34122619034887924
2025-03-30 14:27:04.998,-0.5813140481693091
2025-03-30 14:27:04.998,-0.7928060072578328
2025-03-30 14:27:04.998,-0.5186635948842272
2025-03-30 14:27:04.999,-0.2880144895984311
2025-03-30 14:27:05.008,-0.13779404569641046
2025-03-30 14:27:05.008,0.30474930506044234
2025-03-30 14:27:05.009,0.997444858303913
2025-03-30 14:27:05.009,1.1607625142143942
2025-03-30 14:27:05.009,0.15207162587366038
2025-03-30 14:27:05.016,-1.420194844819257
2025-03-30 14:27:05.017,-1.9617811966086267
2025-03-30 14:27:05.017,-0.6202682926452947
2025-03-30 14:27:05.017,1.5060187792528448
2025-03-30 14:27:05.017,2.336024459507747
2025-03-30 14:27:05.026,0.9914062567184663
2025-03-30 14:27:05.027,-1.264310407824213
2025-03-30 14:27:05.027,-2.308979901983589
2025-03-30 14:27:05.027,-1.2302791141886942
2025-03-30 14:27:05.036,0.8724055447160837
2025-03-30 14:27:05.036,2.011358596265474
2025-03-30 14:27:05.037,1.2251280773015536
2025-03-30 14:27:05.037,-0.542476305908936
2025-03-30 14:27:05.037,-1.4773989512478394
2025-03-30 14:27:05.046,-0.8215558534658247
2025-03-30 14:27:05.047,0.40038254238775095
2025-03-30 14:27:05.047,0.7203689668929975
2025-03-30 14:27:05.047,0.016930799783789488
2025-03-30 14:27:05.047,-0.48670683553296806
2025-03-30 14:27:05.056,0.05261596342213147
2025-03-30 14:27:05.056,0.9392366664553159
2025-03-30 14:27:05.057,0.8108779874617207
2025-03-30 14:27:05.057,-0.5677904314853033
2025-03-30 14:27:05.057,-1.7799412774678514
2025-03-30 14:27:05.066,-1.2593856584522922
2025-03-30 14:27:05.066,0.7682246411513124
2025-03-30 14:27:05.066,2.267090919548638
2025-03-30 14:27:05.067,1.5841675571480816
2025-03-30 14:27:05.067,-0.6467838506682546
2025-03-30 14:27:05.076,-2.1906292321065344
2025-03-30 14:27:05.076,-1.6380550325167484
2025-03-30 14:27:05.077,0.24713523298148712
2025-03-30 14:27:05.077,1.5722597564189802
2025-03-30 14:27:05.077,1.328905717440407
2025-03-30 14:27:05.086,0.16490643315558748
2025-03-30 14:27:05.086,-0.6542523936287681
2025-03-30 14:27:05.087,-0.6499311557058252
2025-03-30 14:27:05.087,-0.3168115656270739
2025-03-30 14:27:05.087,-0.1993613293492417
2025-03-30 14:27:05.096,-0.20638678990422218
2025-03-30 14:27:05.096,0.09224078173304573
2025-03-30 14:27:05.097,0.727515390394002
2025-03-30 14:27:05.097,1.0801342891925176
2025-03-30 14:27:05.097,0.46172791675622166
2025-03-30 14:27:05.106,-0.9653713414828488
2025-03-30 14:27:05.106,-1.936151979958324
2025-03-30 14:27:05.107,-1.1458182526693046
2025-03-30 14:27:05.107,1.1098310798339235
2025-03-30 14:27:05.107,2.6730616503212308
2025-03-30 14:27:05.116,1.6289802701771725
2025-03-30 14:27:05.116,-1.2490430638640837
2025-03-30 14:27:05.117,-2.9678505458479956
2025-03-30 14:27:05.117,-1.6617578856324446
2025-03-30 14:27:05.117,1.2068593903638956
2025-03-30 14:27:05.125,2.602438356341302
2025-03-30 14:27:05.125,1.3540622080190792
2025-03-30 14:27:05.125,-0.8838879845897069
2025-03-30 14:27:05.125,-1.8276152911410122
2025-03-30 14:27:05.125,-0.9395751707182655
2025-03-30 14:27:05.135,0.49429693799376834
2025-03-30 14:27:05.135,1.0552448490469446
2025-03-30 14:27:05.135,0.5219620405736991
2025-03-30 14:27:05.135,-0.2868009201847111
2025-03-30 14:27:05.135,-0.5421034328064954
2025-03-30 14:27:05.144,-0.1446578285255018
2025-03-30 14:27:05.145,0.3463695472422458
2025-03-30 14:27:05.145,0.35052737467112627
2025-03-30 14:27:05.145,-0.14403759210747388
2025-03-30 14:27:05.154,-0.5745778482855903
2025-03-30 14:27:05.154,-0.3918880051083471
2025-03-30 14:27:05.155,0.323688572272942
2025-03-30 14:27:05.155,0.8456367888868873
2025-03-30 14:27:05.155,0.5094867561155356
2025-03-30 14:27:05.164,-0.4710590268476462
2025-03-30 14:27:05.164,-1.0663071494994092
2025-03-30 14:27:05.164,-0.5514122815381849
2025-03-30 14:27:05.165,0.5774774935259199
2025-03-30 14:27:05.165,1.1315224761521419
2025-03-30 14:27:05.174,0.5741657573740933
2025-03-30 14:27:05.174,-0.49635221531943036
2025-03-30 14:27:05.175,-1.1091264948848214
2025-03-30 14:27:05.175,-0.7952406051737065
2025-03-30 14:27:05.175,0.21676666006714645
2025-03-30 14:27:05.184,1.207541608073659
2025-03-30 14:27:05.184,1.297979006930054
2025-03-30 14:27:05.184,0.1145165713737096
2025-03-30 14:27:05.185,-1.5082556829363496
2025-03-30 14:27:05.185,-1.9185266526353029
2025-03-30 14:27:05.194,-0.3719973210196976
2025-03-30 14:27:05.194,1.783137854455595
2025-03-30 14:27:05.195,2.316754280782719
2025-03-30 14:27:05.195,0.6016235838986813
2025-03-30 14:27:05.195,-1.6472274459528176
2025-03-30 14:27:05.204,-2.272680518252094
2025-03-30 14:27:05.204,-0.8812802753411124
2025-03-30 14:27:05.204,1.0412904210031013
2025-03-30 14:27:05.205,1.8299575797719956
2025-03-30 14:27:05.205,1.1014942865830208
2025-03-30 14:27:05.214,-0.27780735755301755
2025-03-30 14:27:05.214,-1.1894640435061934
2025-03-30 14:27:05.215,-1.0962999658832182
2025-03-30 14:27:05.215,-0.26257042414194154
2025-03-30 14:27:05.215,0.5458964635019723
2025-03-30 14:27:05.224,0.7281758143398268
2025-03-30 14:27:05.224,0.38830365254680843
2025-03-30 14:27:05.224,0.07333417388058587
2025-03-30 14:27:05.225,-0.023905738597894466
2025-03-30 14:27:05.225,-0.22788257091464398
2025-03-30 14:27:05.234,-0.6344348766215474
2025-03-30 14:27:05.234,-0.6945187857148502
2025-03-30 14:27:05.234,0.02892276213393283
2025-03-30 14:27:05.235,0.9698150410551032
2025-03-30 14:27:05.235,1.034466266523866
2025-03-30 14:27:05.244,0.036157557805736325
2025-03-30 14:27:05.244,-0.9224592131562211
2025-03-30 14:27:05.244,-0.818018936014841
2025-03-30 14:27:05.245,0.030821537170155816
2025-03-30 14:27:05.245,0.5397506118393752
2025-03-30 14:27:05.254,0.30100176187713945
2025-03-30 14:27:05.254,-0.13569458147573543
2025-03-30 14:27:05.255,-0.19351893181124805
2025-03-30 14:27:05.255,0.09471474108382849
2025-03-30 14:27:05.255,0.3283987270805049
2025-03-30 14:27:05.264,0.2034981812489145
2025-03-30 14:27:05.264,-0.2574769490400461
2025-03-30 14:27:05.264,-0.663035440184496
2025-03-30 14:27:05.264,-0.5013608885530373
2025-03-30 14:27:05.265,0.27854711254318865
