timestamp,bandpass_and_notch
2025-03-30 14:58:37.643,-0.2933913810511788
2025-03-30 14:58:37.643,5.098510869161784
2025-03-30 14:58:37.643,4.521188493323815
2025-03-30 14:58:37.644,-7.8054735695938575
2025-03-30 14:58:37.652,-24.531774221189835
2025-03-30 14:58:37.652,-22.57976604883394
2025-03-30 14:58:37.653,9.476377729934109
2025-03-30 14:58:37.653,45.52042201127208
2025-03-30 14:58:37.653,42.6577309121283
2025-03-30 14:58:37.661,-6.5770385590993765
2025-03-30 14:58:37.661,-56.98207950436325
2025-03-30 14:58:37.661,-56.79081404380638
2025-03-30 14:58:37.661,-4.821355220775373
2025-03-30 14:58:37.669,48.76674409243175
2025-03-30 14:58:37.669,56.668036880656544
2025-03-30 14:58:37.669,19.69486131286439
2025-03-30 14:58:37.669,-22.911964531373407
2025-03-30 14:58:37.670,-37.77291558878614
2025-03-30 14:58:37.679,-24.209888033721132
2025-03-30 14:58:37.679,-2.5881437263781573
2025-03-30 14:58:37.679,11.55212361142821
2025-03-30 14:58:37.679,16.75780571743625
2025-03-30 14:58:37.687,16.33390826106244
2025-03-30 14:58:37.687,10.016348207498044
2025-03-30 14:58:37.687,-2.4784430912908664
2025-03-30 14:58:37.688,-15.109841594116709
2025-03-30 14:58:37.688,-18.411300832113678
2025-03-30 14:58:37.696,-9.219212529916785
2025-03-30 14:58:37.697,5.066433150483323
2025-03-30 14:58:37.697,13.218589044417872
2025-03-30 14:58:37.697,10.532808440579
2025-03-30 14:58:37.706,2.02410780467235
2025-03-30 14:58:37.707,-3.9311639468389648
2025-03-30 14:58:37.707,-4.044186116506407
2025-03-30 14:58:37.707,-1.8657390841914454
2025-03-30 14:58:37.707,-1.9149838218965147
2025-03-30 14:58:37.716,-3.689371059892338
2025-03-30 14:58:37.717,-2.7768295658574504
2025-03-30 14:58:37.717,2.5188995343822653
2025-03-30 14:58:37.717,7.661327870515999
2025-03-30 14:58:37.717,6.544000969214676
2025-03-30 14:58:37.726,-0.8748989318142464
2025-03-30 14:58:37.727,-7.501500494045272
2025-03-30 14:58:37.727,-6.601160335529684
2025-03-30 14:58:37.727,0.6356431808598417
2025-03-30 14:58:37.727,6.392293121707469
2025-03-30 14:58:37.736,4.937778619915135
2025-03-30 14:58:37.736,-1.3544334157333484
2025-03-30 14:58:37.737,-5.341357478502435
2025-03-30 14:58:37.737,-3.3429740096228646
2025-03-30 14:58:37.737,1.4474366702109103
2025-03-30 14:58:37.746,3.590627382695935
2025-03-30 14:58:37.747,1.681310027871815
2025-03-30 14:58:37.747,-1.045916718879221
2025-03-30 14:58:37.747,-1.3768674728049137
2025-03-30 14:58:37.747,0.2932865952984412
2025-03-30 14:58:37.756,1.2618147771209343
2025-03-30 14:58:37.756,0.1614928823580449
2025-03-30 14:58:37.757,-1.6781633923104036
2025-03-30 14:58:37.757,-2.173053560077914
2025-03-30 14:58:37.757,-0.8606291803076941
2025-03-30 14:58:37.766,0.9568774497080232
2025-03-30 14:58:37.767,1.91659366151733
2025-03-30 14:58:37.767,1.8597747524446278
2025-03-30 14:58:37.767,1.3773487493092018
2025-03-30 14:58:37.767,0.6112166494242708
2025-03-30 14:58:37.776,-0.8731043691107109
2025-03-30 14:58:37.776,-2.8572202179841537
2025-03-30 14:58:37.777,-3.723582819081041
2025-03-30 14:58:37.777,-1.8651754411491193
2025-03-30 14:58:37.777,1.9567177322198848
2025-03-30 14:58:37.786,4.569371381449071
2025-03-30 14:58:37.786,3.5956992080880084
2025-03-30 14:58:37.786,0.2690220238285951
2025-03-30 14:58:37.787,-2.06803153324628
2025-03-30 14:58:37.787,-2.069462490186531
2025-03-30 14:58:37.795,-1.4665721014278439
2025-03-30 14:58:37.795,-1.7376715718467173
2025-03-30 14:58:37.795,-1.5939110665866312
2025-03-30 14:58:37.795,0.7256795658625811
2025-03-30 14:58:37.804,3.843469185925223
2025-03-30 14:58:37.805,4.145822836658476
2025-03-30 14:58:37.805,0.5453743960508372
2025-03-30 14:58:37.805,-3.4517101562055545
2025-03-30 14:58:37.805,-3.7036855621209446
2025-03-30 14:58:37.814,-0.54324347277052
2025-03-30 14:58:37.815,1.8242777688119236
2025-03-30 14:58:37.815,0.9843686818114532
2025-03-30 14:58:37.815,-0.7234681190231679
2025-03-30 14:58:37.815,-0.06726269151215578
2025-03-30 14:58:37.824,2.0575281422476497
2025-03-30 14:58:37.824,1.8703104352359101
2025-03-30 14:58:37.825,-1.5153242556586666
2025-03-30 14:58:37.825,-4.191367966198271
2025-03-30 14:58:37.825,-2.3587048356558875
2025-03-30 14:58:37.834,2.560096270254849
2025-03-30 14:58:37.834,5.33358223453483
2025-03-30 14:58:37.835,2.8989597528640063
2025-03-30 14:58:37.835,-2.3982065630329297
2025-03-30 14:58:37.835,-5.527179833524681
2025-03-30 14:58:37.844,-3.8003907259499963
2025-03-30 14:58:37.845,0.9546922173111351
2025-03-30 14:58:37.845,4.501245735787348
2025-03-30 14:58:37.845,4.108452964928652
2025-03-30 14:58:37.845,0.7328572630495529
2025-03-30 14:58:37.854,-2.3256069129893295
2025-03-30 14:58:37.854,-2.7931287744168345
2025-03-30 14:58:37.855,-1.2852751712649293
2025-03-30 14:58:37.855,0.10357051994433676
2025-03-30 14:58:37.855,0.38332985892495464
2025-03-30 14:58:37.864,0.24245850896118057
2025-03-30 14:58:37.865,0.5087549100367021
2025-03-30 14:58:37.865,1.0731209201739766
2025-03-30 14:58:37.865,1.4135134122986683
2025-03-30 14:58:37.865,1.1917271041484796
2025-03-30 14:58:37.874,0.03100377295712927
2025-03-30 14:58:37.874,-2.177192327634719
2025-03-30 14:58:37.875,-4.045854830398383
2025-03-30 14:58:37.875,-3.006876330657231
2025-03-30 14:58:37.875,1.5604771169652891
2025-03-30 14:58:37.884,6.031061496463316
2025-03-30 14:58:37.884,5.443638698080791
2025-03-30 14:58:37.885,-0.5409861433632703
2025-03-30 14:58:37.885,-6.168517539848178
2025-03-30 14:58:37.885,-5.611161464034603
2025-03-30 14:58:37.894,0.2719713567381608
2025-03-30 14:58:37.894,4.9384424695067874
2025-03-30 14:58:37.894,3.85834559868698
2025-03-30 14:58:37.895,-0.674426501406504
2025-03-30 14:58:37.895,-3.1782649679393606
2025-03-30 14:58:37.904,-1.7032796281758278
2025-03-30 14:58:37.905,0.8557717330124354
2025-03-30 14:58:37.905,1.3693528540985616
2025-03-30 14:58:37.905,0.1466610477898361
2025-03-30 14:58:37.905,-0.5477690025781078
2025-03-30 14:58:37.913,0.08542824848322975
2025-03-30 14:58:37.913,0.8212737922343586
2025-03-30 14:58:37.913,0.5099174486928476
2025-03-30 14:58:37.913,-0.6147510377132428
2025-03-30 14:58:37.913,-1.556070181500867
2025-03-30 14:58:37.924,-1.4594795222429817
2025-03-30 14:58:37.924,8.722682518676889e-05
2025-03-30 14:58:37.924,2.1039950562284644
2025-03-30 14:58:37.925,2.9507393122979275
2025-03-30 14:58:37.925,1.0737943795711509
2025-03-30 14:58:37.932,-2.2924640047706144
2025-03-30 14:58:37.933,-3.717628850170003
2025-03-30 14:58:37.933,-1.4052746333809232
2025-03-30 14:58:37.933,2.207106430767397
2025-03-30 14:58:37.944,3.0523499885034733
2025-03-30 14:58:37.944,0.42521273921348846
2025-03-30 14:58:37.944,-2.1612064831284536
2025-03-30 14:58:37.944,-1.5254117031966776
2025-03-30 14:58:37.945,1.205294723810699
2025-03-30 14:58:37.945,2.2949232227138947
2025-03-30 14:58:37.953,0.26526882489427805
2025-03-30 14:58:37.953,-2.400613878586427
2025-03-30 14:58:37.953,-2.4919822528646445
2025-03-30 14:58:37.953,0.14962662508128435
2025-03-30 14:58:37.953,2.707248240958999
2025-03-30 14:58:37.963,2.6455730730033413
2025-03-30 14:58:37.963,0.16578791637168475
2025-03-30 14:58:37.963,-2.374317773922778
2025-03-30 14:58:37.963,-2.792859383592474
2025-03-30 14:58:37.972,-0.8220630068036701
2025-03-30 14:58:37.973,1.8074601011176
2025-03-30 14:58:37.973,2.7851116710637402
2025-03-30 14:58:37.973,1.2734630477089068
2025-03-30 14:58:37.973,-1.154002928439305
2025-03-30 14:58:37.982,-2.083202945158383
2025-03-30 14:58:37.983,-0.9697589362589903
2025-03-30 14:58:37.983,0.38162463892424875
2025-03-30 14:58:37.983,0.3884577847005895
2025-03-30 14:58:37.983,-0.20037744120751338
2025-03-30 14:58:37.992,0.2898558685960939
2025-03-30 14:58:37.993,1.635439052634533
2025-03-30 14:58:37.993,1.7606946443684302
2025-03-30 14:58:37.993,-0.3003482732026481
2025-03-30 14:58:37.993,-2.771787952997016
2025-03-30 14:58:38.003,-3.0783675788839595
2025-03-30 14:58:38.003,-0.6960842888144468
2025-03-30 14:58:38.003,2.437501887818822
2025-03-30 14:58:38.003,3.806901370918296
2025-03-30 14:58:38.003,2.2744514697778766
2025-03-30 14:58:38.012,-1.120564082430724
2025-03-30 14:58:38.012,-3.7475007605005968
2025-03-30 14:58:38.013,-3.3935168696745834
2025-03-30 14:58:38.013,-0.4150567716328241
2025-03-30 14:58:38.013,2.488320947497653
2025-03-30 14:58:38.022,3.1394255498406114
2025-03-30 14:58:38.023,1.8939259604768273
2025-03-30 14:58:38.023,0.24402357535215036
2025-03-30 14:58:38.023,-1.4159237570394723
2025-03-30 14:58:38.023,-3.1809796678344506
2025-03-30 14:58:38.032,-3.6696200437161304
2025-03-30 14:58:38.033,-1.0151390261471012
2025-03-30 14:58:38.033,3.7154819352338957
2025-03-30 14:58:38.033,6.126889974465723
2025-03-30 14:58:38.033,3.0833835800874003
2025-03-30 14:58:38.042,-3.089108322170966
2025-03-30 14:58:38.043,-6.5034945482137605
2025-03-30 14:58:38.043,-3.933204086130662
2025-03-30 14:58:38.043,1.8109043120176842
2025-03-30 14:58:38.043,5.070235791579191
2025-03-30 14:58:38.051,3.266203796479186
2025-03-30 14:58:38.051,-0.9122456309051376
2025-03-30 14:58:38.051,-2.958076513262543
2025-03-30 14:58:38.051,-1.437833871778102
2025-03-30 14:58:38.051,0.9990853610383585
2025-03-30 14:58:38.062,1.2170340034932592
2025-03-30 14:58:38.063,-0.6671708985914204
2025-03-30 14:58:38.063,-1.800538314665847
2025-03-30 14:58:38.063,-0.4238969148829108
2025-03-30 14:58:38.063,1.9525246797581743
2025-03-30 14:58:38.071,2.5527396320352307
2025-03-30 14:58:38.071,0.627298703044797
2025-03-30 14:58:38.071,-1.941909436981193
2025-03-30 14:58:38.071,-2.7991664215202077
2025-03-30 14:58:38.071,-1.228992079916545
2025-03-30 14:58:38.081,1.424378467556052
2025-03-30 14:58:38.081,2.7574016014453555
2025-03-30 14:58:38.081,1.2496546533450874
2025-03-30 14:58:38.081,-1.8198791362742255
2025-03-30 14:58:38.081,-2.890921165131928
2025-03-30 14:58:38.091,-0.04147291374885065
2025-03-30 14:58:38.091,3.7435630738479806
2025-03-30 14:58:38.091,3.279187749753801
2025-03-30 14:58:38.091,-2.0363577498675554
2025-03-30 14:58:38.100,-6.24308335962568
2025-03-30 14:58:38.101,-3.6284578397026293
2025-03-30 14:58:38.101,3.695261238765129
2025-03-30 14:58:38.101,7.633450628494568
2025-03-30 14:58:38.101,3.638784508393247
2025-03-30 14:58:38.110,-3.921278043927128
2025-03-30 14:58:38.111,-7.039592731004042
2025-03-30 14:58:38.111,-3.121764990357316
2025-03-30 14:58:38.111,2.929762281329591
2025-03-30 14:58:38.111,4.981739789282408
2025-03-30 14:58:38.120,2.0898742985468526
2025-03-30 14:58:38.120,-1.7341850256701001
2025-03-30 14:58:38.121,-2.6742855092970443
2025-03-30 14:58:38.121,-0.7820091679671755
2025-03-30 14:58:38.121,1.1146674090378843
2025-03-30 14:58:38.130,0.9893087137447192
2025-03-30 14:58:38.130,-0.47113621957169527
2025-03-30 14:58:38.130,-1.1649040051235862
2025-03-30 14:58:38.131,-0.1262465794624404
2025-03-30 14:58:38.131,1.4704521778328494
2025-03-30 14:58:38.139,1.6452941762728712
2025-03-30 14:58:38.139,-0.207858310072514
2025-03-30 14:58:38.139,-2.3955052032654094
2025-03-30 14:58:38.139,-2.336154936228888
2025-03-30 14:58:38.139,0.5926804966322007
2025-03-30 14:58:38.149,3.629927901830448
2025-03-30 14:58:38.149,3.0276448144787005
2025-03-30 14:58:38.149,-1.4257043738431594
2025-03-30 14:58:38.149,-5.147100769031914
2025-03-30 14:58:38.158,-3.481489759201807
2025-03-30 14:58:38.159,2.4397630572383675
2025-03-30 14:58:38.159,6.2454537831418095
2025-03-30 14:58:38.159,3.5129251059100866
2025-03-30 14:58:38.159,-2.902932523500633
2025-03-30 14:58:38.169,-6.122965049974048
2025-03-30 14:58:38.169,-3.1327879094561415
2025-03-30 14:58:38.169,2.2981610714993757
2025-03-30 14:58:38.169,4.620129799800497
2025-03-30 14:58:38.169,2.579929711772236
2025-03-30 14:58:38.179,-0.7071616845707742
2025-03-30 14:58:38.179,-2.2949532523308838
2025-03-30 14:58:38.179,-2.0724543365740815
2025-03-30 14:58:38.179,-1.2259247742039778
2025-03-30 14:58:38.179,-0.10598252410281285
2025-03-30 14:58:38.188,1.4312520869738141
2025-03-30 14:58:38.189,2.6529338857985163
2025-03-30 14:58:38.189,2.195056201844325
2025-03-30 14:58:38.189,-0.2564920028039091
2025-03-30 14:58:38.189,-3.072553217173476
2025-03-30 14:58:38.199,-3.804876539633403
2025-03-30 14:58:38.199,-1.411829512662299
2025-03-30 14:58:38.199,2.4665280702576355
2025-03-30 14:58:38.199,4.600541364751107
2025-03-30 14:58:38.199,2.978925767038287
2025-03-30 14:58:38.199,-1.181402991261036
2025-03-30 14:58:38.209,-4.337300786674395
2025-03-30 14:58:38.209,-3.8063591619535004
2025-03-30 14:58:38.209,-0.2014736535375179
2025-03-30 14:58:38.209,3.2595044774147355
2025-03-30 14:58:38.209,3.7602303709968314
2025-03-30 14:58:38.219,1.2177568207293727
2025-03-30 14:58:38.219,-1.9990530799897073
2025-03-30 14:58:38.219,-3.2584662195426253
2025-03-30 14:58:38.219,-1.7308060636631315
2025-03-30 14:58:38.228,1.1121228654058315
2025-03-30 14:58:38.229,2.770546705560411
2025-03-30 14:58:38.229,1.842112038845178
2025-03-30 14:58:38.229,-0.7080440739955107
2025-03-30 14:58:38.229,-2.4247189644485947
2025-03-30 14:58:38.238,-1.7255590837406507
2025-03-30 14:58:38.239,0.5771387529989944
2025-03-30 14:58:38.239,2.1403005302350793
2025-03-30 14:58:38.239,1.4254501647520097
2025-03-30 14:58:38.239,-0.7622873795687012
2025-03-30 14:58:38.249,-1.9938688440753896
2025-03-30 14:58:38.249,-0.7368026675916983
2025-03-30 14:58:38.249,1.6727275298935829
2025-03-30 14:58:38.249,2.1648533028769856
2025-03-30 14:58:38.249,-0.3739165083020576
2025-03-30 14:58:38.258,-3.211884516903836
2025-03-30 14:58:38.259,-2.6981030215775
2025-03-30 14:58:38.259,1.177032103030013
2025-03-30 14:58:38.259,4.414706394886401
2025-03-30 14:58:38.259,3.472591308451301
2025-03-30 14:58:38.268,-0.8364968101627925
2025-03-30 14:58:38.269,-4.364940090507581
2025-03-30 14:58:38.269,-3.9660948321320704
2025-03-30 14:58:38.269,-0.36026671109773006
2025-03-30 14:58:38.269,2.9876563909035836
2025-03-30 14:58:38.278,3.3778642410515802
2025-03-30 14:58:38.279,1.2236835421610375
2025-03-30 14:58:38.279,-0.930092842944872
2025-03-30 14:58:38.279,-1.4558726306205392
2025-03-30 14:58:38.279,-1.122302260724442
2025-03-30 14:58:38.288,-1.1930825935852638
2025-03-30 14:58:38.289,-1.0361369737807447
2025-03-30 14:58:38.289,0.7701468822769293
2025-03-30 14:58:38.289,3.1865536988607266
2025-03-30 14:58:38.289,2.903898551732418
2025-03-30 14:58:38.298,-1.0614126977772391
2025-03-30 14:58:38.299,-4.830517020789515
2025-03-30 14:58:38.299,-3.76683649206826
2025-03-30 14:58:38.299,1.6206774162602502
2025-03-30 14:58:38.299,5.801346468297771
2025-03-30 14:58:38.308,4.332785494377031
2025-03-30 14:58:38.309,-1.431008107687308
2025-03-30 14:58:38.309,-5.984108214232375
2025-03-30 14:58:38.309,-5.160895894618642
2025-03-30 14:58:38.309,0.2068366972589339
2025-03-30 14:58:38.317,5.34555165853588
2025-03-30 14:58:38.317,5.8468190677326035
2025-03-30 14:58:38.317,1.441521742306517
2025-03-30 14:58:38.317,-3.9022963347730912
2025-03-30 14:58:38.318,-5.597499353133459
2025-03-30 14:58:38.328,-2.5259692531403393
2025-03-30 14:58:38.328,2.1123190288991576
2025-03-30 14:58:38.329,4.006364226363455
2025-03-30 14:58:38.329,2.0312008834987108
2025-03-30 14:58:38.329,-0.7983990510753952
2025-03-30 14:58:38.337,-1.1397811270728335
2025-03-30 14:58:38.337,0.420559867675902
2025-03-30 14:58:38.337,0.4243891020289204
2025-03-30 14:58:38.337,-2.115993877369529
2025-03-30 14:58:38.347,-3.7166546533721627
2025-03-30 14:58:38.347,-1.111501597715076
2025-03-30 14:58:38.347,3.8430059792678395
2025-03-30 14:58:38.347,5.986455811427087
2025-03-30 14:58:38.347,2.8425685132450735
2025-03-30 14:58:38.357,-2.836908181136331
2025-03-30 14:58:38.357,-6.1796822012279575
2025-03-30 14:58:38.357,-4.68027290421009
2025-03-30 14:58:38.357,0.110295399924112
2025-03-30 14:58:38.357,4.309908637093482
2025-03-30 14:58:38.366,5.01004195484726
2025-03-30 14:58:38.367,2.3872408559943876
2025-03-30 14:58:38.367,-1.1482542933883144
2025-03-30 14:58:38.367,-3.412064462893258
2025-03-30 14:58:38.367,-3.582865846717716
2025-03-30 14:58:38.376,-1.6901736634298952
2025-03-30 14:58:38.376,1.40499874260993
2025-03-30 14:58:38.377,3.493103598708621
2025-03-30 14:58:38.377,2.4293395296009757
2025-03-30 14:58:38.377,-0.9239151449256605
2025-03-30 14:58:38.386,-2.7176144036647507
2025-03-30 14:58:38.386,-0.6691054293534037
2025-03-30 14:58:38.386,2.4500452852503303
2025-03-30 14:58:38.387,1.9815321280030946
2025-03-30 14:58:38.387,-2.1913577269189384
2025-03-30 14:58:38.396,-4.77614620696704
2025-03-30 14:58:38.397,-1.6912248731726038
2025-03-30 14:58:38.397,4.247235117746221
2025-03-30 14:58:38.397,6.277699620223455
2025-03-30 14:58:38.397,1.7969395496931655
2025-03-30 14:58:38.406,-4.5135776180661535
2025-03-30 14:58:38.407,-6.157068980383785
2025-03-30 14:58:38.407,-1.9328904650179233
2025-03-30 14:58:38.407,3.411553704678395
2025-03-30 14:58:38.407,4.73014176914875
2025-03-30 14:58:38.416,1.4902866300631268
2025-03-30 14:58:38.417,-2.4362279618183447
2025-03-30 14:58:38.417,-2.9755342126158784
2025-03-30 14:58:38.417,0.16531719959027802
2025-03-30 14:58:38.417,3.141245228880075
2025-03-30 14:58:38.426,1.8934716703933798
2025-03-30 14:58:38.426,-2.938983245077039
2025-03-30 14:58:38.427,-5.748312439551122
2025-03-30 14:58:38.427,-2.0353219887601544
2025-03-30 14:58:38.427,5.46954051863428
2025-03-30 14:58:38.435,8.7042841436259
2025-03-30 14:58:38.435,3.2195998472990923
2025-03-30 14:58:38.435,-6.12397058425686
2025-03-30 14:58:38.435,-9.943186742494621
2025-03-30 14:58:38.444,-4.464124397786449
2025-03-30 14:58:38.445,4.558544378709461
2025-03-30 14:58:38.445,8.390324422288312
2025-03-30 14:58:38.445,4.538925865943798
2025-03-30 14:58:38.445,-1.7228128087092134
2025-03-30 14:58:38.454,-4.352857921709752
2025-03-30 14:58:38.455,-2.9518658292565734
2025-03-30 14:58:38.455,-1.2235188938007315
2025-03-30 14:58:38.455,-0.8574812276460706
2025-03-30 14:58:38.455,0.26287849604505314
2025-03-30 14:58:38.464,3.4594546968956235
2025-03-30 14:58:38.465,5.622463963238411
2025-03-30 14:58:38.465,2.606755799360175
2025-03-30 14:58:38.465,-4.4481803989618
2025-03-30 14:58:38.465,-8.751992841873811
2025-03-30 14:58:38.474,-5.020268676894473
2025-03-30 14:58:38.474,4.009754447036545
2025-03-30 14:58:38.475,9.681143268057818
2025-03-30 14:58:38.475,6.360645322116723
2025-03-30 14:58:38.475,-2.520411431688568
2025-03-30 14:58:38.484,-8.18770173968027
2025-03-30 14:58:38.484,-5.925245516112647
2025-03-30 14:58:38.485,0.5851536448823704
2025-03-30 14:58:38.485,4.5748130285249085
2025-03-30 14:58:38.485,3.852476466191259
2025-03-30 14:58:38.492,1.4026293881148701
2025-03-30 14:58:38.493,-0.1432621323915655
2025-03-30 14:58:38.493,-1.3700037695855496
2025-03-30 14:58:38.493,-3.027371245162158
2025-03-30 14:58:38.502,-3.296493762386515
2025-03-30 14:58:38.503,-0.38772700861240195
2025-03-30 14:58:38.503,3.6801412642533933
2025-03-30 14:58:38.503,4.602820307929607
2025-03-30 14:58:38.503,1.1382047895680176
2025-03-30 14:58:38.512,-3.0956354104849044
2025-03-30 14:58:38.513,-3.8913262294821047
2025-03-30 14:58:38.513,-1.1344351217464341
2025-03-30 14:58:38.513,1.7761522178442692
2025-03-30 14:58:38.513,2.2255260209222634
2025-03-30 14:58:38.522,0.7556967921885843
2025-03-30 14:58:38.523,-0.5810576310695876
2025-03-30 14:58:38.523,-0.8098276652427588
2025-03-30 14:58:38.523,-0.3966897737385917
2025-03-30 14:58:38.523,0.022567550464033186
2025-03-30 14:58:38.532,0.2645756966892792
2025-03-30 14:58:38.532,0.2704826799209697
2025-03-30 14:58:38.532,0.04113810603946616
2025-03-30 14:58:38.533,-0.1822617718374433
2025-03-30 14:58:38.533,-0.27720587660674656
2025-03-30 14:58:38.542,-0.459987329241073
2025-03-30 14:58:38.543,-0.5383282128344541
2025-03-30 14:58:38.543,0.32944370449416127
2025-03-30 14:58:38.543,2.0327027168517713
2025-03-30 14:58:38.543,2.4379839646408445
2025-03-30 14:58:38.551,-0.27640940821738064
2025-03-30 14:58:38.551,-4.2685940636866215
2025-03-30 14:58:38.551,-4.968559108363419
2025-03-30 14:58:38.551,-0.3683775704453792
2025-03-30 14:58:38.561,5.731077473522104
2025-03-30 14:58:38.561,7.122360375070996
2025-03-30 14:58:38.561,1.818615133493076
2025-03-30 14:58:38.561,-5.5115393718183086
2025-03-30 14:58:38.561,-8.041505712837544
2025-03-30 14:58:38.570,-3.4787130321385336
2025-03-30 14:58:38.571,3.8431507045116993
2025-03-30 14:58:38.571,7.330993400123736
2025-03-30 14:58:38.571,4.373508099295635
2025-03-30 14:58:38.571,-1.6801427678182659
2025-03-30 14:58:38.581,-5.3002045192818485
2025-03-30 14:58:38.581,-4.00661297832585
2025-03-30 14:58:38.581,0.07286675987085078
2025-03-30 14:58:38.581,3.005637645760024
2025-03-30 14:58:38.581,2.752334645261484
2025-03-30 14:58:38.590,0.3978502325257501
2025-03-30 14:58:38.591,-1.5164547043732257
2025-03-30 14:58:38.591,-1.5105790793568754
2025-03-30 14:58:38.591,-0.14384138123223802
2025-03-30 14:58:38.591,1.075913876467905
2025-03-30 14:58:38.600,1.1728975607959136
2025-03-30 14:58:38.601,0.08943186040844317
2025-03-30 14:58:38.601,-1.4747919759891284
2025-03-30 14:58:38.601,-2.070332215957592
2025-03-30 14:58:38.601,-0.4030547002963396
2025-03-30 14:58:38.610,2.6145700658011823
2025-03-30 14:58:38.610,3.6288769618930963
2025-03-30 14:58:38.611,0.4956725932003955
2025-03-30 14:58:38.611,-4.092501823434654
2025-03-30 14:58:38.611,-4.795152432971717
2025-03-30 14:58:38.620,-0.14447237139350366
2025-03-30 14:58:38.621,4.98791027382601
2025-03-30 14:58:38.621,4.894522588548103
2025-03-30 14:58:38.621,-0.1962073244334399
2025-03-30 14:58:38.621,-4.639836044281016
2025-03-30 14:58:38.629,-4.133373799911987
2025-03-30 14:58:38.629,-0.017714051394440267
2025-03-30 14:58:38.629,3.3251635640198707
2025-03-30 14:58:38.629,3.4153857211367624
2025-03-30 14:58:38.629,1.0099903358766766
2025-03-30 14:58:38.639,-1.8972170145554428
2025-03-30 14:58:38.639,-3.5481338304778762
2025-03-30 14:58:38.639,-2.5919155663279816
2025-03-30 14:58:38.639,0.9599823070330393
2025-03-30 14:58:38.648,4.448724039844773
2025-03-30 14:58:38.649,4.128934975544083
2025-03-30 14:58:38.649,-0.5572076525048862
2025-03-30 14:58:38.649,-5.237176483409381
2025-03-30 14:58:38.649,-4.837457699793271
2025-03-30 14:58:38.658,0.4838920824597364
2025-03-30 14:58:38.659,5.105466879104727
2025-03-30 14:58:38.659,4.249741834307073
2025-03-30 14:58:38.659,-0.6115185916937866
2025-03-30 14:58:38.659,-3.8320098016641175
2025-03-30 14:58:38.668,-2.4347360904383866
2025-03-30 14:58:38.669,0.8675727265163529
2025-03-30 14:58:38.669,1.8424220482534281
2025-03-30 14:58:38.669,0.09102309868660388
2025-03-30 14:58:38.669,-1.3028521190929865
2025-03-30 14:58:38.678,-0.36496791649234206
2025-03-30 14:58:38.679,1.6349726467002765
2025-03-30 14:58:38.679,2.4051068603159464
2025-03-30 14:58:38.679,1.0158373888390348
2025-03-30 14:58:38.679,-1.9517698111664687
2025-03-30 14:58:38.688,-4.618022995056871
2025-03-30 14:58:38.689,-4.0861156833235555
2025-03-30 14:58:38.689,0.939570123621659
2025-03-30 14:58:38.689,6.962011068237024
2025-03-30 14:58:38.689,7.662914967652751
2025-03-30 14:58:38.697,0.9603430959339845
2025-03-30 14:58:38.697,-7.421841326532384
2025-03-30 14:58:38.697,-9.442530987697872
2025-03-30 14:58:38.697,-3.2315674271212873
2025-03-30 14:58:38.697,5.297706424214032
2025-03-30 14:58:38.707,8.79813807693011
2025-03-30 14:58:38.707,5.118842333448959
2025-03-30 14:58:38.707,-1.9419958762351144
2025-03-30 14:58:38.707,-6.706895519744049
2025-03-30 14:58:38.717,-5.978226376216312
2025-03-30 14:58:38.717,-0.8514677807954792
2025-03-30 14:58:38.717,4.43090207156505
2025-03-30 14:58:38.717,5.731649295474924
2025-03-30 14:58:38.717,2.287723511999841
2025-03-30 14:58:38.726,-2.682178709843263
2025-03-30 14:58:38.727,-4.825401009158329
2025-03-30 14:58:38.727,-2.524572993215866
2025-03-30 14:58:38.727,1.7545538210132419
2025-03-30 14:58:38.727,3.869478114602506
2025-03-30 14:58:38.737,1.936995517072837
2025-03-30 14:58:38.737,-1.854269289165271
2025-03-30 14:58:38.737,-3.3704928522733066
2025-03-30 14:58:38.737,-0.8012109443347994
2025-03-30 14:58:38.737,3.089233682546812
2025-03-30 14:58:38.747,3.5535298315910984
2025-03-30 14:58:38.747,-0.6766816566604412
2025-03-30 14:58:38.747,-5.100200716034801
2025-03-30 14:58:38.747,-4.060988678858939
2025-03-30 14:58:38.747,2.1936750293995075
2025-03-30 14:58:38.757,6.8696566868037205
2025-03-30 14:58:38.757,4.271013019780813
2025-03-30 14:58:38.757,-3.2016715701455185
2025-03-30 14:58:38.757,-7.521192843942859
2025-03-30 14:58:38.757,-4.0948454779980255
2025-03-30 14:58:38.766,3.3442445987895253
2025-03-30 14:58:38.767,7.142933976100948
2025-03-30 14:58:38.767,3.7939415963621137
2025-03-30 14:58:38.767,-2.9434020704053308
2025-03-30 14:58:38.767,-6.307265680537789
2025-03-30 14:58:38.776,-3.3277445307172155
2025-03-30 14:58:38.777,2.556775221428531
2025-03-30 14:58:38.777,5.364719930131092
2025-03-30 14:58:38.777,2.683246704621664
2025-03-30 14:58:38.777,-2.3412486725196167
2025-03-30 14:58:38.786,-4.687324033634859
2025-03-30 14:58:38.787,-2.3484756960017346
2025-03-30 14:58:38.787,2.2641948866424415
2025-03-30 14:58:38.787,4.781785464881829
2025-03-30 14:58:38.787,2.683200985264631
2025-03-30 14:58:38.797,-2.2974761577320333
2025-03-30 14:58:38.797,-5.36670597008908
2025-03-30 14:58:38.797,-3.288128598159312
2025-03-30 14:58:38.797,1.9601825640421937
2025-03-30 14:58:38.797,5.129952889670668
2025-03-30 14:58:38.806,3.4740600755157
2025-03-30 14:58:38.807,-0.62873143639419
2025-03-30 14:58:38.807,-3.153746105889738
2025-03-30 14:58:38.807,-2.9338996110574773
2025-03-30 14:58:38.807,-1.5155452325684984
2025-03-30 14:58:38.816,0.04227010896762913
2025-03-30 14:58:38.817,1.9431347742094192
2025-03-30 14:58:38.817,3.481213766924012
2025-03-30 14:58:38.817,2.641301148152185
2025-03-30 14:58:38.817,-0.9400173095869295
2025-03-30 14:58:38.826,-4.2599130298392085
2025-03-30 14:58:38.827,-3.8961093377680096
2025-03-30 14:58:38.827,-0.0671609698139557
2025-03-30 14:58:38.827,3.580673194849762
2025-03-30 14:58:38.827,3.9655473023675345
2025-03-30 14:58:38.835,1.272362371594007
2025-03-30 14:58:38.835,-2.032873558241279
2025-03-30 14:58:38.835,-3.5672116206420257
2025-03-30 14:58:38.835,-2.3638795372081893
2025-03-30 14:58:38.836,0.6631750322027952
2025-03-30 14:58:38.845,2.967373153597293
2025-03-30 14:58:38.845,2.3626649653998264
2025-03-30 14:58:38.845,-0.3550626454079918
2025-03-30 14:58:38.845,-1.9112509488610487
2025-03-30 14:58:38.846,-0.6448920820519211
2025-03-30 14:58:38.855,1.1649494642583704
2025-03-30 14:58:38.855,0.4984370894592282
2025-03-30 14:58:38.855,-1.944098933468195
2025-03-30 14:58:38.855,-2.502038538279096
2025-03-30 14:58:38.865,0.39031154412009406
2025-03-30 14:58:38.865,3.811115512676871
2025-03-30 14:58:38.865,3.752139673478295
2025-03-30 14:58:38.865,-0.14033947257921753
2025-03-30 14:58:38.865,-4.119572228088778
2025-03-30 14:58:38.875,-4.338741754731719
2025-03-30 14:58:38.875,-0.7468536332366624
2025-03-30 14:58:38.877,3.056270231004461
2025-03-30 14:58:38.877,3.665433077490538
2025-03-30 14:58:38.877,1.2805164110278082
2025-03-30 14:58:38.885,-1.0980471624461035
2025-03-30 14:58:38.885,-1.5581981793261543
2025-03-30 14:58:38.885,-1.1117398859663923
2025-03-30 14:58:38.885,-1.2248824379520635
2025-03-30 14:58:38.885,-1.159315499390237
2025-03-30 14:58:38.895,0.5821952585676081
2025-03-30 14:58:38.895,3.050616359355388
2025-03-30 14:58:38.895,3.2429491773286583
2025-03-30 14:58:38.895,0.027360259201156284
2025-03-30 14:58:38.895,-3.8132059208021833
2025-03-30 14:58:38.905,-4.306831674242758
2025-03-30 14:58:38.905,-0.5923490995340769
2025-03-30 14:58:38.905,3.942428401553909
2025-03-30 14:58:38.905,4.815207598317437
2025-03-30 14:58:38.905,0.9214008122104127
2025-03-30 14:58:38.915,-4.032156087069334
2025-03-30 14:58:38.915,-5.034094559302608
2025-03-30 14:58:38.915,-1.0306393774614588
2025-03-30 14:58:38.915,3.8466816525091208
2025-03-30 14:58:38.915,4.751399923897933
2025-03-30 14:58:38.925,1.2172431799978143
2025-03-30 14:58:38.925,-2.8773234398458962
2025-03-30 14:58:38.925,-3.8556688086760094
2025-03-30 14:58:38.925,-1.6590516549455698
2025-03-30 14:58:38.925,1.1842951871903113
2025-03-30 14:58:38.934,2.656508814391551
2025-03-30 14:58:38.935,2.437210332591147
2025-03-30 14:58:38.935,0.8440209383163378
2025-03-30 14:58:38.935,-1.693719148286064
2025-03-30 14:58:38.935,-3.694249209067009
2025-03-30 14:58:38.944,-2.8248998078029097
2025-03-30 14:58:38.945,1.2943297747075233
2025-03-30 14:58:38.945,5.156483084062158
2025-03-30 14:58:38.945,4.312423669313309
2025-03-30 14:58:38.945,-1.212629242444418
2025-03-30 14:58:38.954,-6.010769042370173
2025-03-30 14:58:38.955,-4.967361676715621
2025-03-30 14:58:38.955,0.9464236585644823
2025-03-30 14:58:38.955,5.730154393107235
2025-03-30 14:58:38.955,4.849694124086397
2025-03-30 14:58:38.964,-0.3916253379010411
2025-03-30 14:58:38.965,-4.800786601356615
2025-03-30 14:58:38.965,-4.490446570326531
2025-03-30 14:58:38.965,-0.04827575378152782
2025-03-30 14:58:38.965,4.344230089095376
2025-03-30 14:58:38.973,4.531590322306785
2025-03-30 14:58:38.973,0.09231168249265409
2025-03-30 14:58:38.973,-4.854577580533536
2025-03-30 14:58:38.973,-5.2005339106795025
2025-03-30 14:58:38.983,-0.08626952388955383
2025-03-30 14:58:38.983,5.648007491369741
2025-03-30 14:58:38.983,6.100070589123593
2025-03-30 14:58:38.983,0.5330631392865899
2025-03-30 14:58:38.983,-5.655244623446877
2025-03-30 14:58:38.993,-6.4756262523048465
2025-03-30 14:58:38.993,-1.401550801771278
2025-03-30 14:58:38.993,4.4594782007969345
2025-03-30 14:58:38.993,5.803960936979717
2025-03-30 14:58:38.993,2.1279499325707034
2025-03-30 14:58:39.003,-2.5562572176723015
2025-03-30 14:58:39.003,-4.160201258020474
2025-03-30 14:58:39.003,-2.1289184434964743
2025-03-30 14:58:39.003,0.9468754486673694
2025-03-30 14:58:39.003,2.300495104447385
2025-03-30 14:58:39.013,1.225771205123905
2025-03-30 14:58:39.013,-0.7902891002483441
2025-03-30 14:58:39.013,-1.4223841056889381
2025-03-30 14:58:39.013,0.3639486983229424
2025-03-30 14:58:39.013,2.714759487152282
2025-03-30 14:58:39.022,2.207036796924884
2025-03-30 14:58:39.023,-1.9599447284131069
2025-03-30 14:58:39.023,-5.743799049137255
2025-03-30 14:58:39.023,-4.133695143512896
2025-03-30 14:58:39.023,2.5072580985328763
2025-03-30 14:58:39.032,7.753987050533631
2025-03-30 14:58:39.033,5.8981783277675
2025-03-30 14:58:39.033,-1.5420171750325893
2025-03-30 14:58:39.033,-7.35708320831408
2025-03-30 14:58:39.033,-6.332909546093964
2025-03-30 14:58:39.042,-0.2233413862518216
2025-03-30 14:58:39.043,4.92560479179491
2025-03-30 14:58:39.043,5.136216598201712
2025-03-30 14:58:39.043,1.555691906832148
2025-03-30 14:58:39.043,-1.9234508691195655
2025-03-30 14:58:39.051,-2.8314105892010737
2025-03-30 14:58:39.051,-1.6987258215061638
2025-03-30 14:58:39.051,-0.3580023985801473
2025-03-30 14:58:39.051,0.29846644531950867
2025-03-30 14:58:39.061,0.6592166882804377
2025-03-30 14:58:39.061,1.1998022895446603
2025-03-30 14:58:39.061,1.6291651627124726
2025-03-30 14:58:39.061,1.1969486692536695
2025-03-30 14:58:39.061,-0.40775788018918047
2025-03-30 14:58:39.071,-2.401917570891093
2025-03-30 14:58:39.071,-3.1519499056840954
2025-03-30 14:58:39.071,-1.5007542951124189
2025-03-30 14:58:39.071,1.7912808023893938
2025-03-30 14:58:39.071,4.1624553260975965
2025-03-30 14:58:39.081,3.36793641485338
2025-03-30 14:58:39.081,-0.21184203572794696
2025-03-30 14:58:39.081,-3.588939496566716
2025-03-30 14:58:39.081,-3.91787664908925
2025-03-30 14:58:39.081,-1.2761881019018544
2025-03-30 14:58:39.090,1.6574209875059107
2025-03-30 14:58:39.091,2.6510174716691717
2025-03-30 14:58:39.091,1.9064339757123903
2025-03-30 14:58:39.091,0.7664534848312545
2025-03-30 14:58:39.091,-0.3946862824249361
2025-03-30 14:58:39.101,-1.8104706421858636
2025-03-30 14:58:39.101,-2.6162481646916995
2025-03-30 14:58:39.101,-1.378388764116724
2025-03-30 14:58:39.101,1.418307638652264
2025-03-30 14:58:39.101,3.0902735885363333
2025-03-30 14:58:39.110,1.8761956658252206
2025-03-30 14:58:39.111,-0.7832480847924506
2025-03-30 14:58:39.111,-2.1194332769433037
2025-03-30 14:58:39.111,-1.3732319971180742
2025-03-30 14:58:39.111,-0.0889520252138111
2025-03-30 14:58:39.121,0.4149113014099016
2025-03-30 14:58:39.121,0.4620103241082155
2025-03-30 14:58:39.121,0.7696322976082435
2025-03-30 14:58:39.121,1.0281201196875185
2025-03-30 14:58:39.121,0.4818751800187951
2025-03-30 14:58:39.130,-0.703113151546816
2025-03-30 14:58:39.131,-1.4944226367952398
2025-03-30 14:58:39.131,-1.2517082273368945
2025-03-30 14:58:39.131,-0.271379503927053
2025-03-30 14:58:39.131,0.8706363374595822
2025-03-30 14:58:39.140,1.7827727068811277
2025-03-30 14:58:39.141,1.8649965980034948
2025-03-30 14:58:39.141,0.3689959319803097
2025-03-30 14:58:39.141,-2.231972644054153
2025-03-30 14:58:39.141,-3.52067490167263
2025-03-30 14:58:39.149,-1.3970196505573922
2025-03-30 14:58:39.149,2.654239992463007
2025-03-30 14:58:39.149,4.3077764985665326
2025-03-30 14:58:39.149,1.5315674359749336
2025-03-30 14:58:39.150,-2.5045897815502753
2025-03-30 14:58:39.159,-3.3230232146226943
2025-03-30 14:58:39.159,-0.7882956589845
2025-03-30 14:58:39.159,1.324433897701536
2025-03-30 14:58:39.160,0.8440327042918386
2025-03-30 14:58:39.160,-0.3275767555422368
2025-03-30 14:58:39.169,0.20119610213968692
2025-03-30 14:58:39.169,1.6007747018745118
2025-03-30 14:58:39.169,1.3289266921278848
2025-03-30 14:58:39.169,-0.9040455547813255
2025-03-30 14:58:39.170,-2.613496758691643
2025-03-30 14:58:39.180,-1.8475968777540586
2025-03-30 14:58:39.181,0.4946319316504303
2025-03-30 14:58:39.181,2.0603986690997225
2025-03-30 14:58:39.181,1.7306065160423836
2025-03-30 14:58:39.181,0.30187282842852103
2025-03-30 14:58:39.189,-0.8586048253167756
2025-03-30 14:58:39.189,-1.1033087618224169
2025-03-30 14:58:39.189,-0.6558394685113441
2025-03-30 14:58:39.190,-0.07781535159759806
2025-03-30 14:58:39.199,0.2584827155032389
2025-03-30 14:58:39.199,0.36839885923176263
2025-03-30 14:58:39.199,0.4456089936735669
2025-03-30 14:58:39.199,0.4934442337270708
2025-03-30 14:58:39.200,0.2668806590867962
2025-03-30 14:58:39.200,-0.3677474463670379
2025-03-30 14:58:39.209,-1.074953980114037
2025-03-30 14:58:39.209,-1.1189498134103917
2025-03-30 14:58:39.209,0.02262755488797584
2025-03-30 14:58:39.209,1.782903878372276
2025-03-30 14:58:39.219,2.3761458794235013
2025-03-30 14:58:39.219,0.42184144596219175
2025-03-30 14:58:39.219,-2.8337995696030784
2025-03-30 14:58:39.219,-3.8962583218459765
2025-03-30 14:58:39.219,-0.8232324046840631
2025-03-30 14:58:39.228,3.7859422370343023
2025-03-30 14:58:39.229,5.030713644051941
2025-03-30 14:58:39.229,1.2066771630662774
2025-03-30 14:58:39.229,-3.9906117674696246
2025-03-30 14:58:39.229,-5.331719386324237
2025-03-30 14:58:39.239,-1.5675550195560708
2025-03-30 14:58:39.239,3.4402030729962325
2025-03-30 14:58:39.239,4.84365655322541
2025-03-30 14:58:39.239,1.6365860042129303
2025-03-30 14:58:39.239,-2.6299159903420324
2025-03-30 14:58:39.248,-3.7173328052344496
2025-03-30 14:58:39.249,-1.0850129058209927
2025-03-30 14:58:39.249,1.8521405183518065
2025-03-30 14:58:39.249,1.9103387529877494
2025-03-30 14:58:39.249,-0.1411816953767316
2025-03-30 14:58:39.259,-0.9913254364079933
2025-03-30 14:58:39.259,0.49859922920118277
2025-03-30 14:58:39.259,1.713896468040627
2025-03-30 14:58:39.259,0.10725659519411147
2025-03-30 14:58:39.259,-2.869008434820237
2025-03-30 14:58:39.268,-3.256878994662148
2025-03-30 14:58:39.269,0.2957608890256246
2025-03-30 14:58:39.269,4.376764909529041
2025-03-30 14:58:39.269,4.431500952556705
2025-03-30 14:58:39.269,-0.014364802659866893
2025-03-30 14:58:39.278,-4.587079936856009
2025-03-30 14:58:39.279,-4.717489848414171
2025-03-30 14:58:39.279,-0.49637605624214337
2025-03-30 14:58:39.279,3.674731658081998
2025-03-30 14:58:39.279,3.9487775830778955
2025-03-30 14:58:39.287,0.723706242788571
2025-03-30 14:58:39.287,-2.490456583559995
2025-03-30 14:58:39.287,-2.8774109069831497
2025-03-30 14:58:39.287,-0.5616171225104077
2025-03-30 14:58:39.288,2.0654924160163923
2025-03-30 14:58:39.297,2.5132339943757738
2025-03-30 14:58:39.297,0.25326981930780346
2025-03-30 14:58:39.297,-2.6126116720367407
2025-03-30 14:58:39.297,-3.1076799938088735
2025-03-30 14:58:39.307,-0.43797590935166736
2025-03-30 14:58:39.307,3.0195981078909617
2025-03-30 14:58:39.307,4.168978554390313
2025-03-30 14:58:39.307,2.079416540152852
2025-03-30 14:58:39.307,-1.7878240116351485
2025-03-30 14:58:39.316,-5.034705150374899
2025-03-30 14:58:39.317,-5.297380700587293
2025-03-30 14:58:39.317,-1.3406683711115983
2025-03-30 14:58:39.317,4.9498377397674655
2025-03-30 14:58:39.317,8.445577908363108
2025-03-30 14:58:39.326,5.049603934202835
2025-03-30 14:58:39.327,-3.2769538447954405
2025-03-30 14:58:39.327,-9.341547344151127
2025-03-30 14:58:39.327,-7.624900027619616
2025-03-30 14:58:39.327,0.24674439475883947
2025-03-30 14:58:39.336,7.362569905612268
2025-03-30 14:58:39.337,8.130269685215827
2025-03-30 14:58:39.337,2.730575353478513
2025-03-30 14:58:39.337,-3.9050952107808534
2025-03-30 14:58:39.337,-6.604618119905089
2025-03-30 14:58:39.347,-3.9912051712614844
2025-03-30 14:58:39.347,0.915437915665862
2025-03-30 14:58:39.347,3.831397317628097
2025-03-30 14:58:39.347,3.1032055540084285
2025-03-30 14:58:39.347,0.5426859674851972
2025-03-30 14:58:39.356,-1.2053135777196726
2025-03-30 14:58:39.357,-1.2844836990147501
2025-03-30 14:58:39.357,-0.5215818160464041
2025-03-30 14:58:39.357,0.15839529880121742
2025-03-30 14:58:39.357,0.3418485004253424
2025-03-30 14:58:39.367,-0.13841952891915554
2025-03-30 14:58:39.367,-0.957350384521898
2025-03-30 14:58:39.367,-1.0564705150717235
2025-03-30 14:58:39.367,0.2862427753990892
2025-03-30 14:58:39.367,2.131508796131683
2025-03-30 14:58:39.376,2.5262782330310554
2025-03-30 14:58:39.376,0.6937766207369824
2025-03-30 14:58:39.377,-1.9845492278153163
2025-03-30 14:58:39.377,-3.297749025012873
2025-03-30 14:58:39.377,-2.1673088360466672
2025-03-30 14:58:39.386,0.5703624206420214
2025-03-30 14:58:39.387,2.836735232798317
2025-03-30 14:58:39.387,2.8683896647667755
2025-03-30 14:58:39.387,0.7083573722563985
2025-03-30 14:58:39.387,-1.7024636029262332
2025-03-30 14:58:39.397,-2.3015765939302226
2025-03-30 14:58:39.397,-0.9122789975407796
2025-03-30 14:58:39.397,0.7608501505851882
2025-03-30 14:58:39.397,1.1142429114410886
2025-03-30 14:58:39.397,0.2289191572718275
2025-03-30 14:58:39.407,-0.5840247781386882
2025-03-30 14:58:39.407,-0.35699724725905224
2025-03-30 14:58:39.407,0.6405785158055445
2025-03-30 14:58:39.407,1.2613089964297153
2025-03-30 14:58:39.407,0.5794395411928583
2025-03-30 14:58:39.416,-1.07118172531642
2025-03-30 14:58:39.417,-2.148666111387426
2025-03-30 14:58:39.417,-1.4327851549026005
2025-03-30 14:58:39.417,0.5148644097197079
2025-03-30 14:58:39.417,1.978912201314802
2025-03-30 14:58:39.426,2.0869538769209717
2025-03-30 14:58:39.427,1.3334892385041774
2025-03-30 14:58:39.427,0.13076286471188087
2025-03-30 14:58:39.427,-1.7964061253066739
2025-03-30 14:58:39.427,-3.8434731586925714
2025-03-30 14:58:39.436,-3.6929073905093244
2025-03-30 14:58:39.437,0.19207457757573043
2025-03-30 14:58:39.437,5.450320233004859
2025-03-30 14:58:39.437,7.0110421902033515
2025-03-30 14:58:39.437,2.3903059293066136
2025-03-30 14:58:39.447,-4.9410006951201675
2025-03-30 14:58:39.447,-8.465422941755785
2025-03-30 14:58:39.447,-4.907404456734665
2025-03-30 14:58:39.447,2.6633574987819904
2025-03-30 14:58:39.447,7.749455788296993
2025-03-30 14:58:39.455,6.219043949835452
2025-03-30 14:58:39.455,-0.25736698372698597
2025-03-30 14:58:39.455,-5.840547141147178
2025-03-30 14:58:39.456,-5.761129767603835
2025-03-30 14:58:39.456,-0.6951693191500496
2025-03-30 14:58:39.465,3.943373475060629
2025-03-30 14:58:39.465,3.648377712229536
2025-03-30 14:58:39.465,-0.27727041702806676
2025-03-30 14:58:39.465,-2.4764247943800566
2025-03-30 14:58:39.466,-0.3944746861977654
2025-03-30 14:58:39.475,2.3730734504577233
2025-03-30 14:58:39.475,1.1203035618671162
2025-03-30 14:58:39.475,-3.0240071628749865
2025-03-30 14:58:39.475,-4.159928881470462
2025-03-30 14:58:39.485,0.17675034103917447
2025-03-30 14:58:39.485,5.075601615355728
2025-03-30 14:58:39.485,4.511475402781212
2025-03-30 14:58:39.485,-0.7385498918645335
2025-03-30 14:58:39.485,-4.467052549712952
2025-03-30 14:58:39.494,-3.2790520965879346
2025-03-30 14:58:39.495,0.005055237021578174
2025-03-30 14:58:39.495,1.4729847715833562
2025-03-30 14:58:39.495,1.213811998595629
2025-03-30 14:58:39.495,1.45346299928815
2025-03-30 14:58:39.504,2.04528186803857
2025-03-30 14:58:39.505,0.7797462356985142
2025-03-30 14:58:39.505,-2.396953467887364
2025-03-30 14:58:39.505,-4.2319518037165444
2025-03-30 14:58:39.505,-2.145021242050489
2025-03-30 14:58:39.515,2.2210276542886116
2025-03-30 14:58:39.515,4.636011831357313
2025-03-30 14:58:39.515,2.813332214621801
2025-03-30 14:58:39.515,-1.4665869673623209
2025-03-30 14:58:39.515,-4.260425461944309
2025-03-30 14:58:39.525,-2.9997858247323284
2025-03-30 14:58:39.525,1.205376183419575
2025-03-30 14:58:39.525,4.26139224587822
2025-03-30 14:58:39.525,2.837146001332393
2025-03-30 14:58:39.525,-1.8630295082870318
2025-03-30 14:58:39.535,-4.778146449213623
2025-03-30 14:58:39.535,-2.427689026895833
2025-03-30 14:58:39.535,2.813312540370315
2025-03-30 14:58:39.535,5.1290663626658715
2025-03-30 14:58:39.535,1.9357229066582151
2025-03-30 14:58:39.545,-3.1693302910932237
2025-03-30 14:58:39.545,-4.687621290940775
2025-03-30 14:58:39.545,-1.412729151098181
2025-03-30 14:58:39.545,2.689115260155865
2025-03-30 14:58:39.545,3.3635665820154697
2025-03-30 14:58:39.554,0.6511487031876493
2025-03-30 14:58:39.555,-1.828727703489352
2025-03-30 14:58:39.555,-1.4623899846137498
2025-03-30 14:58:39.555,0.522152732859355
2025-03-30 14:58:39.555,1.1222873811482499
2025-03-30 14:58:39.564,-0.3838465219788436
2025-03-30 14:58:39.565,-1.6760891937077653
2025-03-30 14:58:39.565,-0.7622727529515902
2025-03-30 14:58:39.565,1.2575639073226026
2025-03-30 14:58:39.565,1.835698397192544
2025-03-30 14:58:39.573,0.5370364106526614
2025-03-30 14:58:39.573,-0.6437055530247091
2025-03-30 14:58:39.573,-0.44104767526729294
2025-03-30 14:58:39.573,-0.02921749058699981
2025-03-30 14:58:39.574,-0.7893345729539362
2025-03-30 14:58:39.584,-1.7931593267063504
2025-03-30 14:58:39.585,-0.9985367052768297
2025-03-30 14:58:39.585,1.5876749517103501
2025-03-30 14:58:39.585,3.410553933380348
2025-03-30 14:58:39.585,2.2869823903711257
2025-03-30 14:58:39.593,-1.0191206585999417
2025-03-30 14:58:39.593,-3.552556782835478
2025-03-30 14:58:39.593,-3.1272686663038076
2025-03-30 14:58:39.593,-0.2678188533670795
2025-03-30 14:58:39.603,2.5131655670928144
2025-03-30 14:58:39.603,3.020126606987193
2025-03-30 14:58:39.603,1.1115672626265556
2025-03-30 14:58:39.603,-1.3598937371427604
2025-03-30 14:58:39.604,-2.1876377258078468
2025-03-30 14:58:39.604,-0.8038055744851997
2025-03-30 14:58:39.613,1.0859229609764804
2025-03-30 14:58:39.613,1.2175395963223372
2025-03-30 14:58:39.613,-0.5535671435093381
2025-03-30 14:58:39.613,-1.797421361960134
2025-03-30 14:58:39.623,-0.44579153931751203
2025-03-30 14:58:39.623,2.2122297739682435
2025-03-30 14:58:39.623,2.7127632331957092
2025-03-30 14:58:39.623,-0.1526782499139231
2025-03-30 14:58:39.623,-3.3765853830460397
2025-03-30 14:58:39.633,-3.141024531426596
2025-03-30 14:58:39.633,0.590040041846501
2025-03-30 14:58:39.633,3.9413411139045635
2025-03-30 14:58:39.633,3.321990166188796
2025-03-30 14:58:39.633,-0.8896138970791563
2025-03-30 14:58:39.643,-4.6012934055337125
2025-03-30 14:58:39.643,-3.7691011077309415
2025-03-30 14:58:39.643,1.3747401024742265
2025-03-30 14:58:39.643,5.737916495159359
2025-03-30 14:58:39.643,4.264759094293636
2025-03-30 14:58:39.652,-2.0728002543907347
2025-03-30 14:58:39.653,-6.611663383083264
2025-03-30 14:58:39.653,-4.348608463086208
2025-03-30 14:58:39.653,2.265214432905299
2025-03-30 14:58:39.653,6.25684492348975
2025-03-30 14:58:39.662,4.0035549568799835
2025-03-30 14:58:39.663,-1.4489818851073455
2025-03-30 14:58:39.663,-4.596249210123828
2025-03-30 14:58:39.663,-3.2657198801820866
2025-03-30 14:58:39.663,0.2241908112222474
2025-03-30 14:58:39.671,2.3755874224648985
2025-03-30 14:58:39.671,1.9606242877531033
2025-03-30 14:58:39.671,0.44488854264745886
2025-03-30 14:58:39.672,-0.3204583481671839
2025-03-30 14:58:39.672,-0.2714866255303865
2025-03-30 14:58:39.681,-0.5908582229919184
2025-03-30 14:58:39.681,-1.3517322834834185
2025-03-30 14:58:39.681,-1.0124361716058832
2025-03-30 14:58:39.682,1.0582240428343206
2025-03-30 14:58:39.682,2.7406952673575358
2025-03-30 14:58:39.691,1.4108770409483116
2025-03-30 14:58:39.691,-2.2080337829891516
2025-03-30 14:58:39.691,-4.05435331875344
2025-03-30 14:58:39.691,-1.3759054184355524
2025-03-30 14:58:39.701,3.5064416283411863
2025-03-30 14:58:39.701,5.290608801764572
2025-03-30 14:58:39.701,1.6082955358736533
2025-03-30 14:58:39.701,-4.070305623255523
2025-03-30 14:58:39.701,-6.006239502858298
2025-03-30 14:58:39.711,-2.248720028024189
2025-03-30 14:58:39.711,3.4631985320585423
2025-03-30 14:58:39.711,5.7223760487601885
2025-03-30 14:58:39.711,2.8164979535318206
2025-03-30 14:58:39.711,-2.050395244059911
2025-03-30 14:58:39.721,-4.390169117194571
2025-03-30 14:58:39.721,-2.749939689945218
2025-03-30 14:58:39.721,0.5643650500112675
2025-03-30 14:58:39.721,2.442963465159195
2025-03-30 14:58:39.721,1.9600339239439413
2025-03-30 14:58:39.730,0.43080185383520603
2025-03-30 14:58:39.731,-0.6361573836609323
2025-03-30 14:58:39.731,-0.868220302186269
2025-03-30 14:58:39.731,-0.638894475524309
2025-03-30 14:58:39.731,-0.2932648757323562
2025-03-30 14:58:39.741,-0.012996045088139768
2025-03-30 14:58:39.741,0.1037107895877514
2025-03-30 14:58:39.741,0.1565150849341643
2025-03-30 14:58:39.741,0.3738773699219725
2025-03-30 14:58:39.741,0.7003106692330185
2025-03-30 14:58:39.751,0.6272298945269265
2025-03-30 14:58:39.751,-0.24491159865880882
2025-03-30 14:58:39.751,-1.3977521337891208
2025-03-30 14:58:39.751,-1.5223002931599545
2025-03-30 14:58:39.751,0.03190514973731884
2025-03-30 14:58:39.761,2.026693010173585
2025-03-30 14:58:39.761,2.2666712082530487
2025-03-30 14:58:39.761,0.0890146863685272
2025-03-30 14:58:39.761,-2.5539214410733004
2025-03-30 14:58:39.761,-2.9500689365462196
2025-03-30 14:58:39.770,-0.44927885533580536
2025-03-30 14:58:39.771,2.7567459075508767
2025-03-30 14:58:39.771,3.630147959190762
2025-03-30 14:58:39.771,1.1508636297991812
2025-03-30 14:58:39.771,-2.559018557470321
2025-03-30 14:58:39.781,-4.029055138451403
2025-03-30 14:58:39.781,-1.7490261982886934
2025-03-30 14:58:39.781,2.156502724417872
2025-03-30 14:58:39.781,3.8650968479635357
2025-03-30 14:58:39.781,1.7514279311229948
2025-03-30 14:58:39.789,-1.8514991684876798
2025-03-30 14:58:39.789,-3.160916497312406
2025-03-30 14:58:39.789,-1.0840788817233002
2025-03-30 14:58:39.790,1.7365033908681413
2025-03-30 14:58:39.790,2.157401094263492
2025-03-30 14:58:39.799,0.11509874749387705
2025-03-30 14:58:39.799,-1.6589789482864687
2025-03-30 14:58:39.799,-1.1261546641165676
2025-03-30 14:58:39.799,0.7719373412318141
2025-03-30 14:58:39.800,1.547230692485236
2025-03-30 14:58:39.809,0.2299375145987549
2025-03-30 14:58:39.809,-1.582667894137289
2025-03-30 14:58:39.809,-1.6247825844419943
2025-03-30 14:58:39.809,0.4636140000356207
2025-03-30 14:58:39.819,2.5799733539772407
2025-03-30 14:58:39.819,2.219542953708819
2025-03-30 14:58:39.819,-0.777956875245531
2025-03-30 14:58:39.819,-3.656754569606331
2025-03-30 14:58:39.819,-3.3238454513433497
2025-03-30 14:58:39.829,0.35245410342812733
2025-03-30 14:58:39.829,4.105817692882698
2025-03-30 14:58:39.829,4.36433502613328
2025-03-30 14:58:39.829,0.760626216482407
2025-03-30 14:58:39.829,-3.439301418839944
2025-03-30 14:58:39.839,-4.414619926983596
2025-03-30 14:58:39.839,-1.5059297860701943
2025-03-30 14:58:39.839,2.1002876681834177
2025-03-30 14:58:39.839,2.7852379126053015
2025-03-30 14:58:39.839,0.6027392124340243
2025-03-30 14:58:39.848,-0.950710254058351
2025-03-30 14:58:39.849,0.2641186423423484
2025-03-30 14:58:39.849,1.896533506424601
2025-03-30 14:58:39.849,0.4633435851983101
2025-03-30 14:58:39.849,-3.1442284286558357
2025-03-30 14:58:39.859,-4.2369398945991
2025-03-30 14:58:39.859,-0.7313383150414459
2025-03-30 14:58:39.859,3.7401293095677626
2025-03-30 14:58:39.859,4.5168686925413795
2025-03-30 14:58:39.859,1.5750816288464693
2025-03-30 14:58:39.867,-1.4585056424539873
2025-03-30 14:58:39.867,-2.4197612181555805
2025-03-30 14:58:39.867,-2.222537346182083
2025-03-30 14:58:39.868,-1.9005301253829427
2025-03-30 14:58:39.868,-0.7416163023327424
2025-03-30 14:58:39.877,1.7346070006133303
2025-03-30 14:58:39.877,3.7952693187455107
2025-03-30 14:58:39.877,3.1453374640578486
2025-03-30 14:58:39.878,-0.037354379225708
2025-03-30 14:58:39.878,-3.0716308004691673
2025-03-30 14:58:39.887,-3.692929856192657
2025-03-30 14:58:39.887,-1.9726945521391097
2025-03-30 14:58:39.887,0.6113944333604486
2025-03-30 14:58:39.887,2.730143447704078
2025-03-30 14:58:39.888,3.3659632485052318
2025-03-30 14:58:39.897,1.7422034177399093
2025-03-30 14:58:39.897,-1.5589931073946595
2025-03-30 14:58:39.897,-3.924679420287405
2025-03-30 14:58:39.897,-2.7934154749591356
2025-03-30 14:58:39.907,1.1201770238437496
2025-03-30 14:58:39.907,3.880781874875397
2025-03-30 14:58:39.907,2.558032699120833
2025-03-30 14:58:39.907,-1.2814368200555686
2025-03-30 14:58:39.907,-3.381676946096003
2025-03-30 14:58:39.917,-1.766740826085602
2025-03-30 14:58:39.917,1.3150614111444503
2025-03-30 14:58:39.917,2.5192133205270895
2025-03-30 14:58:39.917,1.192138911725438
2025-03-30 14:58:39.917,-0.6987253830935192
2025-03-30 14:58:39.927,-1.4415870314767047
2025-03-30 14:58:39.927,-1.1188176014395381
2025-03-30 14:58:39.927,-0.5123606091080293
2025-03-30 14:58:39.927,0.22419592361003315
2025-03-30 14:58:39.927,1.206394695139226
2025-03-30 14:58:39.937,1.8005640119246702
2025-03-30 14:58:39.937,0.9494799868341608
2025-03-30 14:58:39.937,-1.1759777273466985
2025-03-30 14:58:39.937,-2.536844443422079
2025-03-30 14:58:39.937,-1.3095191002278062
2025-03-30 14:58:39.947,1.3654711535620843
2025-03-30 14:58:39.947,2.163655455944188
2025-03-30 14:58:39.947,-0.02910064581835972
2025-03-30 14:58:39.947,-2.0206169144435635
2025-03-30 14:58:39.947,-0.4927701027151019
2025-03-30 14:58:39.957,2.7741550893319364
2025-03-30 14:58:39.957,2.7179341604036993
2025-03-30 14:58:39.957,-1.7496243519548147
2025-03-30 14:58:39.957,-5.360551275667143
2025-03-30 14:58:39.957,-3.087858629303324
2025-03-30 14:58:39.966,3.062754056972393
2025-03-30 14:58:39.967,6.35966388308835
2025-03-30 14:58:39.967,3.4286262519275703
2025-03-30 14:58:39.967,-2.42043737414549
2025-03-30 14:58:39.967,-5.664856045395691
2025-03-30 14:58:39.977,-4.098612897463809
2025-03-30 14:58:39.977,0.3493891799393888
2025-03-30 14:58:39.977,4.180589474025973
2025-03-30 14:58:39.977,4.736218841559942
2025-03-30 14:58:39.977,1.6264835381997813
2025-03-30 14:58:39.986,-2.73148131275797
2025-03-30 14:58:39.987,-4.60793394613773
2025-03-30 14:58:39.987,-2.3465482885558773
2025-03-30 14:58:39.987,1.6965044631468162
2025-03-30 14:58:39.987,3.480938317105531
2025-03-30 14:58:39.997,1.656612617820754
2025-03-30 14:58:39.997,-1.188379842160058
2025-03-30 14:58:39.997,-1.8674827585292895
2025-03-30 14:58:39.997,-0.2616158452153945
2025-03-30 14:58:39.997,1.0982308307190416
2025-03-30 14:58:40.007,0.5400025766383258
2025-03-30 14:58:40.007,-0.8400326737191611
2025-03-30 14:58:40.007,-1.0425526553042326
2025-03-30 14:58:40.007,0.06104556737333024
2025-03-30 14:58:40.007,0.8382349140988938
2025-03-30 14:58:40.016,0.4532262625219026
2025-03-30 14:58:40.017,-0.016408373603803754
2025-03-30 14:58:40.017,0.4698104446705176
2025-03-30 14:58:40.017,0.9858359523344126
2025-03-30 14:58:40.017,-0.0946542345741772
2025-03-30 14:58:40.026,-2.2909040500726014
2025-03-30 14:58:40.027,-2.919005604913672
2025-03-30 14:58:40.027,-0.3781807209219469
2025-03-30 14:58:40.027,3.3249427015493196
2025-03-30 14:58:40.027,4.364358736712673
2025-03-30 14:58:40.035,1.3822329528146025
2025-03-30 14:58:40.035,-2.834373259124192
2025-03-30 14:58:40.035,-4.361061794711236
2025-03-30 14:58:40.035,-2.2345600503872354
2025-03-30 14:58:40.045,1.0824177751930903
2025-03-30 14:58:40.045,2.8381318160519102
2025-03-30 14:58:40.045,2.4846646137792163
2025-03-30 14:58:40.045,1.0210444400292646
2025-03-30 14:58:40.045,-0.7453507438769876
2025-03-30 14:58:40.055,-2.279517306720129
2025-03-30 14:58:40.055,-2.531102690821714
2025-03-30 14:58:40.055,-0.7006414491025649
2025-03-30 14:58:40.055,2.0096612790954507
2025-03-30 14:58:40.055,2.8612969738858656
2025-03-30 14:58:40.065,0.7792847844039168
2025-03-30 14:58:40.065,-1.8321910387569496
2025-03-30 14:58:40.065,-1.855472395762015
2025-03-30 14:58:40.065,0.4031204866489244
2025-03-30 14:58:40.066,1.5827030457056626
2025-03-30 14:58:40.075,-0.01296513277220293
2025-03-30 14:58:40.075,-1.9816995175000964
2025-03-30 14:58:40.075,-1.2461300931334578
2025-03-30 14:58:40.075,1.558528698296557
2025-03-30 14:58:40.075,2.914028415081426
2025-03-30 14:58:40.085,1.0801054116554785
2025-03-30 14:58:40.085,-1.8381086277415888
2025-03-30 14:58:40.085,-2.7018537166172263
2025-03-30 14:58:40.085,-0.9419505048162092
2025-03-30 14:58:40.085,1.2404309664154454
2025-03-30 14:58:40.095,1.6024221155023637
2025-03-30 14:58:40.095,0.18564050708035423
2025-03-30 14:58:40.095,-0.9783812614145754
2025-03-30 14:58:40.095,-0.2802175955154823
2025-03-30 14:58:40.095,1.4427788884710333
2025-03-30 14:58:40.105,1.6675731598770775
2025-03-30 14:58:40.105,-0.6740566475612164
2025-03-30 14:58:40.105,-3.3015712284078216
2025-03-30 14:58:40.105,-2.832361266225831
2025-03-30 14:58:40.105,0.9815021803420353
2025-03-30 14:58:40.115,4.358078227843473
2025-03-30 14:58:40.115,3.5679992917852315
2025-03-30 14:58:40.115,-0.7223527380291949
2025-03-30 14:58:40.115,-4.103219032421967
2025-03-30 14:58:40.115,-3.2778167519089365
2025-03-30 14:58:40.125,0.4732506481679525
2025-03-30 14:58:40.125,2.9242054005366507
2025-03-30 14:58:40.125,1.6836435083008792
2025-03-30 14:58:40.125,-1.1376936816933472
2025-03-30 14:58:40.125,-1.5333416683833818
2025-03-30 14:58:40.134,1.2072022911390021
2025-03-30 14:58:40.135,3.1175465863765757
2025-03-30 14:58:40.135,0.49873573490271267
2025-03-30 14:58:40.135,-4.568097377086234
2025-03-30 14:58:40.135,-5.781409853819175
2025-03-30 14:58:40.144,-0.3126671516595638
2025-03-30 14:58:40.145,6.834455911459748
2025-03-30 14:58:40.145,7.866698683182529
2025-03-30 14:58:40.145,1.088806440634774
2025-03-30 14:58:40.145,-6.886105844839829
2025-03-30 14:58:40.155,-8.225906803847797
2025-03-30 14:58:40.155,-2.1232178983261885
2025-03-30 14:58:40.155,4.887763316589594
2025-03-30 14:58:40.155,6.349028602304199
2025-03-30 14:58:40.155,2.351460733774496
2025-03-30 14:58:40.164,-1.883164661323852
2025-03-30 14:58:40.165,-2.676399821649421
2025-03-30 14:58:40.165,-1.3401753168218153
2025-03-30 14:58:40.165,-0.8727105211130575
2025-03-30 14:58:40.165,-1.3550985864844098
2025-03-30 14:58:40.174,-0.46714015966086964
2025-03-30 14:58:40.175,2.2547989811193605
2025-03-30 14:58:40.175,3.9984859432901034
2025-03-30 14:58:40.175,2.2320251211328617
2025-03-30 14:58:40.175,-1.804802809216865
2025-03-30 14:58:40.184,-4.386666881132624
2025-03-30 14:58:40.185,-3.37385618696494
2025-03-30 14:58:40.185,0.06810354337422425
2025-03-30 14:58:40.185,3.2087137777826764
2025-03-30 14:58:40.185,3.955910403889344
2025-03-30 14:58:40.193,1.7826653605191047
2025-03-30 14:58:40.193,-1.9009189234126782
2025-03-30 14:58:40.193,-4.140854020526803
2025-03-30 14:58:40.194,-2.7433550027154006
2025-03-30 14:58:40.194,1.1267200355283196
2025-03-30 14:58:40.203,3.692259459477605
2025-03-30 14:58:40.203,2.604449697506357
2025-03-30 14:58:40.203,-0.5788326329238399
2025-03-30 14:58:40.204,-2.560338221815801
2025-03-30 14:58:40.204,-1.9954203258836245
2025-03-30 14:58:40.213,-0.11744862613896734
2025-03-30 14:58:40.213,1.3998600601142053
2025-03-30 14:58:40.213,1.8138801959818864
2025-03-30 14:58:40.213,0.9779261672774093
2025-03-30 14:58:40.223,-0.8135269298813672
2025-03-30 14:58:40.223,-2.353113014899394
2025-03-30 14:58:40.223,-2.0216025460292673
2025-03-30 14:58:40.223,0.46748320127403764
2025-03-30 14:58:40.223,3.129234141527408
2025-03-30 14:58:40.233,3.2216059542683118
2025-03-30 14:58:40.233,0.1439667253012548
2025-03-30 14:58:40.233,-3.3895665649558366
2025-03-30 14:58:40.233,-3.828101028704377
2025-03-30 14:58:40.233,-0.705571057973239
2025-03-30 14:58:40.243,2.665453584498116
2025-03-30 14:58:40.243,2.967302199976668
2025-03-30 14:58:40.243,0.5944017364465222
2025-03-30 14:58:40.243,-1.3094019342944345
2025-03-30 14:58:40.243,-0.9645700643341789
2025-03-30 14:58:40.252,0.2581422953830622
2025-03-30 14:58:40.253,0.2825698151679854
2025-03-30 14:58:40.253,-0.8163859518406651
2025-03-30 14:58:40.253,-1.29707794544658
2025-03-30 14:58:40.253,-0.30186841228580324
2025-03-30 14:58:40.263,1.2120107926212396
2025-03-30 14:58:40.263,1.8743223893379763
2025-03-30 14:58:40.263,1.2602545405327419
2025-03-30 14:58:40.263,-0.1756335331569055
2025-03-30 14:58:40.263,-1.648582755849112
2025-03-30 14:58:40.271,-2.2599193946958325
2025-03-30 14:58:40.271,-1.3705947871017694
2025-03-30 14:58:40.272,0.6783234067214027
2025-03-30 14:58:40.272,2.4381390779285472
2025-03-30 14:58:40.272,2.4273944204898705
2025-03-30 14:58:40.283,0.5299043829345663
2025-03-30 14:58:40.283,-1.736683428885329
2025-03-30 14:58:40.283,-2.4941415392810447
2025-03-30 14:58:40.283,-1.227274594632435
2025-03-30 14:58:40.283,0.714037229043356
2025-03-30 14:58:40.291,1.5251002529095572
2025-03-30 14:58:40.291,0.9121859255133049
2025-03-30 14:58:40.291,0.20809069486499027
2025-03-30 14:58:40.292,0.264879287107476
2025-03-30 14:58:40.292,0.1032115562743787
2025-03-30 14:58:40.301,-1.2440946848107453
2025-03-30 14:58:40.301,-2.304840286848535
2025-03-30 14:58:40.302,-0.6951141526936438
2025-03-30 14:58:40.302,2.722420482962925
2025-03-30 14:58:40.302,3.695103200967426
2025-03-30 14:58:40.311,0.10572481609498513
2025-03-30 14:58:40.311,-4.27032358470292
2025-03-30 14:58:40.311,-3.9321797501994435
2025-03-30 14:58:40.311,1.1832612232035578
2025-03-30 14:58:40.321,5.2165672436211326
2025-03-30 14:58:40.321,3.4366331276118567
2025-03-30 14:58:40.321,-2.17959865959309
2025-03-30 14:58:40.321,-5.467829353935327
2025-03-30 14:58:40.321,-3.0514629805422624
2025-03-30 14:58:40.331,2.382230516924344
2025-03-30 14:58:40.331,5.368589970312976
2025-03-30 14:58:40.331,3.2291866892432552
2025-03-30 14:58:40.331,-1.7488538860706144
2025-03-30 14:58:40.331,-4.971112988722439
2025-03-30 14:58:40.341,-3.834352129624925
2025-03-30 14:58:40.341,0.36344403267473735
2025-03-30 14:58:40.341,4.013772434612742
2025-03-30 14:58:40.341,4.305924020493664
2025-03-30 14:58:40.341,1.282953509567287
2025-03-30 14:58:40.351,-2.4285272097409663
2025-03-30 14:58:40.351,-3.884513800240143
2025-03-30 14:58:40.351,-2.310044427859207
2025-03-30 14:58:40.351,0.47130471981878985
2025-03-30 14:58:40.351,2.155478157716643
2025-03-30 14:58:40.361,2.1939724014411683
2025-03-30 14:58:40.361,1.5085628805285067
2025-03-30 14:58:40.361,0.530168756633734
2025-03-30 14:58:40.361,-1.1778513580171595
2025-03-30 14:58:40.361,-3.1023824037982894
2025-03-30 14:58:40.371,-3.1218864657871186
2025-03-30 14:58:40.371,-0.06311751767884137
2025-03-30 14:58:40.371,3.7603889994473207
2025-03-30 14:58:40.371,4.3625851944500385
2025-03-30 14:58:40.371,0.8373129372761516
2025-03-30 14:58:40.381,-3.124576411945971
2025-03-30 14:58:40.381,-3.4877698753103767
2025-03-30 14:58:40.381,-0.6695073828991429
2025-03-30 14:58:40.381,1.4373751344554868
2025-03-30 14:58:40.381,0.8301343116630746
2025-03-30 14:58:40.390,-0.31559656729447155
2025-03-30 14:58:40.391,0.4997008286040331
2025-03-30 14:58:40.391,2.005733034245223
2025-03-30 14:58:40.391,1.1378308244550688
2025-03-30 14:58:40.391,-1.8229942701512105
2025-03-30 14:58:40.399,-3.0190295413859602
2025-03-30 14:58:40.399,-0.574872858023564
2025-03-30 14:58:40.399,2.2638984335160135
2025-03-30 14:58:40.400,1.5234547133996144
2025-03-30 14:58:40.400,-1.648616830786378
2025-03-30 14:58:40.409,-2.326205942710987
2025-03-30 14:58:40.409,1.1931430234146478
2025-03-30 14:58:40.409,4.51196109349572
2025-03-30 14:58:40.410,2.651514033312537
2025-03-30 14:58:40.410,-3.20999812653137
2025-03-30 14:58:40.419,-6.62276096374392
2025-03-30 14:58:40.419,-3.3532459083869686
2025-03-30 14:58:40.419,3.618703322571367
2025-03-30 14:58:40.420,7.268683157328323
2025-03-30 14:58:40.429,3.9802978345894338
2025-03-30 14:58:40.429,-2.845814705453593
2025-03-30 14:58:40.429,-6.498261129453807
2025-03-30 14:58:40.429,-3.838718027840969
2025-03-30 14:58:40.429,1.7999010056745213
2025-03-30 14:58:40.439,4.610384974716579
2025-03-30 14:58:40.439,2.609759416206886
2025-03-30 14:58:40.439,-0.9423114957157739
2025-03-30 14:58:40.439,-2.1492284611506824
2025-03-30 14:58:40.440,-0.8527288387093257
2025-03-30 14:58:40.449,0.3622485050545651
2025-03-30 14:58:40.449,0.0761226339807055
2025-03-30 14:58:40.449,-0.631343786949467
2025-03-30 14:58:40.449,-0.2776954634428967
2025-03-30 14:58:40.449,0.9652544872288155
2025-03-30 14:58:40.459,1.581689481295937
2025-03-30 14:58:40.459,0.56930075082034
2025-03-30 14:58:40.459,-1.2398020723832763
2025-03-30 14:58:40.459,-1.8725077789744247
2025-03-30 14:58:40.459,-0.49271484562043955
2025-03-30 14:58:40.468,1.3266338339167865
2025-03-30 14:58:40.469,1.3456307681334982
2025-03-30 14:58:40.469,-0.41934170089718764
2025-03-30 14:58:40.469,-1.5330041397242793
2025-03-30 14:58:40.469,-0.3068131884569252
2025-03-30 14:58:40.477,1.798057476741288
2025-03-30 14:58:40.477,1.874342564877153
2025-03-30 14:58:40.477,-0.65459990268461
2025-03-30 14:58:40.478,-2.995743995419557
2025-03-30 14:58:40.487,-2.14806741429135
2025-03-30 14:58:40.487,1.3706767883587556
2025-03-30 14:58:40.487,3.7109823843455914
2025-03-30 14:58:40.487,1.9833406084087588
2025-03-30 14:58:40.488,-2.0822814377056487
2025-03-30 14:58:40.497,-3.799795643702236
2025-03-30 14:58:40.497,-1.1331917901874773
2025-03-30 14:58:40.497,2.6311948782894246
2025-03-30 14:58:40.497,2.990713113523289
2025-03-30 14:58:40.498,-0.04556862322629343
2025-03-30 14:58:40.498,-2.3463183842649697
2025-03-30 14:58:40.507,-1.4271738126803883
2025-03-30 14:58:40.507,0.689204651930507
2025-03-30 14:58:40.507,1.0932123703723722
2025-03-30 14:58:40.508,0.05550334909322019
2025-03-30 14:58:40.508,-0.2874042274965353
2025-03-30 14:58:40.517,0.3311324606916938
2025-03-30 14:58:40.517,0.257400463088261
2025-03-30 14:58:40.517,-0.8879987660377535
2025-03-30 14:58:40.518,-1.2579909341984405
2025-03-30 14:58:40.527,0.35842603324400585
2025-03-30 14:58:40.527,2.278032388059228
2025-03-30 14:58:40.527,1.7924003607396088
2025-03-30 14:58:40.527,-1.1664710019102327
2025-03-30 14:58:40.527,-3.427132223824678
2025-03-30 14:58:40.537,-2.1314833966897706
2025-03-30 14:58:40.537,1.6776030661641719
2025-03-30 14:58:40.537,3.9227241620356157
2025-03-30 14:58:40.537,2.1164470873602785
2025-03-30 14:58:40.537,-1.73191649749938
2025-03-30 14:58:40.547,-3.527205228231023
2025-03-30 14:58:40.547,-1.7556582293843608
2025-03-30 14:58:40.547,1.313423581207976
2025-03-30 14:58:40.547,2.664449682248353
2025-03-30 14:58:40.547,1.4304667741307346
2025-03-30 14:58:40.557,-1.0526336299885353
2025-03-30 14:58:40.557,-2.5313982582543617
2025-03-30 14:58:40.557,-1.2253895298646822
2025-03-30 14:58:40.557,2.2073992229528554
2025-03-30 14:58:40.558,3.970098688383547
2025-03-30 14:58:40.567,0.783637049778614
2025-03-30 14:58:40.567,-4.955982452415823
2025-03-30 14:58:40.567,-6.336789368439437
2025-03-30 14:58:40.567,-0.23066753224187286
2025-03-30 14:58:40.567,7.543202014424562
2025-03-30 14:58:40.576,8.16573537218187
2025-03-30 14:58:40.577,0.31627390708100733
2025-03-30 14:58:40.577,-7.962555430510119
2025-03-30 14:58:40.577,-8.396390236384502
2025-03-30 14:58:40.577,-1.34470241505912
2025-03-30 14:58:40.586,5.685609497718378
2025-03-30 14:58:40.587,6.767947214094671
2025-03-30 14:58:40.587,2.719206623808599
2025-03-30 14:58:40.587,-1.834845903707182
2025-03-30 14:58:40.587,-3.8859630363300504
2025-03-30 14:58:40.595,-3.4704294533411577
2025-03-30 14:58:40.595,-1.6210351228185582
2025-03-30 14:58:40.595,0.8894301226106328
2025-03-30 14:58:40.595,2.985884981893959
2025-03-30 14:58:40.596,3.235334715414037
2025-03-30 14:58:40.605,1.2220034498292762
2025-03-30 14:58:40.605,-1.5359816642478437
2025-03-30 14:58:40.605,-2.787747201175005
2025-03-30 14:58:40.606,-1.824965689344033
2025-03-30 14:58:40.615,-0.12915072929756444
2025-03-30 14:58:40.615,0.638213735316577
2025-03-30 14:58:40.615,0.7718586725965532
2025-03-30 14:58:40.615,1.5922636020710033
2025-03-30 14:58:40.615,2.5928879629155492
2025-03-30 14:58:40.625,1.3779375803135399
2025-03-30 14:58:40.625,-2.5499723936690692
2025-03-30 14:58:40.625,-5.565580962203024
2025-03-30 14:58:40.625,-3.5769177810320936
2025-03-30 14:58:40.625,2.464549389041908
2025-03-30 14:58:40.635,6.729984094341316
2025-03-30 14:58:40.635,4.833294502905051
2025-03-30 14:58:40.635,-1.276534552693708
2025-03-30 14:58:40.635,-5.625510968579472
2025-03-30 14:58:40.635,-4.640359393377141
2025-03-30 14:58:40.645,-0.23118918446125414
2025-03-30 14:58:40.645,3.158122019267792
2025-03-30 14:58:40.645,3.2387475739758744
2025-03-30 14:58:40.645,1.1704345492712895
2025-03-30 14:58:40.645,-0.7411640479080934
2025-03-30 14:58:40.655,-1.40466714977187
2025-03-30 14:58:40.655,-1.1227779926199803
2025-03-30 14:58:40.655,-0.5457908359263672
2025-03-30 14:58:40.655,-0.07223052685089786
2025-03-30 14:58:40.655,0.15133944752085673
2025-03-30 14:58:40.665,0.2609549211591486
2025-03-30 14:58:40.665,0.6298820216527558
2025-03-30 14:58:40.665,1.2774899829850896
2025-03-30 14:58:40.665,1.3192312998837745
2025-03-30 14:58:40.665,-0.21617993603100374
2025-03-30 14:58:40.675,-2.551215027001847
2025-03-30 14:58:40.675,-3.0693301578682464
2025-03-30 14:58:40.675,-0.3600392899609368
2025-03-30 14:58:40.675,3.1430202605702875
2025-03-30 14:58:40.675,3.446388517759053
2025-03-30 14:58:40.684,0.14507989881202954
2025-03-30 14:58:40.685,-2.738555150429555
2025-03-30 14:58:40.685,-1.9641805227845703
2025-03-30 14:58:40.685,0.8129506151465763
2025-03-30 14:58:40.685,1.7191021051054336
2025-03-30 14:58:40.693,-0.04468358473696252
2025-03-30 14:58:40.693,-1.7098106672947013
2025-03-30 14:58:40.693,-1.095671782187059
2025-03-30 14:58:40.694,0.8689904529228661
2025-03-30 14:58:40.703,1.9624366207666235
2025-03-30 14:58:40.703,1.3481651752515313
2025-03-30 14:58:40.703,-0.18720320338993796
2025-03-30 14:58:40.703,-1.5239306746728953
2025-03-30 14:58:40.703,-1.8954866779494488
2025-03-30 14:58:40.713,-0.9772621885615195
2025-03-30 14:58:40.713,0.7459273908715174
2025-03-30 14:58:40.713,1.9079906794175712
2025-03-30 14:58:40.713,1.4353554887897602
2025-03-30 14:58:40.713,-0.10204284930554204
2025-03-30 14:58:40.723,-1.0475702055583918
2025-03-30 14:58:40.723,-0.7416656414402568
2025-03-30 14:58:40.723,-0.2061437865174859
2025-03-30 14:58:40.723,-0.35615694253214647
2025-03-30 14:58:40.723,-0.5306194378531933
2025-03-30 14:58:40.733,0.2795532725266502
2025-03-30 14:58:40.733,1.473932355136597
2025-03-30 14:58:40.733,1.4029506765411888
2025-03-30 14:58:40.733,-0.24177642383529718
2025-03-30 14:58:40.733,-1.7602050690291033
2025-03-30 14:58:40.743,-1.496074726311905
2025-03-30 14:58:40.743,0.21016926211064274
2025-03-30 14:58:40.743,1.5528044466933757
2025-03-30 14:58:40.743,1.2519316880181979
2025-03-30 14:58:40.743,-0.3591381288841943
2025-03-30 14:58:40.753,-1.7640748177869363
2025-03-30 14:58:40.753,-1.4104610976330585
2025-03-30 14:58:40.753,0.8971689926655578
2025-03-30 14:58:40.753,3.1057264453755393
2025-03-30 14:58:40.753,2.2818830288321164
2025-03-30 14:58:40.763,-1.8356723715891656
2025-03-30 14:58:40.763,-5.227080223336615
2025-03-30 14:58:40.763,-3.432516782508145
2025-03-30 14:58:40.763,2.674900936111866
2025-03-30 14:58:40.763,6.793467624752724
2025-03-30 14:58:40.771,4.11188545332987
2025-03-30 14:58:40.771,-2.79925408675696
2025-03-30 14:58:40.771,-6.670728686633678
2025-03-30 14:58:40.772,-3.7920393215863473
2025-03-30 14:58:40.772,2.1439710407255372
2025-03-30 14:58:40.783,4.871078919322364
2025-03-30 14:58:40.783,2.560757931726474
2025-03-30 14:58:40.783,-1.2608240272668776
2025-03-30 14:58:40.783,-2.6509761592106478
2025-03-30 14:58:40.783,-1.1931746688306821
2025-03-30 14:58:40.791,0.8524213186014306
2025-03-30 14:58:40.791,1.5365742369339066
2025-03-30 14:58:40.791,0.6185042977878232
2025-03-30 14:58:40.792,-0.9594841901436884
2025-03-30 14:58:40.801,-1.9475466874530485
2025-03-30 14:58:40.801,-1.380624789849071
2025-03-30 14:58:40.801,0.7754648353035816
2025-03-30 14:58:40.801,3.0920447689985275
2025-03-30 14:58:40.802,3.2797280178157764
2025-03-30 14:58:40.802,0.30629015044746966
2025-03-30 14:58:40.811,-3.800092752922387
2025-03-30 14:58:40.811,-5.156038729317012
2025-03-30 14:58:40.811,-1.9366664384872043
2025-03-30 14:58:40.811,3.213098896817081
2025-03-30 14:58:40.821,5.5610582812939
2025-03-30 14:58:40.821,3.1433451470784464
2025-03-30 14:58:40.821,-1.4101748603663167
2025-03-30 14:58:40.821,-3.962904991681509
2025-03-30 14:58:40.822,-3.02784611932365
2025-03-30 14:58:40.831,-0.48137926838781175
2025-03-30 14:58:40.831,1.1780850479960618
2025-03-30 14:58:40.831,1.3819547558323062
2025-03-30 14:58:40.831,1.2202971585959428
2025-03-30 14:58:40.831,1.3448785441159956
2025-03-30 14:58:40.841,0.9863009746568325
2025-03-30 14:58:40.841,-0.6429807457673135
2025-03-30 14:58:40.841,-2.552687463587752
2025-03-30 14:58:40.841,-2.6018605759411653
2025-03-30 14:58:40.841,-0.23048796924748904
2025-03-30 14:58:40.851,2.3170003225119253
2025-03-30 14:58:40.851,2.411919142255189
2025-03-30 14:58:40.851,0.2790500843058735
2025-03-30 14:58:40.851,-1.319290621665454
2025-03-30 14:58:40.852,-0.6916598445935234
2025-03-30 14:58:40.861,0.7111166636583083
2025-03-30 14:58:40.861,0.5047056462278486
2025-03-30 14:58:40.861,-1.255030147986191
2025-03-30 14:58:40.861,-2.0917997594091213
2025-03-30 14:58:40.861,-0.4065342548613603
2025-03-30 14:58:40.871,2.284509846877773
2025-03-30 14:58:40.871,2.996916826634807
2025-03-30 14:58:40.871,0.7762876021853969
2025-03-30 14:58:40.871,-2.1495854383964454
2025-03-30 14:58:40.871,-2.8766116131441373
2025-03-30 14:58:40.881,-0.9662462243911378
2025-03-30 14:58:40.881,1.3730917957920052
2025-03-30 14:58:40.881,1.9196488062776025
2025-03-30 14:58:40.881,0.5924757214957159
2025-03-30 14:58:40.881,-0.9391675885732443
2025-03-30 14:58:40.891,-1.08497231131552
2025-03-30 14:58:40.891,0.30780138766240517
2025-03-30 14:58:40.891,1.761717042910676
2025-03-30 14:58:40.891,1.306437453054044
2025-03-30 14:58:40.891,-1.3522470081683062
2025-03-30 14:58:40.901,-3.695238470890959
2025-03-30 14:58:40.901,-2.5711984180682332
2025-03-30 14:58:40.901,1.8597247917149153
2025-03-30 14:58:40.901,5.371752099513609
2025-03-30 14:58:40.901,3.986665385361562
2025-03-30 14:58:40.909,-1.3573169594129957
2025-03-30 14:58:40.909,-5.524742506774134
2025-03-30 14:58:40.909,-4.605056485703298
2025-03-30 14:58:40.910,0.18087945260608307
2025-03-30 14:58:40.910,4.144790125781394
2025-03-30 14:58:40.919,4.0081080652256285
2025-03-30 14:58:40.919,0.7276526071570222
2025-03-30 14:58:40.919,-2.1485651081384245
2025-03-30 14:58:40.920,-2.3449681835200464
2025-03-30 14:58:40.920,-0.7622826950158412
2025-03-30 14:58:40.929,0.3412694960734565
2025-03-30 14:58:40.929,0.28583122511620795
2025-03-30 14:58:40.929,0.21272758203867775
2025-03-30 14:58:40.929,0.7685972440501418
2025-03-30 14:58:40.939,1.0594363352454697
2025-03-30 14:58:40.939,0.36726837206019713
2025-03-30 14:58:40.939,-0.54629486737195
2025-03-30 14:58:40.939,-0.8091380144583852
2025-03-30 14:58:40.939,-0.8458587836860674
2025-03-30 14:58:40.949,-1.1464443565664155
2025-03-30 14:58:40.949,-0.7692174442347637
2025-03-30 14:58:40.949,1.1597325698159069
2025-03-30 14:58:40.949,3.0959418499554596
2025-03-30 14:58:40.949,2.3401961653046612
2025-03-30 14:58:40.959,-1.090077959341551
2025-03-30 14:58:40.959,-3.705844494100518
2025-03-30 14:58:40.959,-2.642706483597864
2025-03-30 14:58:40.960,0.7282702265076093
2025-03-30 14:58:40.960,2.6023554206048436
2025-03-30 14:58:40.969,1.4748882287818164
2025-03-30 14:58:40.969,-0.4859858874408083
2025-03-30 14:58:40.969,-0.7909366545058513
2025-03-30 14:58:40.969,0.2532690488939269
2025-03-30 14:58:40.969,0.6093317591465988
2025-03-30 14:58:40.979,-0.39628038742518995
2025-03-30 14:58:40.979,-1.3656519969294096
2025-03-30 14:58:40.979,-0.9661192265444019
2025-03-30 14:58:40.979,0.3962049434416358
2025-03-30 14:58:40.979,1.3519784865665923
2025-03-30 14:58:40.987,1.2400071324693829
2025-03-30 14:58:40.987,0.45545968812513316
2025-03-30 14:58:40.987,-0.4344266625058651
2025-03-30 14:58:40.988,-1.208336376381496
2025-03-30 14:58:40.988,-1.5939166214877332
2025-03-30 14:58:40.997,-0.9925913575353413
2025-03-30 14:58:40.997,0.8057649639427401
2025-03-30 14:58:40.997,2.6551967389801425
2025-03-30 14:58:40.998,2.5057388109702563
2025-03-30 14:58:40.998,-0.3502322081305227
2025-03-30 14:58:41.007,-3.5562151460206732
2025-03-30 14:58:41.007,-3.442542193306525
2025-03-30 14:58:41.007,0.6010719007548869
2025-03-30 14:58:41.008,4.42063969461942
2025-03-30 14:58:41.017,3.385760599654325
2025-03-30 14:58:41.017,-1.7785446747272224
2025-03-30 14:58:41.017,-5.259016547772813
2025-03-30 14:58:41.017,-2.8946666726379355
2025-03-30 14:58:41.017,2.852087469496243
2025-03-30 14:58:41.027,5.811186873849411
2025-03-30 14:58:41.027,3.0087428758168953
2025-03-30 14:58:41.027,-2.6122590645786756
2025-03-30 14:58:41.027,-5.780450385811941
2025-03-30 14:58:41.027,-3.9313976732162312
2025-03-30 14:58:41.037,1.0668688580705286
2025-03-30 14:58:41.037,4.959516170534092
2025-03-30 14:58:41.037,4.688895403898286
2025-03-30 14:58:41.037,0.8157566728977568
2025-03-30 14:58:41.037,-3.191584799255477
2025-03-30 14:58:41.047,-4.245892990498681
2025-03-30 14:58:41.047,-2.2140685691391093
2025-03-30 14:58:41.047,0.7145566908674634
2025-03-30 14:58:41.047,2.528539521335558
2025-03-30 14:58:41.047,2.7072343906633334
2025-03-30 14:58:41.057,1.6119667323997753
2025-03-30 14:58:41.057,-0.280104005707105
2025-03-30 14:58:41.057,-2.1837816976552227
2025-03-30 14:58:41.057,-2.8448375270385613
2025-03-30 14:58:41.057,-1.496878883556397
2025-03-30 14:58:41.067,0.9987445351274356
2025-03-30 14:58:41.067,2.6310275126636125
2025-03-30 14:58:41.067,2.156174771218208
2025-03-30 14:58:41.067,0.2332708477367916
2025-03-30 14:58:41.067,-1.4484586619187096
2025-03-30 14:58:41.075,-1.7989058105218874
2025-03-30 14:58:41.075,-0.9869743519604672
2025-03-30 14:58:41.075,0.10137788925461867
2025-03-30 14:58:41.076,0.7845560517544535
2025-03-30 14:58:41.076,1.0407711823985342
2025-03-30 14:58:41.085,1.0886492650936888
2025-03-30 14:58:41.085,0.6886980566877636
2025-03-30 14:58:41.086,-0.5723111848828503
2025-03-30 14:58:41.086,-2.104805148551429
2025-03-30 14:58:41.086,-2.237873581969917
2025-03-30 14:58:41.095,-0.13480076238060973
2025-03-30 14:58:41.095,2.611732040711477
2025-03-30 14:58:41.096,3.264082878790993
2025-03-30 14:58:41.096,0.932940889426519
2025-03-30 14:58:41.096,-2.3164052318091795
2025-03-30 14:58:41.105,-3.525903024006655
2025-03-30 14:58:41.105,-1.6844128120937778
2025-03-30 14:58:41.106,1.49875286435657
2025-03-30 14:58:41.106,3.2804522334020856
2025-03-30 14:58:41.106,2.2643538515643207
2025-03-30 14:58:41.115,-0.5447431846598343
2025-03-30 14:58:41.115,-2.750904036627996
2025-03-30 14:58:41.115,-2.638713088578861
2025-03-30 14:58:41.116,-0.48902890943458066
2025-03-30 14:58:41.125,1.8611528519383238
2025-03-30 14:58:41.125,2.6399956073452686
2025-03-30 14:58:41.125,1.4827729769188682
2025-03-30 14:58:41.125,-0.5447451653554654
2025-03-30 14:58:41.126,-2.0073150473261365
2025-03-30 14:58:41.135,-2.1085911063935097
2025-03-30 14:58:41.135,-0.9186134510462008
2025-03-30 14:58:41.135,0.8693904465232287
2025-03-30 14:58:41.135,2.1802011324479906
2025-03-30 14:58:41.136,2.0052819690471266
2025-03-30 14:58:41.145,0.2634841088217351
2025-03-30 14:58:41.145,-1.740986750142642
2025-03-30 14:58:41.145,-2.2942938799753665
2025-03-30 14:58:41.146,-1.0180231884979296
2025-03-30 14:58:41.146,0.7496556341359577
2025-03-30 14:58:41.155,1.5845830311907265
2025-03-30 14:58:41.155,1.4269856915157781
2025-03-30 14:58:41.155,0.9168188908963255
2025-03-30 14:58:41.155,0.01811617115062043
2025-03-30 14:58:41.155,-1.5683651031449544
2025-03-30 14:58:41.165,-2.867306890236514
2025-03-30 14:58:41.165,-1.968473485637286
2025-03-30 14:58:41.165,1.3440652083354285
2025-03-30 14:58:41.165,4.2102844085125515
2025-03-30 14:58:41.166,3.320050082098516
2025-03-30 14:58:41.175,-0.9602057528302229
2025-03-30 14:58:41.175,-4.337375231388319
2025-03-30 14:58:41.175,-3.303709904247828
2025-03-30 14:58:41.175,0.7604332076846538
2025-03-30 14:58:41.175,3.3748507898487
2025-03-30 14:58:41.185,2.281462919173616
2025-03-30 14:58:41.185,-0.5360426003205334
2025-03-30 14:58:41.185,-2.01926974051861
2025-03-30 14:58:41.185,-1.4542073143535865
2025-03-30 14:58:41.185,-0.11786008409777607
2025-03-30 14:58:41.193,0.9330604485520877
2025-03-30 14:58:41.193,1.4188038860892551
2025-03-30 14:58:41.193,1.0567507513459586
2025-03-30 14:58:41.193,-0.2593108721532537
2025-03-30 14:58:41.204,-1.6369208927277583
2025-03-30 14:58:41.205,-1.7499190387074437
2025-03-30 14:58:41.205,-0.4076672347198327
2025-03-30 14:58:41.205,1.2266566324401798
2025-03-30 14:58:41.205,1.9954964934527855
2025-03-30 14:58:41.205,1.5685467399873736
2025-03-30 14:58:41.213,0.07936849021092263
2025-03-30 14:58:41.213,-1.936601812682352
2025-03-30 14:58:41.214,-3.072886148067809
2025-03-30 14:58:41.214,-1.7837072381323515
2025-03-30 14:58:41.223,1.5610613438580276
2025-03-30 14:58:41.223,4.094468480145584
2025-03-30 14:58:41.223,3.087313153963071
2025-03-30 14:58:41.223,-0.8262836003961339
2025-03-30 14:58:41.224,-3.941887064267849
2025-03-30 14:58:41.233,-3.360050006916815
2025-03-30 14:58:41.233,-0.004769891879853799
2025-03-30 14:58:41.233,2.660519409135502
2025-03-30 14:58:41.233,2.4760746548735395
2025-03-30 14:58:41.234,0.4762008956151731
2025-03-30 14:58:41.243,-0.9330389627856237
2025-03-30 14:58:41.243,-0.8439153462946316
2025-03-30 14:58:41.243,-0.3294545165078145
2025-03-30 14:58:41.243,-0.4504627022182626
2025-03-30 14:58:41.244,-0.7532512146377828
2025-03-30 14:58:41.253,-0.20639835652234723
2025-03-30 14:58:41.253,1.0075562501805804
2025-03-30 14:58:41.253,1.5446697642935523
2025-03-30 14:58:41.253,0.6929352454971609
2025-03-30 14:58:41.253,-0.7052800831297935
2025-03-30 14:58:41.263,-1.370140093270741
2025-03-30 14:58:41.263,-0.9745389473814475
2025-03-30 14:58:41.263,-0.08695070250042823
2025-03-30 14:58:41.263,0.6774086403558133
2025-03-30 14:58:41.263,0.9912381321550477
2025-03-30 14:58:41.273,0.756623545314614
2025-03-30 14:58:41.273,0.18006154818082232
2025-03-30 14:58:41.273,-0.36486974421009943
2025-03-30 14:58:41.273,-0.7706388248964345
2025-03-30 14:58:41.273,-1.1065267040663116
2025-03-30 14:58:41.283,-1.0216065069450906
2025-03-30 14:58:41.283,0.047915509318048555
2025-03-30 14:58:41.283,1.712431662214992
2025-03-30 14:58:41.283,2.393078708237297
2025-03-30 14:58:41.283,0.9911102687993635
2025-03-30 14:58:41.291,-1.5044187070905024
2025-03-30 14:58:41.291,-2.796060247306525
2025-03-30 14:58:41.292,-1.7138607925757066
2025-03-30 14:58:41.292,0.6108911465648436
2025-03-30 14:58:41.292,2.097911776175378
2025-03-30 14:58:41.303,1.779054202444026
2025-03-30 14:58:41.303,0.3155602957658681
2025-03-30 14:58:41.303,-1.0166830336529933
2025-03-30 14:58:41.303,-1.3633669211274206
2025-03-30 14:58:41.303,-0.6503110158438039
2025-03-30 14:58:41.311,0.42322046177485934
2025-03-30 14:58:41.311,0.7831507401611117
2025-03-30 14:58:41.311,0.015641278027831412
2025-03-30 14:58:41.312,-0.8386652157459751
2025-03-30 14:58:41.321,-0.2247119746613062
2025-03-30 14:58:41.321,1.689810396621311
2025-03-30 14:58:41.321,2.415668070331817
2025-03-30 14:58:41.321,-0.06731510173377812
2025-03-30 14:58:41.322,-4.016188623016363
2025-03-30 14:58:41.331,-4.860603405488998
2025-03-30 14:58:41.331,-0.36214700662883903
2025-03-30 14:58:41.331,5.881056262450121
2025-03-30 14:58:41.331,7.401513623247509
2025-03-30 14:58:41.332,1.7357705513459536
2025-03-30 14:58:41.341,-6.300251766393732
2025-03-30 14:58:41.341,-8.978553427303796
2025-03-30 14:58:41.341,-3.4755349288854047
2025-03-30 14:58:41.341,5.0824638934677875
2025-03-30 14:58:41.342,8.714380060271779
2025-03-30 14:58:41.349,4.505813281866586
2025-03-30 14:58:41.349,-2.9060495016912777
2025-03-30 14:58:41.350,-6.534446755149801
2025-03-30 14:58:41.350,-4.025113572483276
2025-03-30 14:58:41.350,0.8896329247074704
2025-03-30 14:58:41.361,3.260171820546823
2025-03-30 14:58:41.361,2.0506141688804305
2025-03-30 14:58:41.361,0.03100171078800787
2025-03-30 14:58:41.361,-0.31644279581623025
2025-03-30 14:58:41.361,0.5704705987583935
2025-03-30 14:58:41.369,0.6430030636462049
2025-03-30 14:58:41.369,-0.9659587777150226
2025-03-30 14:58:41.370,-2.841730122788606
2025-03-30 14:58:41.370,-2.6107733012500773
2025-03-30 14:58:41.370,0.5054995146655046
2025-03-30 14:58:41.379,4.147054122024813
2025-03-30 14:58:41.379,4.516764341063169
2025-03-30 14:58:41.380,0.5517346991085409
2025-03-30 14:58:41.380,-4.15437621749691
2025-03-30 14:58:41.380,-4.91265626887242
2025-03-30 14:58:41.389,-1.24807605931891
2025-03-30 14:58:41.389,2.760230427336262
2025-03-30 14:58:41.390,3.5022039130940845
2025-03-30 14:58:41.390,1.5257257017078034
2025-03-30 14:58:41.399,-0.41416960840294165
2025-03-30 14:58:41.399,-1.21521198807857
2025-03-30 14:58:41.399,-1.6832791491880996
2025-03-30 14:58:41.399,-1.9092480365895712
2025-03-30 14:58:41.400,-0.6846936083879972
2025-03-30 14:58:41.409,1.9603885914185282
2025-03-30 14:58:41.409,3.4478653808707094
2025-03-30 14:58:41.409,1.4821919751910315
2025-03-30 14:58:41.409,-2.4306470393716753
2025-03-30 14:58:41.409,-4.061501388337906
2025-03-30 14:58:41.419,-1.4297659032966612
2025-03-30 14:58:41.419,2.6719419156842408
2025-03-30 14:58:41.419,3.9531369093934723
2025-03-30 14:58:41.419,1.4395237937976917
2025-03-30 14:58:41.419,-2.017081424811507
2025-03-30 14:58:41.429,-3.326750971825119
2025-03-30 14:58:41.429,-1.9876370526296736
2025-03-30 14:58:41.429,0.42210601034310047
2025-03-30 14:58:41.429,2.2097452396989077
2025-03-30 14:58:41.430,2.551335865822404
2025-03-30 14:58:41.439,1.4072171949719352
2025-03-30 14:58:41.439,-0.6278838388951192
2025-03-30 14:58:41.439,-2.405266599752651
2025-03-30 14:58:41.439,-2.7082320705824223
2025-03-30 14:58:41.439,-1.101191343661119
2025-03-30 14:58:41.449,1.505555963014103
2025-03-30 14:58:41.449,3.207751523373264
2025-03-30 14:58:41.449,2.4644121140746504
2025-03-30 14:58:41.449,-0.40201660796316835
2025-03-30 14:58:41.449,-3.07781927499629
2025-03-30 14:58:41.459,-3.120493230418054
2025-03-30 14:58:41.459,-0.3399506373404134
2025-03-30 14:58:41.459,2.715139754455843
2025-03-30 14:58:41.459,3.0263448606750707
2025-03-30 14:58:41.459,0.2438838052436543
2025-03-30 14:58:41.467,-2.5996863536942345
2025-03-30 14:58:41.467,-2.207917948469166
2025-03-30 14:58:41.467,0.9936583884710114
2025-03-30 14:58:41.468,2.965464807054071
2025-03-30 14:58:41.468,0.9019076136970403
2025-03-30 14:58:41.477,-2.9106970472725116
2025-03-30 14:58:41.477,-3.556659471236846
2025-03-30 14:58:41.478,0.2989543132733251
2025-03-30 14:58:41.478,4.343241628198531
2025-03-30 14:58:41.478,3.7086554978322845
2025-03-30 14:58:41.487,-0.994143159028382
2025-03-30 14:58:41.487,-4.392687590234372
2025-03-30 14:58:41.487,-2.9102017301429943
2025-03-30 14:58:41.488,1.2200992828136918
2025-03-30 14:58:41.497,3.24102804549967
2025-03-30 14:58:41.497,1.5888999553658492
2025-03-30 14:58:41.497,-1.1925204516116505
2025-03-30 14:58:41.498,-2.2250863938585494
2025-03-30 14:58:41.498,-0.9953923091574158
2025-03-30 14:58:41.507,1.3118554227229546
2025-03-30 14:58:41.507,2.959001940750654
2025-03-30 14:58:41.507,2.006787384700374
2025-03-30 14:58:41.507,-1.9831545545472127
2025-03-30 14:58:41.508,-5.704885591779426
2025-03-30 14:58:41.517,-4.173597566611775
2025-03-30 14:58:41.517,2.8946856652422377
2025-03-30 14:58:41.517,8.665093923159247
2025-03-30 14:58:41.517,6.111630944547456
2025-03-30 14:58:41.517,-3.100464467298239
2025-03-30 14:58:41.527,-9.547227095151326
2025-03-30 14:58:41.527,-6.6113820829889445
2025-03-30 14:58:41.527,2.1530484311660048
2025-03-30 14:58:41.527,7.657850281027269
2025-03-30 14:58:41.527,5.510774722589933
2025-03-30 14:58:41.537,-0.553314472672874
2025-03-30 14:58:41.537,-4.412938506705167
2025-03-30 14:58:41.537,-3.8479820392382225
2025-03-30 14:58:41.537,-0.781230737758898
2025-03-30 14:58:41.538,2.0215680656045416
2025-03-30 14:58:41.547,2.855047070649232
2025-03-30 14:58:41.547,1.2933403329416895
2025-03-30 14:58:41.547,-1.4657633499620946
2025-03-30 14:58:41.547,-2.8698574562086185
2025-03-30 14:58:41.548,-1.2332348727517817
2025-03-30 14:58:41.557,2.0177833766331337
2025-03-30 14:58:41.557,3.372455169788665
2025-03-30 14:58:41.557,1.1141762458282871
2025-03-30 14:58:41.557,-2.4497807247898744
2025-03-30 14:58:41.557,-3.469742401289237
2025-03-30 14:58:41.567,-1.0434916048427854
2025-03-30 14:58:41.567,1.8532103721116966
2025-03-30 14:58:41.567,2.2683501839941163
2025-03-30 14:58:41.567,0.8442552831027264
2025-03-30 14:58:41.567,0.1844657956157303
2025-03-30 14:58:41.575,0.555998017096164
2025-03-30 14:58:41.575,-0.3787607012454951
2025-03-30 14:58:41.576,-3.092172029775664
2025-03-30 14:58:41.576,-4.0816480392448256
2025-03-30 14:58:41.576,-0.3889699394370519
2025-03-30 14:58:41.585,5.229116858540333
2025-03-30 14:58:41.585,6.536833562643603
2025-03-30 14:58:41.586,1.379981661464703
2025-03-30 14:58:41.586,-5.288598050669518
2025-03-30 14:58:41.586,-6.892953196775017
2025-03-30 14:58:41.595,-2.290945065106824
2025-03-30 14:58:41.595,3.671054860869587
2025-03-30 14:58:41.596,5.637427373608214
2025-03-30 14:58:41.596,2.6478305619067175
2025-03-30 14:58:41.596,-1.8724880508275723
2025-03-30 14:58:41.605,-3.851858775998221
2025-03-30 14:58:41.605,-2.17422899537189
2025-03-30 14:58:41.605,0.8446632433550348
2025-03-30 14:58:41.606,2.204282610683419
2025-03-30 14:58:41.615,1.2183154905449576
2025-03-30 14:58:41.615,-0.4041573776881453
2025-03-30 14:58:41.615,-0.987574447274342
2025-03-30 14:58:41.616,-0.5289467551570748
2025-03-30 14:58:41.616,0.026789515618534585
2025-03-30 14:58:41.625,0.18165509636397473
2025-03-30 14:58:41.625,0.18845676589216695
2025-03-30 14:58:41.625,0.4528550272161741
2025-03-30 14:58:41.625,0.855543079652111
2025-03-30 14:58:41.626,0.5910870346245656
2025-03-30 14:58:41.635,-0.914650879602177
2025-03-30 14:58:41.635,-2.624923984657394
2025-03-30 14:58:41.635,-2.2464143190780126
2025-03-30 14:58:41.635,1.0122306388594677
2025-03-30 14:58:41.636,4.463598727680014
2025-03-30 14:58:41.645,4.162006945691879
2025-03-30 14:58:41.645,-0.4474923573813405
2025-03-30 14:58:41.645,-5.159926614332974
2025-03-30 14:58:41.645,-5.235859512395567
2025-03-30 14:58:41.646,-0.57530457296598
2025-03-30 14:58:41.655,4.226523429833696
2025-03-30 14:58:41.655,4.866291708992051
2025-03-30 14:58:41.655,1.490867443651463
2025-03-30 14:58:41.655,-2.2426218533413422
2025-03-30 14:58:41.656,-3.298288081130308
2025-03-30 14:58:41.665,-1.770949003031768
2025-03-30 14:58:41.665,0.21965275002977233
2025-03-30 14:58:41.665,1.1520871497510452
2025-03-30 14:58:41.665,1.2370011350995251
2025-03-30 14:58:41.666,1.2720383136920308
2025-03-30 14:58:41.675,1.032110882116492
2025-03-30 14:58:41.675,-0.4348301089288525
2025-03-30 14:58:41.675,-2.6375198916257716
2025-03-30 14:58:41.675,-2.881824315767098
2025-03-30 14:58:41.676,0.5702931316144715
2025-03-30 14:58:41.685,4.77236130939136
2025-03-30 14:58:41.685,4.145065897103782
2025-03-30 14:58:41.685,-2.2456009780289974
2025-03-30 14:58:41.685,-7.665810298692888
2025-03-30 14:58:41.685,-4.878610572081213
2025-03-30 14:58:41.695,4.346127529970566
2025-03-30 14:58:41.695,10.047797494353572
2025-03-30 14:58:41.695,5.394725028114839
2025-03-30 14:58:41.695,-5.08545233129312
2025-03-30 14:58:41.695,-10.499388355383152
2025-03-30 14:58:41.703,-5.696844397305885
2025-03-30 14:58:41.703,3.7663989918589422
2025-03-30 14:58:41.704,8.598047942763769
2025-03-30 14:58:41.704,5.456832798517024
2025-03-30 14:58:41.704,-1.2258604426066355
2025-03-30 14:58:41.713,-5.238918516303499
2025-03-30 14:58:41.713,-4.404262527001751
2025-03-30 14:58:41.713,-0.9430979688605403
2025-03-30 14:58:41.714,1.87299064017325
2025-03-30 14:58:41.723,2.5259324849195535
2025-03-30 14:58:41.723,1.6058017419327077
2025-03-30 14:58:41.723,0.4748302804730494
2025-03-30 14:58:41.724,-0.20300786304046797
2025-03-30 14:58:41.724,-0.8005739789587706
2025-03-30 14:58:41.733,-1.6527014265369464
2025-03-30 14:58:41.733,-1.9438059495335631
2025-03-30 14:58:41.733,-0.45763020743554284
2025-03-30 14:58:41.733,2.254790946029404
2025-03-30 14:58:41.734,3.443670373045018
2025-03-30 14:58:41.743,1.1148788126153786
2025-03-30 14:58:41.743,-2.8533481635018676
2025-03-30 14:58:41.743,-4.06907335798424
2025-03-30 14:58:41.744,-0.7999976342435206
2025-03-30 14:58:41.744,3.3765316719617506
2025-03-30 14:58:41.753,3.536795172843155
2025-03-30 14:58:41.753,-0.41298701710648417
2025-03-30 14:58:41.753,-3.399906542970874
2025-03-30 14:58:41.754,-1.6331748264518808
2025-03-30 14:58:41.754,2.357566289802002
2025-03-30 14:58:41.763,2.9068119386896685
2025-03-30 14:58:41.763,-1.2246913183587176
2025-03-30 14:58:41.763,-4.739440338305148
2025-03-30 14:58:41.764,-2.3253156653581755
2025-03-30 14:58:41.764,4.088423451053139
2025-03-30 14:58:41.773,6.8598070653949925
2025-03-30 14:58:41.773,1.8676490464997162
2025-03-30 14:58:41.773,-5.866666638371237
2025-03-30 14:58:41.773,-7.712823037124638
2025-03-30 14:58:41.774,-1.5912132966880406
2025-03-30 14:58:41.783,5.795864491213208
2025-03-30 14:58:41.783,6.965580066892978
2025-03-30 14:58:41.783,1.6445583250067437
2025-03-30 14:58:41.783,-4.15497444429146
2025-03-30 14:58:41.784,-5.270688879000236
2025-03-30 14:58:41.793,-1.931201194756004
2025-03-30 14:58:41.793,2.021049060146231
2025-03-30 14:58:41.793,3.4681833718482
2025-03-30 14:58:41.793,2.1102268982399672
2025-03-30 14:58:41.794,-0.3916170191373327
2025-03-30 14:58:41.803,-2.1025544376188368
2025-03-30 14:58:41.803,-1.9388699373040408
2025-03-30 14:58:41.803,-0.2257877476523022
2025-03-30 14:58:41.804,1.4503336354968368
2025-03-30 14:58:41.804,1.500784975033855
2025-03-30 14:58:41.813,-0.06020549068620093
2025-03-30 14:58:41.813,-1.4853923987079265
2025-03-30 14:58:41.813,-1.1377278002228437
2025-03-30 14:58:41.813,0.6601214901192827
2025-03-30 14:58:41.814,1.9143968989609212
2025-03-30 14:58:41.823,1.0759559565685581
2025-03-30 14:58:41.823,-1.2301468671264832
2025-03-30 14:58:41.823,-2.5822710579030295
2025-03-30 14:58:41.824,-1.1355998209866278
2025-03-30 14:58:41.824,2.05692847192622
2025-03-30 14:58:41.833,3.543414049028952
2025-03-30 14:58:41.833,1.1114154008596362
2025-03-30 14:58:41.833,-3.2338361946966128
2025-03-30 14:58:41.833,-4.8753397398372424
2025-03-30 14:58:41.834,-1.4560713804503762
2025-03-30 14:58:41.843,4.277954412394855
2025-03-30 14:58:41.843,6.721379717879488
2025-03-30 14:58:41.843,2.7350120167262033
2025-03-30 14:58:41.843,-4.734007094753135
2025-03-30 14:58:41.843,-8.621009500465139
2025-03-30 14:58:41.853,-4.546473968831036
2025-03-30 14:58:41.853,4.1055882964981185
2025-03-30 14:58:41.853,9.121122495786691
2025-03-30 14:58:41.853,5.921209708154801
2025-03-30 14:58:41.853,-1.96507519007171
2025-03-30 14:58:41.863,-7.212078103058292
2025-03-30 14:58:41.863,-6.120769133015157
2025-03-30 14:58:41.863,-1.0084009790672812
2025-03-30 14:58:41.863,3.445941937416673
2025-03-30 14:58:41.864,4.672732301599104
2025-03-30 14:58:41.871,3.255234224502735
2025-03-30 14:58:41.871,0.8698430347100641
2025-03-30 14:58:41.872,-1.7117564249655866
2025-03-30 14:58:41.872,-4.143570609370188
2025-03-30 14:58:41.881,-4.785753148736352
2025-03-30 14:58:41.881,-1.5239787735755428
2025-03-30 14:58:41.881,4.476608795173475
2025-03-30 14:58:41.881,7.6644020912443525
2025-03-30 14:58:41.882,3.581418612791454
2025-03-30 14:58:41.891,-4.766342522709489
2025-03-30 14:58:41.891,-8.876824880336184
2025-03-30 14:58:41.891,-4.186768164477395
2025-03-30 14:58:41.891,4.438226497635566
2025-03-30 14:58:41.891,8.170307125523168
2025-03-30 14:58:41.901,3.9226980381928316
2025-03-30 14:58:41.901,-3.1237248093648926
2025-03-30 14:58:41.901,-6.037209842331355
2025-03-30 14:58:41.901,-3.192817212671678
2025-03-30 14:58:41.901,1.4836459726874087
2025-03-30 14:58:41.911,3.5631478210349763
2025-03-30 14:58:41.911,2.130887642481978
2025-03-30 14:58:41.911,-0.5021148358132935
2025-03-30 14:58:41.911,-1.7234633353638809
2025-03-30 14:58:41.911,-0.9470174179865922
2025-03-30 14:58:41.921,0.40759659111904717
2025-03-30 14:58:41.921,0.7649022609892054
2025-03-30 14:58:41.921,0.037266347994905025
2025-03-30 14:58:41.921,-0.5814697999603656
2025-03-30 14:58:41.922,-0.25517994199288035
2025-03-30 14:58:41.931,0.42012184635630556
2025-03-30 14:58:41.931,0.2695580114071559
2025-03-30 14:58:41.931,-0.6360320053454399
2025-03-30 14:58:41.931,-0.718460312523858
2025-03-30 14:58:41.931,0.8970464023585395
2025-03-30 14:58:41.939,2.4838518776913108
2025-03-30 14:58:41.939,1.3763319522492063
2025-03-30 14:58:41.940,-2.306733270464126
2025-03-30 14:58:41.940,-4.912072955966374
2025-03-30 14:58:41.940,-3.033243876665039
2025-03-30 14:58:41.949,2.483557987060544
2025-03-30 14:58:41.949,6.86249442957788
2025-03-30 14:58:41.950,5.721968511158714
2025-03-30 14:58:41.950,-0.673962450739429
2025-03-30 14:58:41.950,-7.1291017857472685
2025-03-30 14:58:41.959,-7.934125123625368
2025-03-30 14:58:41.959,-2.295162313996851
2025-03-30 14:58:41.960,4.8125402089202876
2025-03-30 14:58:41.960,7.6154143769194595
2025-03-30 14:58:41.960,4.856483102330682
2025-03-30 14:58:41.969,-0.27211048929829973
2025-03-30 14:58:41.969,-4.269143228786857
2025-03-30 14:58:41.969,-5.759808956538583
2025-03-30 14:58:41.969,-4.460463193368321
2025-03-30 14:58:41.979,-0.37074668756597795
2025-03-30 14:58:41.979,4.756322816709566
2025-03-30 14:58:41.979,6.9854006214000535
2025-03-30 14:58:41.980,3.67236039741372
2025-03-30 14:58:41.980,-2.720260305261023
2025-03-30 14:58:41.989,-6.304595478453828
2025-03-30 14:58:41.989,-4.077627533142517
2025-03-30 14:58:41.989,0.8312607618797164
2025-03-30 14:58:41.989,3.2577397430558754
2025-03-30 14:58:41.990,2.0453938861147756
2025-03-30 14:58:41.999,0.2637270157009327
2025-03-30 14:58:41.999,0.2044361704219299
2025-03-30 14:58:41.999,0.6601312160889226
2025-03-30 14:58:41.999,-0.3051032790699954
2025-03-30 14:58:42.000,-2.1005710494042975
2025-03-30 14:58:42.009,-2.592898369859798
2025-03-30 14:58:42.009,-1.0246299471657077
2025-03-30 14:58:42.009,1.5037925141928907
2025-03-30 14:58:42.009,3.5074727226039215
2025-03-30 14:58:42.010,3.69136486458847
2025-03-30 14:58:42.019,1.069607319915681
2025-03-30 14:58:42.019,-3.5554043368913106
2025-03-30 14:58:42.019,-6.596958275595165
2025-03-30 14:58:42.019,-4.350092070578165
2025-03-30 14:58:42.020,2.470130798992375
2025-03-30 14:58:42.027,8.108609404358555
2025-03-30 14:58:42.027,7.017032728127849
2025-03-30 14:58:42.028,-0.2948831407820625
2025-03-30 14:58:42.028,-7.340799241199701
2025-03-30 14:58:42.037,-7.886888964260567
2025-03-30 14:58:42.037,-1.9276854848230358
2025-03-30 14:58:42.038,4.691744391747619
2025-03-30 14:58:42.038,6.3586884957722125
2025-03-30 14:58:42.038,2.8879945355628744
2025-03-30 14:58:42.047,-1.4345275438749376
2025-03-30 14:58:42.047,-3.0696174787274604
2025-03-30 14:58:42.047,-2.2529542074850353
2025-03-30 14:58:42.047,-1.0132948099394683
2025-03-30 14:58:42.048,-0.09925007191814501
2025-03-30 14:58:42.057,0.8698851944898716
2025-03-30 14:58:42.057,1.5568565422918057
2025-03-30 14:58:42.057,1.2110387508359297
2025-03-30 14:58:42.058,0.3357960777802346
2025-03-30 14:58:42.058,0.08570130439238047
2025-03-30 14:58:42.067,0.0955938510645538
2025-03-30 14:58:42.067,-1.0361092607800422
2025-03-30 14:58:42.067,-2.7747026357214324
2025-03-30 14:58:42.067,-2.390278860511544
2025-03-30 14:58:42.068,1.108455221198773
2025-03-30 14:58:42.077,4.520619698051834
2025-03-30 14:58:42.077,3.8510243090548215
2025-03-30 14:58:42.077,-0.5632944886658322
2025-03-30 14:58:42.077,-4.206043671858964
2025-03-30 14:58:42.078,-3.671962839041078
2025-03-30 14:58:42.087,-0.20771642418584121
2025-03-30 14:58:42.087,2.4571710895887997
2025-03-30 14:58:42.087,2.3957488677911574
2025-03-30 14:58:42.087,0.6760407327581779
2025-03-30 14:58:42.087,-0.751793575859113
2025-03-30 14:58:42.097,-1.0764871982409487
2025-03-30 14:58:42.097,-0.6824014367719632
2025-03-30 14:58:42.097,-0.15532696146158115
2025-03-30 14:58:42.097,0.3144189153422696
2025-03-30 14:58:42.097,0.6892988418165672
2025-03-30 14:58:42.105,0.6231785444773442
2025-03-30 14:58:42.105,-0.22648334904024223
2025-03-30 14:58:42.106,-1.2563462398391598
2025-03-30 14:58:42.106,-1.0540922948952505
2025-03-30 14:58:42.106,0.7270088084956491
2025-03-30 14:58:42.115,2.2170848597898827
2025-03-30 14:58:42.115,1.2976637574898773
2025-03-30 14:58:42.115,-1.4105064722693783
2025-03-30 14:58:42.116,-2.866632885674804
2025-03-30 14:58:42.125,-1.257185215894
2025-03-30 14:58:42.125,1.7515300681673949
2025-03-30 14:58:42.125,2.9592627589267018
2025-03-30 14:58:42.126,1.1434771543129483
2025-03-30 14:58:42.126,-1.8220631040214637
2025-03-30 14:58:42.135,-2.9407740507666897
2025-03-30 14:58:42.135,-1.0027165855953546
2025-03-30 14:58:42.135,2.117766704839314
2025-03-30 14:58:42.136,3.134161877446178
2025-03-30 14:58:42.136,0.7942193281518557
2025-03-30 14:58:42.145,-2.5085544273300258
2025-03-30 14:58:42.145,-3.2431416757187645
2025-03-30 14:58:42.146,-0.7501989982576482
2025-03-30 14:58:42.146,2.164337104284835
2025-03-30 14:58:42.146,2.73588442954023
2025-03-30 14:58:42.155,1.1534142303258401
2025-03-30 14:58:42.155,-0.6034446669615817
2025-03-30 14:58:42.155,-1.5313347348876685
2025-03-30 14:58:42.155,-1.878724651203015
2025-03-30 14:58:42.156,-1.516167267644121
2025-03-30 14:58:42.165,0.09881040883894629
2025-03-30 14:58:42.165,2.238590697071328
2025-03-30 14:58:42.165,2.845802231847619
2025-03-30 14:58:42.165,0.9855206665639709
2025-03-30 14:58:42.165,-1.615075978514112
2025-03-30 14:58:42.175,-2.45784576827375
2025-03-30 14:58:42.175,-1.206618095289809
2025-03-30 14:58:42.175,0.2716612139274718
2025-03-30 14:58:42.175,0.5860655712704655
2025-03-30 14:58:42.176,0.3499437267422311
2025-03-30 14:58:42.185,0.6971011497653875
2025-03-30 14:58:42.185,1.3609984892658924
2025-03-30 14:58:42.185,1.1257273409355266
2025-03-30 14:58:42.185,-0.3262100921610358
2025-03-30 14:58:42.186,-1.9018535954998732
2025-03-30 14:58:42.195,-2.3133413827840275
2025-03-30 14:58:42.195,-1.2036265183176311
2025-03-30 14:58:42.195,0.8034472787287007
2025-03-30 14:58:42.195,2.5285064814339204
2025-03-30 14:58:42.196,2.722837631375469
2025-03-30 14:58:42.205,0.9179164999844495
2025-03-30 14:58:42.205,-1.764238825962986
2025-03-30 14:58:42.205,-3.153015182759165
2025-03-30 14:58:42.205,-2.0285344422500535
2025-03-30 14:58:42.205,0.5304318315719437
2025-03-30 14:58:42.213,2.249250158759023
2025-03-30 14:58:42.213,1.9995002004262434
2025-03-30 14:58:42.214,0.5966501089774644
2025-03-30 14:58:42.214,-0.5938971208672666
2025-03-30 14:58:42.223,-1.13505868174193
2025-03-30 14:58:42.223,-1.3120109064443417
2025-03-30 14:58:42.224,-1.0526988897797573
2025-03-30 14:58:42.224,0.09224339812136252
2025-03-30 14:58:42.224,1.7575048632687404
2025-03-30 14:58:42.224,2.348006743598646
2025-03-30 14:58:42.233,0.6615673646074125
2025-03-30 14:58:42.233,-2.1797541480213023
2025-03-30 14:58:42.233,-3.300513263877042
2025-03-30 14:58:42.234,-1.1231535586312438
2025-03-30 14:58:42.243,2.4848182753644634
2025-03-30 14:58:42.243,3.813147202311386
2025-03-30 14:58:42.243,1.3185358770317905
2025-03-30 14:58:42.244,-2.434455673841328
2025-03-30 14:58:42.244,-3.478678499527426
2025-03-30 14:58:42.253,-0.9456085968381627
2025-03-30 14:58:42.253,2.03845041808842
2025-03-30 14:58:42.253,2.23114590903609
2025-03-30 14:58:42.253,0.00817173188654377
2025-03-30 14:58:42.254,-1.6365928886814958
2025-03-30 14:58:42.263,-0.9910481472454832
2025-03-30 14:58:42.263,0.7980996796491534
2025-03-30 14:58:42.263,1.701506463611769
2025-03-30 14:58:42.263,0.9449461649835261
2025-03-30 14:58:42.263,-0.8610804494940851
2025-03-30 14:58:42.273,-2.39016687208084
2025-03-30 14:58:42.273,-2.157885655903797
2025-03-30 14:58:42.273,0.2745948263643027
2025-03-30 14:58:42.273,3.1135040561447775
2025-03-30 14:58:42.274,3.4743553681960635
2025-03-30 14:58:42.283,0.5583538609393136
2025-03-30 14:58:42.283,-2.9863613665776123
2025-03-30 14:58:42.283,-3.748888425948371
2025-03-30 14:58:42.283,-1.2742185439167488
2025-03-30 14:58:42.284,1.7211300759658774
2025-03-30 14:58:42.291,2.6679889202106546
2025-03-30 14:58:42.292,1.6142477348103548
2025-03-30 14:58:42.292,0.14833694486645427
2025-03-30 14:58:42.292,-0.8712544477092599
2025-03-30 14:58:42.292,-1.5080500962668713
2025-03-30 14:58:42.303,-1.546112556138749
2025-03-30 14:58:42.303,-0.5527156127159064
2025-03-30 14:58:42.303,0.9791177335429511
2025-03-30 14:58:42.303,1.7443654486566642
2025-03-30 14:58:42.304,1.1224141194151096
2025-03-30 14:58:42.311,-0.18217240929595388
2025-03-30 14:58:42.311,-1.1235474362919682
2025-03-30 14:58:42.311,-1.2717217875497222
2025-03-30 14:58:42.312,-0.6667748433686504
2025-03-30 14:58:42.321,0.5027861399656698
2025-03-30 14:58:42.321,1.6021287164362212
2025-03-30 14:58:42.321,1.5310659541006773
2025-03-30 14:58:42.322,-0.1499493366281511
2025-03-30 14:58:42.322,-2.1470487728080805
2025-03-30 14:58:42.331,-2.334279123803292
2025-03-30 14:58:42.331,-0.1601655089614275
2025-03-30 14:58:42.332,2.3532627146385923
2025-03-30 14:58:42.332,2.637134819738051
2025-03-30 14:58:42.332,0.45805798742608184
2025-03-30 14:58:42.341,-1.8080159190636236
2025-03-30 14:58:42.341,-1.899346692750658
2025-03-30 14:58:42.342,-0.17645086987303657
2025-03-30 14:58:42.342,0.996255966683493
2025-03-30 14:58:42.342,0.19580481123306775
2025-03-30 14:58:42.351,-1.2875977483751055
2025-03-30 14:58:42.351,-1.0094706646218656
2025-03-30 14:58:42.351,1.4634456472055366
2025-03-30 14:58:42.352,3.5674372222780626
2025-03-30 14:58:42.352,2.396574470361225
2025-03-30 14:58:42.361,-1.8221009745023586
2025-03-30 14:58:42.361,-5.4178335636225095
2025-03-30 14:58:42.361,-4.680203823624086
2025-03-30 14:58:42.362,0.42365035336225526
2025-03-30 14:58:42.362,5.831426831070753
2025-03-30 14:58:42.371,6.751793356935224
2025-03-30 14:58:42.371,2.0047139015333224
2025-03-30 14:58:42.371,-4.565831101063843
2025-03-30 14:58:42.372,-7.331468904292005
2025-03-30 14:58:42.372,-4.057290269263788
2025-03-30 14:58:42.381,2.1015730781612465
2025-03-30 14:58:42.381,5.804625693317115
2025-03-30 14:58:42.381,4.4799759150333065
2025-03-30 14:58:42.382,0.164498856166981
2025-03-30 14:58:42.382,-2.9849950116427193
2025-03-30 14:58:42.389,-2.726504481425869
2025-03-30 14:58:42.390,-0.5633549679048149
2025-03-30 14:58:42.390,0.3689329578875848
2025-03-30 14:58:42.390,-0.7287569868005531
2025-03-30 14:58:42.390,-1.2177689075857572
2025-03-30 14:58:42.401,1.2157469936853411
2025-03-30 14:58:42.401,4.478397334246123
2025-03-30 14:58:42.401,3.827475789576689
2025-03-30 14:58:42.401,-1.750111058213219
2025-03-30 14:58:42.401,-6.9360033228919775
2025-03-30 14:58:42.411,-5.688153846464033
2025-03-30 14:58:42.411,1.389255774950229
2025-03-30 14:58:42.411,7.258900972505691
2025-03-30 14:58:42.411,6.163610053688156
2025-03-30 14:58:42.411,-0.3840544382466994
2025-03-30 14:58:42.421,-5.815555334328524
2025-03-30 14:58:42.421,-5.492630224014935
2025-03-30 14:58:42.421,-0.6467539434927385
2025-03-30 14:58:42.421,3.814551330504551
2025-03-30 14:58:42.422,4.237512897112411
2025-03-30 14:58:42.429,1.049445843762714
2025-03-30 14:58:42.429,-2.3341115707456153
2025-03-30 14:58:42.430,-2.9138023372074096
2025-03-30 14:58:42.430,-0.7186195483260658
2025-03-30 14:58:42.441,1.6103591188618884
2025-03-30 14:58:42.441,1.7390431921892986
2025-03-30 14:58:42.441,0.017856050616400054
2025-03-30 14:58:42.441,-1.2165341868239463
2025-03-30 14:58:42.441,-0.5599251623499639
2025-03-30 14:58:42.442,0.7764923821885366
2025-03-30 14:58:42.449,0.6628339926768589
2025-03-30 14:58:42.450,-0.8826871980456257
2025-03-30 14:58:42.450,-1.450514019114203
2025-03-30 14:58:42.450,0.3562837519636429
2025-03-30 14:58:42.450,2.4446889853803078
2025-03-30 14:58:42.459,1.6962540616630735
2025-03-30 14:58:42.459,-1.5908965660147003
2025-03-30 14:58:42.460,-3.6139838272725795
2025-03-30 14:58:42.460,-1.7598402074438118
2025-03-30 14:58:42.460,2.1529917805664303
2025-03-30 14:58:42.469,4.091620874247609
2025-03-30 14:58:42.469,2.2658048268775595
2025-03-30 14:58:42.470,-1.4305202518070652
2025-03-30 14:58:42.470,-3.7692070221279845
2025-03-30 14:58:42.479,-3.1092841205003374
2025-03-30 14:58:42.480,-0.2620705948783521
2025-03-30 14:58:42.480,2.5984456838146284
2025-03-30 14:58:42.480,3.5464788072414013
2025-03-30 14:58:42.480,2.0320641839957942
2025-03-30 14:58:42.480,-0.851420528140017
2025-03-30 14:58:42.489,-3.0985666130410863
2025-03-30 14:58:42.489,-3.171187499277757
2025-03-30 14:58:42.490,-1.0361458282207676
2025-03-30 14:58:42.490,1.8782074538347393
2025-03-30 14:58:42.499,3.581404517353358
2025-03-30 14:58:42.499,2.708125008287456
2025-03-30 14:58:42.499,-0.3865324835092875
2025-03-30 14:58:42.499,-3.410284631401178
2025-03-30 14:58:42.500,-3.7148341683738053
2025-03-30 14:58:42.509,-0.8405276430649602
2025-03-30 14:58:42.509,2.6910798267212535
2025-03-30 14:58:42.509,3.6919201235565966
2025-03-30 14:58:42.510,1.4528444091493433
2025-03-30 14:58:42.510,-1.6958370248580619
2025-03-30 14:58:42.519,-2.8688978949608446
2025-03-30 14:58:42.519,-1.3630274426628857
2025-03-30 14:58:42.519,1.0097855930954307
2025-03-30 14:58:42.520,1.938186272632135
2025-03-30 14:58:42.520,0.8224169012118626
2025-03-30 14:58:42.527,-0.8562964538997074
2025-03-30 14:58:42.527,-1.2600528858113487
2025-03-30 14:58:42.528,-0.2243465918195493
2025-03-30 14:58:42.528,0.7061633629128538
2025-03-30 14:58:42.528,0.4088618580032819
2025-03-30 14:58:42.537,-0.2509916748377907
2025-03-30 14:58:42.538,0.19860936630958909
2025-03-30 14:58:42.538,1.2430455055554892
2025-03-30 14:58:42.538,0.6592002903730022
2025-03-30 14:58:42.538,-1.997115528916696
2025-03-30 14:58:42.547,-3.6266073313461162
2025-03-30 14:58:42.547,-1.0755438025780153
2025-03-30 14:58:42.548,3.990916838876626
2025-03-30 14:58:42.548,5.8598779150887985
2025-03-30 14:58:42.557,1.4659222190038652
2025-03-30 14:58:42.557,-5.138852224085009
2025-03-30 14:58:42.557,-6.860761903720779
2025-03-30 14:58:42.558,-1.7498031831999543
2025-03-30 14:58:42.558,4.743400660581409
2025-03-30 14:58:42.567,6.118334488195634
2025-03-30 14:58:42.567,1.8304384817229966
2025-03-30 14:58:42.567,-3.0642338120365835
2025-03-30 14:58:42.567,-4.060714879989726
2025-03-30 14:58:42.568,-1.433349339872462
2025-03-30 14:58:42.577,1.3284500123381837
2025-03-30 14:58:42.577,1.7208254415221305
2025-03-30 14:58:42.578,0.26841218683172074
2025-03-30 14:58:42.578,-0.8021691013415948
2025-03-30 14:58:42.578,-0.1296197846714363
2025-03-30 14:58:42.587,1.454224510686864
2025-03-30 14:58:42.587,1.8260971759545328
2025-03-30 14:58:42.587,-0.1256124468566195
2025-03-30 14:58:42.587,-2.9650336561863564
2025-03-30 14:58:42.588,-3.751013632441423
2025-03-30 14:58:42.597,-0.9801806945079629
2025-03-30 14:58:42.597,3.494961782323338
2025-03-30 14:58:42.597,5.697350622310226
2025-03-30 14:58:42.597,3.017524472537277
2025-03-30 14:58:42.597,-2.979476473271039
2025-03-30 14:58:42.607,-7.142053047284764
2025-03-30 14:58:42.607,-5.111465237675123
2025-03-30 14:58:42.607,1.9426969280398276
2025-03-30 14:58:42.608,7.582279319667794
2025-03-30 14:58:42.608,6.323815546674936
2025-03-30 14:58:42.617,-0.5618653381458674
2025-03-30 14:58:42.617,-6.451713997792401
2025-03-30 14:58:42.617,-6.321260235082774
2025-03-30 14:58:42.617,-1.2229171877075506
2025-03-30 14:58:42.618,3.9000744147814603
2025-03-30 14:58:42.627,5.29483761983237
2025-03-30 14:58:42.627,2.8290030801146298
2025-03-30 14:58:42.627,-1.1124998452726123
2025-03-30 14:58:42.627,-3.700126123930686
2025-03-30 14:58:42.628,-3.2323805862916184
2025-03-30 14:58:42.637,-0.2917222595817584
2025-03-30 14:58:42.637,2.3227249327411403
2025-03-30 14:58:42.637,1.990049927860137
2025-03-30 14:58:42.638,-0.6885067618903875
2025-03-30 14:58:42.638,-2.0630150187662957
2025-03-30 14:58:42.647,0.2580266937612288
2025-03-30 14:58:42.647,3.7200017353751713
2025-03-30 14:58:42.647,3.2068320397460632
2025-03-30 14:58:42.647,-2.2388298713997283
2025-03-30 14:58:42.648,-6.978262314861851
2025-03-30 14:58:42.657,-5.041712120896946
2025-03-30 14:58:42.657,2.3052070333906554
2025-03-30 14:58:42.657,7.811865124074685
2025-03-30 14:58:42.658,6.639867198987208
2025-03-30 14:58:42.658,0.8110432312259452
2025-03-30 14:58:42.667,-4.697746769277195
2025-03-30 14:58:42.667,-7.104094932244661
2025-03-30 14:58:42.667,-5.989278796219369
2025-03-30 14:58:42.668,-1.416783035394515
2025-03-30 14:58:42.668,5.286298217674868
2025-03-30 14:58:42.676,9.95577582901741
2025-03-30 14:58:42.676,7.844713533849809
2025-03-30 14:58:42.676,-1.1489730574485328
2025-03-30 14:58:42.676,-10.460897131013647
2025-03-30 14:58:42.676,-11.825155829910907
2025-03-30 14:58:42.685,-3.3065884553368536
2025-03-30 14:58:42.686,7.930573670442705
2025-03-30 14:58:42.686,11.962185972061228
2025-03-30 14:58:42.686,5.721718316953101
2025-03-30 14:58:42.695,-4.207253809242474
2025-03-30 14:58:42.695,-8.701960759546797
2025-03-30 14:58:42.695,-5.200976764587289
2025-03-30 14:58:42.695,1.0383589503784796
2025-03-30 14:58:42.696,3.841931992536065
2025-03-30 14:58:42.705,2.4004634830193265
2025-03-30 14:58:42.705,0.31549615261544894
2025-03-30 14:58:42.706,0.24338175950138055
2025-03-30 14:58:42.706,1.2187963519184055
2025-03-30 14:58:42.706,0.8061864973057277
2025-03-30 14:58:42.715,-1.6634859698425961
2025-03-30 14:58:42.715,-4.257639940871136
2025-03-30 14:58:42.716,-4.0377654868534805
2025-03-30 14:58:42.716,0.263474779758906
2025-03-30 14:58:42.716,6.06164059611566
2025-03-30 14:58:42.725,7.843167480152881
2025-03-30 14:58:42.725,2.3125815909228398
2025-03-30 14:58:42.725,-6.695295189253664
2025-03-30 14:58:42.726,-10.422466095692062
2025-03-30 14:58:42.726,-4.223503029313155
2025-03-30 14:58:42.735,6.394121890512236
2025-03-30 14:58:42.735,10.855622475806305
2025-03-30 14:58:42.735,4.866098864835844
2025-03-30 14:58:42.736,-5.06916081363867
2025-03-30 14:58:42.736,-9.167836928888681
2025-03-30 14:58:42.745,-4.731018959261808
2025-03-30 14:58:42.745,2.4779859903139196
2025-03-30 14:58:42.746,5.845653846300317
2025-03-30 14:58:42.746,4.312759423952126
2025-03-30 14:58:42.746,1.0326217999044176
2025-03-30 14:58:42.755,-1.638480787659185
2025-03-30 14:58:42.755,-3.6043237419882157
2025-03-30 14:58:42.755,-4.4747748289680365
2025-03-30 14:58:42.756,-2.483046611320084
2025-03-30 14:58:42.756,2.574404748416048
2025-03-30 14:58:42.765,6.850210834648511
2025-03-30 14:58:42.765,5.459296766014661
2025-03-30 14:58:42.765,-1.4504890483936552
2025-03-30 14:58:42.766,-7.458084263489447
2025-03-30 14:58:42.766,-6.367365848635258
2025-03-30 14:58:42.775,0.6179545256766787
2025-03-30 14:58:42.775,5.998363527890713
2025-03-30 14:58:42.775,4.5974569167058315
2025-03-30 14:58:42.776,-0.6656352040015137
2025-03-30 14:58:42.776,-2.9866370214200533
2025-03-30 14:58:42.785,-0.39487855493597473
2025-03-30 14:58:42.785,2.218676561431391
2025-03-30 14:58:42.785,0.11912408057540043
2025-03-30 14:58:42.785,-4.580786425111249
2025-03-30 14:58:42.786,-5.263464922304273
2025-03-30 14:58:42.795,0.7254653189533984
2025-03-30 14:58:42.795,7.959640236631579
2025-03-30 14:58:42.795,8.415286043937215
2025-03-30 14:58:42.796,0.570744740865555
2025-03-30 14:58:42.796,-8.264152090442462
2025-03-30 14:58:42.805,-9.43698862318737
2025-03-30 14:58:42.805,-2.153729668237161
2025-03-30 14:58:42.805,5.930588888387419
2025-03-30 14:58:42.806,7.251648467676955
2025-03-30 14:58:42.806,2.1059340814706102
2025-03-30 14:58:42.815,-2.863407809170027
2025-03-30 14:58:42.815,-2.8768938302861287
2025-03-30 14:58:42.815,0.022122920731296514
2025-03-30 14:58:42.815,0.6725302632769201
2025-03-30 14:58:42.816,-1.96731212002262
2025-03-30 14:58:42.825,-3.34034050210386
2025-03-30 14:58:42.825,0.35401967550205354
2025-03-30 14:58:42.825,6.070337183300016
2025-03-30 14:58:42.826,6.584342039193685
2025-03-30 14:58:42.826,-0.4487046715351446
2025-03-30 14:58:42.833,-8.361546423277396
2025-03-30 14:58:42.833,-8.445138235712804
2025-03-30 14:58:42.834,-0.2412892808379009
2025-03-30 14:58:42.834,7.636894320863996
2025-03-30 14:58:42.843,7.524359890395234
2025-03-30 14:58:42.843,1.1553357311545716
2025-03-30 14:58:42.844,-3.731841411659694
2025-03-30 14:58:42.844,-3.367004235008407
2025-03-30 14:58:42.844,-1.2084844290021468
2025-03-30 14:58:42.853,-1.3725205768297206
2025-03-30 14:58:42.853,-2.5326441985257033
2025-03-30 14:58:42.853,-0.5530242787932981
2025-03-30 14:58:42.854,4.731960919412091
2025-03-30 14:58:42.854,8.018731186365367
2025-03-30 14:58:42.863,4.164566271365965
2025-03-30 14:58:42.863,-5.30069102202513
2025-03-30 14:58:42.863,-11.859366594739761
2025-03-30 14:58:42.864,-7.795732477853341
2025-03-30 14:58:42.864,4.493807363362115
2025-03-30 14:58:42.871,12.97770612743577
2025-03-30 14:58:42.871,8.613219138285574
2025-03-30 14:58:42.872,-3.7423483018894097
2025-03-30 14:58:42.872,-10.614364721349261
2025-03-30 14:58:42.881,-5.739387509312454
2025-03-30 14:58:42.881,3.46709952321405
2025-03-30 14:58:42.881,6.278101664141579
2025-03-30 14:58:42.882,1.4193432813337115
2025-03-30 14:58:42.882,-3.5633883991895092
2025-03-30 14:58:42.891,-3.111122118259085
2025-03-30 14:58:42.891,0.6347928531001099
2025-03-30 14:58:42.892,2.93985197773733
2025-03-30 14:58:42.892,2.901903013165719
2025-03-30 14:58:42.892,2.152875094578079
2025-03-30 14:58:42.901,0.15303323212194642
2025-03-30 14:58:42.901,-4.561244517009651
2025-03-30 14:58:42.902,-8.854737890259297
2025-03-30 14:58:42.902,-6.014151334243792
2025-03-30 14:58:42.902,4.975329809999328
2025-03-30 14:58:42.909,14.75983875448623
2025-03-30 14:58:42.910,12.506523379679242
2025-03-30 14:58:42.910,-1.4475494776515054
2025-03-30 14:58:42.910,-15.05447302398591
2025-03-30 14:58:42.919,-16.582455641969503
2025-03-30 14:58:42.919,-5.218062615183384
2025-03-30 14:58:42.919,9.493678777715816
2025-03-30 14:58:42.919,16.258614889730186
2025-03-30 14:58:42.920,10.526158064297277
2025-03-30 14:58:42.927,-2.495381376034982
2025-03-30 14:58:42.927,-12.017998257927141
2025-03-30 14:58:42.928,-10.653836261367655
2025-03-30 14:58:42.928,-0.9939175446775557
2025-03-30 14:58:42.937,7.0277755177171235
2025-03-30 14:58:42.937,6.2227459472717435
2025-03-30 14:58:42.938,-0.6499841658013052
2025-03-30 14:58:42.938,-4.627915664213399
2025-03-30 14:58:42.938,-1.1579544825018775
2025-03-30 14:58:42.938,4.784740227408903
2025-03-30 14:58:42.947,5.162564316278544
2025-03-30 14:58:42.947,-1.1117402083604975
2025-03-30 14:58:42.948,-7.031856513114954
2025-03-30 14:58:42.948,-6.218844132746716
2025-03-30 14:58:42.957,-0.0720339019028316
2025-03-30 14:58:42.958,5.087005363568638
2025-03-30 14:58:42.958,5.685185504933634
2025-03-30 14:58:42.958,3.146991292562232
2025-03-30 14:58:42.958,-0.1456768087494477
2025-03-30 14:58:42.967,-3.4862002592681756
2025-03-30 14:58:42.967,-5.85942730068054
2025-03-30 14:58:42.968,-4.739819694551553
2025-03-30 14:58:42.968,0.6324334541432483
2025-03-30 14:58:42.968,6.374362719266387
2025-03-30 14:58:42.977,7.085817164992853
2025-03-30 14:58:42.977,1.8710132114166986
2025-03-30 14:58:42.978,-4.442022335075043
2025-03-30 14:58:42.978,-6.344811337515611
2025-03-30 14:58:42.978,-2.884933534762266
2025-03-30 14:58:42.987,2.08065676129395
2025-03-30 14:58:42.987,3.855497679717799
2025-03-30 14:58:42.987,1.2431145904315803
2025-03-30 14:58:42.988,-2.1697437345657433
2025-03-30 14:58:42.988,-1.554991651609151
2025-03-30 14:58:42.997,3.147411192086142
2025-03-30 14:58:42.997,5.762551889089458
2025-03-30 14:58:42.997,0.8160065983773714
2025-03-30 14:58:42.998,-8.329120465800207
2025-03-30 14:58:42.998,-11.38401125404524
2025-03-30 14:58:43.005,-2.674527842216667
2025-03-30 14:58:43.006,11.110968273679969
2025-03-30 14:58:43.006,16.680205681120317
2025-03-30 14:58:43.006,7.462508661258242
2025-03-30 14:58:43.006,-9.45508488138352
2025-03-30 14:58:43.015,-19.430268095862605
2025-03-30 14:58:43.016,-13.3753483111839
2025-03-30 14:58:43.016,3.995103157288782
2025-03-30 14:58:43.016,18.06859269092478
2025-03-30 14:58:43.023,17.09588498904622
2025-03-30 14:58:43.024,2.4759424900938813
2025-03-30 14:58:43.024,-12.864452384759648
2025-03-30 14:58:43.024,-16.401787593850997
2025-03-30 14:58:43.033,-6.8363620984362905
2025-03-30 14:58:43.033,6.122114576503726
2025-03-30 14:58:43.034,11.668700006048725
2025-03-30 14:58:43.034,7.22203855131074
2025-03-30 14:58:43.034,-1.0381449268217078
2025-03-30 14:58:43.043,-5.301013467401658
2025-03-30 14:58:43.043,-3.398692486984161
2025-03-30 14:58:43.043,0.2094024578732907
2025-03-30 14:58:43.044,0.16503015644471153
2025-03-30 14:58:43.044,-3.2210719817501836
2025-03-30 14:58:43.053,-4.019351586673274
2025-03-30 14:58:43.054,1.7333820907992286
2025-03-30 14:58:43.054,9.579338444777173
2025-03-30 14:58:43.054,10.26821496196136
2025-03-30 14:58:43.054,0.4301913542143592
2025-03-30 14:58:43.063,-12.303278013588264
2025-03-30 14:58:43.063,-16.113168147332143
2025-03-30 14:58:43.063,-6.295287479543372
2025-03-30 14:58:43.064,10.183827688473487
2025-03-30 14:58:43.064,19.98372420888126
2025-03-30 14:58:43.071,13.78580327410722
2025-03-30 14:58:43.072,-5.159205353967912
2025-03-30 14:58:43.072,-21.336057594641343
2025-03-30 14:58:43.072,-19.27917184465452
2025-03-30 14:58:43.081,0.5733543449455798
2025-03-30 14:58:43.081,19.747514610307192
2025-03-30 14:58:43.081,19.59489796669904
2025-03-30 14:58:43.081,1.4025011408672259
2025-03-30 14:58:43.082,-15.13005261106637
2025-03-30 14:58:43.091,-14.274516209979025
2025-03-30 14:58:43.091,-0.8034598006455589
2025-03-30 14:58:43.091,8.489304236659493
2025-03-30 14:58:43.091,5.721376341483861
2025-03-30 14:58:43.092,-1.2287171747444217
2025-03-30 14:58:43.100,-1.9599002460746628
2025-03-30 14:58:43.100,2.72584471716063
2025-03-30 14:58:43.100,3.874738740827043
2025-03-30 14:58:43.100,-2.170517675815589
2025-03-30 14:58:43.100,-8.530939803559637
2025-03-30 14:58:43.109,-6.638612890895288
2025-03-30 14:58:43.110,2.981444302295482
2025-03-30 14:58:43.110,10.90179489464109
2025-03-30 14:58:43.110,8.840011201554772
2025-03-30 14:58:43.119,-1.7688690322802851
2025-03-30 14:58:43.119,-11.037905070993792
2025-03-30 14:58:43.120,-10.05045414929885
2025-03-30 14:58:43.120,0.5055247134187646
2025-03-30 14:58:43.120,10.705302900885178
2025-03-30 14:58:43.127,10.77320213591901
2025-03-30 14:58:43.127,0.5742280413674464
2025-03-30 14:58:43.127,-10.24314517739973
2025-03-30 14:58:43.128,-11.616406422545593
2025-03-30 14:58:43.128,-2.552550211245957
2025-03-30 14:58:43.137,8.44475922844172
2025-03-30 14:58:43.138,11.805846540839319
2025-03-30 14:58:43.138,5.446462189114396
2025-03-30 14:58:43.138,-4.456827277666378
2025-03-30 14:58:43.147,-9.862265857069133
2025-03-30 14:58:43.148,-7.473889225946236
2025-03-30 14:58:43.148,-0.3076496179429417
2025-03-30 14:58:43.148,5.633777824142373
2025-03-30 14:58:43.148,6.382416076957172
2025-03-30 14:58:43.157,2.9438956143344672
2025-03-30 14:58:43.157,-0.5323703221798606
2025-03-30 14:58:43.157,-1.6830961755052811
2025-03-30 14:58:43.158,-2.025859755202311
2025-03-30 14:58:43.158,-3.4314641081270403
2025-03-30 14:58:43.167,-4.277169333629202
2025-03-30 14:58:43.167,-1.4451373390290096
2025-03-30 14:58:43.167,4.410589827466586
2025-03-30 14:58:43.168,8.166210880838804
2025-03-30 14:58:43.168,5.61251738
2025-03-30 14:58:43.177,-1.81490567443488
2025-03-30 14:58:43.177,-8.28487206342502
2025-03-30 14:58:43.178,-8.694376428333491
2025-03-30 14:58:43.178,-2.6243870966269265
2025-03-30 14:58:43.178,5.333116946816324
2025-03-30 14:58:43.187,8.912490891359452
2025-03-30 14:58:43.187,5.466788051368002
2025-03-30 14:58:43.187,-1.335491135676171
2025-03-30 14:58:43.187,-5.302803490248166
2025-03-30 14:58:43.188,-4.4466442786017675
2025-03-30 14:58:43.195,-2.079633122139296
2025-03-30 14:58:43.196,-0.9258545318212791
2025-03-30 14:58:43.196,0.6584705457507907
2025-03-30 14:58:43.196,4.387902600923044
2025-03-30 14:58:43.196,6.881383966411014
