timestamp,bandpass_and_notch
2025-03-22 15:19:04.470,-0.2248714630720685
2025-03-22 15:19:04.471,4.173166211998729
2025-03-22 15:19:04.471,4.8338740383388785
2025-03-22 15:19:04.471,-4.9593964253684115
2025-03-22 15:19:04.480,-21.103124739070953
2025-03-22 15:19:04.480,-22.083733394182875
2025-03-22 15:19:04.480,5.9647154129766085
2025-03-22 15:19:04.480,41.048969567347335
2025-03-22 15:19:04.480,41.53412222008668
2025-03-22 15:19:04.488,-3.254852815050338
2025-03-22 15:19:04.488,-52.450121044794095
2025-03-22 15:19:04.489,-55.13473669087579
2025-03-22 15:19:04.489,-6.91138611388139
2025-03-22 15:19:04.496,45.425202437998166
2025-03-22 15:19:04.496,54.66381643945096
2025-03-22 15:19:04.496,19.414531541371158
2025-03-22 15:19:04.497,-22.360660382561374
2025-03-22 15:19:04.497,-36.73386824924166
2025-03-22 15:19:04.506,-22.511260748462007
2025-03-22 15:19:04.506,-0.7645700641294089
2025-03-22 15:19:04.506,12.174980253205787
2025-03-22 15:19:04.506,15.370794021674472
2025-03-22 15:19:04.514,13.584785671640933
2025-03-22 15:19:04.514,7.609399206636438
2025-03-22 15:19:04.514,-2.862330721795556
2025-03-22 15:19:04.515,-12.840404956170516
2025-03-22 15:19:04.524,-14.69287455090096
2025-03-22 15:19:04.524,-6.907546964295147
2025-03-22 15:19:04.524,3.591295946898281
2025-03-22 15:19:04.525,8.924536233434933
2025-03-22 15:19:04.525,7.723153540262067
2025-03-22 15:19:04.525,3.959722351155374
2025-03-22 15:19:04.534,0.6703857217123886
2025-03-22 15:19:04.534,-2.387001074133469
2025-03-22 15:19:04.534,-5.434487065437883
2025-03-22 15:19:04.534,-6.28861071433775
2025-03-22 15:19:04.544,-3.0322047144352107
2025-03-22 15:19:04.544,2.429770669959148
2025-03-22 15:19:04.544,5.641445890883855
2025-03-22 15:19:04.544,4.3826427817317395
2025-03-22 15:19:04.544,0.7447298332865857
2025-03-22 15:19:04.554,-1.800947363367096
2025-03-22 15:19:04.554,-2.100756710351874
2025-03-22 15:19:04.554,-1.3946400232340652
2025-03-22 15:19:04.554,-0.794260611910246
2025-03-22 15:19:04.555,-0.11735208357279031
2025-03-22 15:19:04.564,0.871893116397537
2025-03-22 15:19:04.564,1.423904611696208
2025-03-22 15:19:04.564,0.7459538844226964
2025-03-22 15:19:04.564,-0.6571753311766352
2025-03-22 15:19:04.564,-1.3941917739298273
2025-03-22 15:19:04.574,-0.7905612112403331
2025-03-22 15:19:04.574,0.4783834523673225
2025-03-22 15:19:04.574,1.299463972825475
2025-03-22 15:19:04.574,1.1777373962793065
2025-03-22 15:19:04.575,0.3533220439143486
2025-03-22 15:19:04.584,-0.6399439208390092
2025-03-22 15:19:04.584,-1.2897960649932467
2025-03-22 15:19:04.584,-1.3048937784314043
2025-03-22 15:19:04.584,-0.8000557326549835
2025-03-22 15:19:04.584,-0.13076426592937992
2025-03-22 15:19:04.594,0.598641537066185
2025-03-22 15:19:04.594,1.549521933339233
2025-03-22 15:19:04.594,2.4158636637484183
2025-03-22 15:19:04.594,2.1055017739751416
2025-03-22 15:19:04.595,-0.1495587634389775
2025-03-22 15:19:04.604,-3.2944741270840305
2025-03-22 15:19:04.604,-4.7134312383955566
2025-03-22 15:19:04.604,-2.6345202158039984
2025-03-22 15:19:04.604,1.7106812595032879
2025-03-22 15:19:04.604,4.838507305359162
2025-03-22 15:19:04.614,4.273542838752503
2025-03-22 15:19:04.614,0.8776494327625068
2025-03-22 15:19:04.614,-2.2816844589835776
2025-03-22 15:19:04.614,-3.0787485339509777
2025-03-22 15:19:04.614,-1.9571444581678272
2025-03-22 15:19:04.624,-0.6521081639752689
2025-03-22 15:19:04.624,0.01738887715694598
2025-03-22 15:19:04.624,0.6480024541778908
2025-03-22 15:19:04.624,1.7609263088232427
2025-03-22 15:19:04.624,2.52779619906278
2025-03-22 15:19:04.634,1.5947287439084032
2025-03-22 15:19:04.634,-0.9640248403235698
2025-03-22 15:19:04.634,-3.1928022434214545
2025-03-22 15:19:04.634,-3.064931984647481
2025-03-22 15:19:04.634,-0.5147391169518547
2025-03-22 15:19:04.644,2.441771054674328
2025-03-22 15:19:04.644,3.442527362431907
2025-03-22 15:19:04.644,1.7199679982827178
2025-03-22 15:19:04.644,-1.3057233049843542
2025-03-22 15:19:04.644,-3.201556953511421
2025-03-22 15:19:04.654,-2.503159901150411
2025-03-22 15:19:04.654,0.13625071706720265
2025-03-22 15:19:04.654,2.5422238129982224
2025-03-22 15:19:04.654,2.820338749781676
2025-03-22 15:19:04.654,0.9100021878250607
2025-03-22 15:19:04.664,-1.4174694943052706
2025-03-22 15:19:04.664,-2.2323992827687396
2025-03-22 15:19:04.664,-1.2467116654504249
2025-03-22 15:19:04.664,0.17682997954381977
2025-03-22 15:19:04.664,0.7514627743895408
2025-03-22 15:19:04.674,0.5461078165069079
2025-03-22 15:19:04.674,0.38150419270286506
2025-03-22 15:19:04.674,0.5325836825722089
2025-03-22 15:19:04.674,0.5660069908342108
2025-03-22 15:19:04.674,0.1619842140107491
2025-03-22 15:19:04.684,-0.4744163279549139
2025-03-22 15:19:04.684,-0.9555667526890184
2025-03-22 15:19:04.684,-1.0553647763642622
2025-03-22 15:19:04.684,-0.7127103946885586
2025-03-22 15:19:04.684,0.018169724172650586
2025-03-22 15:19:04.694,0.9266032354531147
2025-03-22 15:19:04.694,1.6129916560068045
2025-03-22 15:19:04.694,1.5695328068150616
2025-03-22 15:19:04.694,0.517389710234394
2025-03-22 15:19:04.694,-1.11131153480337
2025-03-22 15:19:04.704,-2.208863266829701
2025-03-22 15:19:04.704,-1.9132828369377906
2025-03-22 15:19:04.704,-0.5056761801669668
2025-03-22 15:19:04.704,0.9313920299261484
2025-03-22 15:19:04.704,1.7008087826012461
2025-03-22 15:19:04.713,1.8803258451559606
2025-03-22 15:19:04.714,1.5189711778409498
2025-03-22 15:19:04.714,0.20420653215820014
2025-03-22 15:19:04.714,-1.9727334443515927
2025-03-22 15:19:04.714,-3.4807501163863486
2025-03-22 15:19:04.724,-2.421989305045034
2025-03-22 15:19:04.724,1.0583928827303244
2025-03-22 15:19:04.724,4.077453222035437
2025-03-22 15:19:04.724,3.5904283881685113
2025-03-22 15:19:04.724,-0.2157881106276418
2025-03-22 15:19:04.734,-3.7076692272826546
2025-03-22 15:19:04.734,-3.4615492390763056
2025-03-22 15:19:04.734,0.07741641097370575
2025-03-22 15:19:04.734,3.0923994775162216
2025-03-22 15:19:04.734,2.5807314657601257
2025-03-22 15:19:04.742,-0.47223958745827466
2025-03-22 15:19:04.742,-2.4744964267037193
2025-03-22 15:19:04.743,-1.4370352908986417
2025-03-22 15:19:04.743,0.9514693391918908
2025-03-22 15:19:04.743,1.6896139922444862
2025-03-22 15:19:04.752,0.18399920699991304
2025-03-22 15:19:04.752,-1.27323319467283
2025-03-22 15:19:04.753,-0.6639131895361079
2025-03-22 15:19:04.753,1.120185889964891
2025-03-22 15:19:04.753,1.5071030301626684
2025-03-22 15:19:04.762,-0.31781351093567467
2025-03-22 15:19:04.762,-2.2178548042575854
2025-03-22 15:19:04.763,-1.7156015437032797
2025-03-22 15:19:04.763,0.8831442201898646
2025-03-22 15:19:04.772,2.757245463769359
2025-03-22 15:19:04.772,1.825601035605732
2025-03-22 15:19:04.772,-0.9599146153784996
2025-03-22 15:19:04.772,-2.749863881290484
2025-03-22 15:19:04.772,-1.8149947308395562
2025-03-22 15:19:04.782,0.7811138828889128
2025-03-22 15:19:04.782,2.3919351404907294
2025-03-22 15:19:04.782,1.5679550410963392
2025-03-22 15:19:04.782,-0.5176819904681428
2025-03-22 15:19:04.782,-1.6046176369122365
2025-03-22 15:19:04.792,-0.9719095578745068
2025-03-22 15:19:04.792,0.1302604061758158
2025-03-22 15:19:04.792,0.4899084879033235
2025-03-22 15:19:04.792,0.32018268955465556
2025-03-22 15:19:04.793,0.31857678744775925
2025-03-22 15:19:04.802,0.357498774442851
2025-03-22 15:19:04.802,-0.06458121249133805
2025-03-22 15:19:04.802,-0.6377925008205915
2025-03-22 15:19:04.802,-0.5041224621217331
2025-03-22 15:19:04.803,0.34132139727893385
2025-03-22 15:19:04.812,0.7843166993964932
2025-03-22 15:19:04.812,0.08928124972620996
2025-03-22 15:19:04.812,-0.9186220460592901
2025-03-22 15:19:04.812,-0.8025815698115326
2025-03-22 15:19:04.812,0.5116467788099303
2025-03-22 15:19:04.822,1.4147766954036531
2025-03-22 15:19:04.822,0.6141116186321016
2025-03-22 15:19:04.822,-1.0367847802173265
2025-03-22 15:19:04.822,-1.4689989083924182
2025-03-22 15:19:04.822,-0.10950340548048523
2025-03-22 15:19:04.832,1.2782841875909157
2025-03-22 15:19:04.832,0.9292639080558857
2025-03-22 15:19:04.832,-0.5863074950227245
2025-03-22 15:19:04.832,-1.2292166600464207
2025-03-22 15:19:04.832,-0.1980210750532178
2025-03-22 15:19:04.842,1.2097850763785893
2025-03-22 15:19:04.842,1.333133194629335
2025-03-22 15:19:04.842,-0.019841385236796932
2025-03-22 15:19:04.842,-1.5476605247838462
2025-03-22 15:19:04.842,-1.8088531349521166
2025-03-22 15:19:04.852,-0.5304771343150358
2025-03-22 15:19:04.852,1.2094533598473671
2025-03-22 15:19:04.852,2.0422359934085295
2025-03-22 15:19:04.852,1.5011349779683674
2025-03-22 15:19:04.852,0.11337041181521253
2025-03-22 15:19:04.860,-1.344862145454148
2025-03-22 15:19:04.860,-2.2261752051597212
2025-03-22 15:19:04.860,-1.907287950132631
2025-03-22 15:19:04.860,-0.14260611779234159
2025-03-22 15:19:04.861,2.1666772204055706
2025-03-22 15:19:04.870,3.148880057309337
2025-03-22 15:19:04.870,1.6055967996008602
2025-03-22 15:19:04.870,-1.4410018349770872
2025-03-22 15:19:04.871,-3.3038668291064957
2025-03-22 15:19:04.880,-2.210495409160152
2025-03-22 15:19:04.880,0.6997207026190045
2025-03-22 15:19:04.880,2.4772921570100075
2025-03-22 15:19:04.880,1.63737625886517
2025-03-22 15:19:04.881,-0.3253626393991975
2025-03-22 15:19:04.890,-1.1173027192328353
2025-03-22 15:19:04.890,-0.4782814986384632
2025-03-22 15:19:04.890,0.13215592116892144
2025-03-22 15:19:04.891,0.0001932847457512439
2025-03-22 15:19:04.891,-0.14880026853733752
2025-03-22 15:19:04.891,0.1528788290095238
2025-03-22 15:19:04.900,0.2333596520874656
2025-03-22 15:19:04.900,-0.3327757605562506
2025-03-22 15:19:04.901,-0.6216381831283058
2025-03-22 15:19:04.901,0.3183291787037363
2025-03-22 15:19:04.910,1.611712410387712
2025-03-22 15:19:04.910,1.2661186140614598
2025-03-22 15:19:04.910,-1.0551499740578643
2025-03-22 15:19:04.910,-2.9627282232025816
2025-03-22 15:19:04.911,-1.9113667138415993
2025-03-22 15:19:04.920,1.4635825703500556
2025-03-22 15:19:04.920,3.6184466743221932
2025-03-22 15:19:04.920,2.1240106554220644
2025-03-22 15:19:04.920,-1.3591156233525445
2025-03-22 15:19:04.920,-3.014856850558429
2025-03-22 15:19:04.930,-1.43426092892387
2025-03-22 15:19:04.930,0.9517368196764773
2025-03-22 15:19:04.930,1.2762627842209466
2025-03-22 15:19:04.931,-0.15874511043536269
2025-03-22 15:19:04.931,-0.7563575403269064
2025-03-22 15:19:04.940,0.5599356122417409
2025-03-22 15:19:04.940,1.9103026309875748
2025-03-22 15:19:04.940,1.1138922735633106
2025-03-22 15:19:04.940,-1.3594007794956746
2025-03-22 15:19:04.940,-2.888186069213609
2025-03-22 15:19:04.950,-1.7237792237965124
2025-03-22 15:19:04.950,1.1070488941394645
2025-03-22 15:19:04.950,2.8620419976472617
2025-03-22 15:19:04.950,1.8222688136025629
2025-03-22 15:19:04.950,-0.9098923647618888
2025-03-22 15:19:04.960,-2.382104803945281
2025-03-22 15:19:04.960,-0.9413421407744091
2025-03-22 15:19:04.960,1.6672337233797019
2025-03-22 15:19:04.960,2.0988800625734405
2025-03-22 15:19:04.960,-0.4843620882030465
2025-03-22 15:19:04.970,-3.059944651940909
2025-03-22 15:19:04.970,-2.266986827238254
2025-03-22 15:19:04.970,1.3946862085177547
2025-03-22 15:19:04.970,4.013710478768927
2025-03-22 15:19:04.970,2.776538189486503
2025-03-22 15:19:04.980,-1.039029441258404
2025-03-22 15:19:04.980,-3.7992043270033338
2025-03-22 15:19:04.980,-3.3159862626867285
2025-03-22 15:19:04.980,-0.42146735595918305
2025-03-22 15:19:04.980,2.4650966504154264
2025-03-22 15:19:04.990,3.4407241951437166
2025-03-22 15:19:04.990,2.0851984909888235
2025-03-22 15:19:04.990,-0.6157002458847707
2025-03-22 15:19:04.990,-2.8448840767724266
2025-03-22 15:19:04.990,-2.9986092337114374
2025-03-22 15:19:05.000,-0.9317088859742388
2025-03-22 15:19:05.000,1.684597297372293
2025-03-22 15:19:05.000,2.6982607100571516
2025-03-22 15:19:05.000,1.5153422156547989
2025-03-22 15:19:05.000,-0.38882830429626825
2025-03-22 15:19:05.008,-1.250921573442218
2025-03-22 15:19:05.008,-0.9676075782032847
2025-03-22 15:19:05.008,-0.7029043749765143
2025-03-22 15:19:05.008,-0.8265632006716852
2025-03-22 15:19:05.018,-0.3212620783081887
2025-03-22 15:19:05.018,1.3233059949236288
2025-03-22 15:19:05.018,2.624119053991845
2025-03-22 15:19:05.018,1.6567477855632085
2025-03-22 15:19:05.018,-1.190711377006992
2025-03-22 15:19:05.028,-3.2018928316614206
2025-03-22 15:19:05.028,-2.37524630249032
2025-03-22 15:19:05.028,0.33596844449666863
2025-03-22 15:19:05.029,2.282744522307663
2025-03-22 15:19:05.029,2.050790582426963
2025-03-22 15:19:05.038,0.5664188061342275
2025-03-22 15:19:05.038,-0.4727038887235965
2025-03-22 15:19:05.038,-0.6233560669395356
2025-03-22 15:19:05.038,-0.7709113853197371
2025-03-22 15:19:05.038,-1.3594094509431587
2025-03-22 15:19:05.048,-1.3505977397010978
2025-03-22 15:19:05.048,0.29355955943141093
2025-03-22 15:19:05.048,2.5014408816089766
2025-03-22 15:19:05.048,2.7689761874136605
2025-03-22 15:19:05.048,0.3344727493238342
2025-03-22 15:19:05.058,-2.4457480801347438
2025-03-22 15:19:05.058,-2.7729614692205553
2025-03-22 15:19:05.058,-0.7283197267116857
2025-03-22 15:19:05.058,1.176766803619552
2025-03-22 15:19:05.058,1.3721429963976426
2025-03-22 15:19:05.068,0.7587777044967519
2025-03-22 15:19:05.068,0.6542385056542472
2025-03-22 15:19:05.068,0.6558985521247395
2025-03-22 15:19:05.068,-0.3715081478454895
2025-03-22 15:19:05.068,-1.984877502631672
2025-03-22 15:19:05.078,-2.284027067745018
2025-03-22 15:19:05.078,-0.4291820194503695
2025-03-22 15:19:05.078,2.0333106071441414
2025-03-22 15:19:05.078,2.8448701008440644
2025-03-22 15:19:05.079,1.4277636845641148
2025-03-22 15:19:05.088,-0.8605618019651572
2025-03-22 15:19:05.088,-2.3571530320155456
2025-03-22 15:19:05.088,-2.3190754273711143
2025-03-22 15:19:05.088,-0.8614268386538609
2025-03-22 15:19:05.088,1.3195721712293629
2025-03-22 15:19:05.098,2.88722183908179
2025-03-22 15:19:05.098,2.408381167913603
2025-03-22 15:19:05.098,-0.18957248283858144
2025-03-22 15:19:05.098,-2.9163891565422646
2025-03-22 15:19:05.098,-3.26766933932434
2025-03-22 15:19:05.108,-0.7787380448087011
2025-03-22 15:19:05.108,2.3076339960260883
2025-03-22 15:19:05.108,3.2091261847760966
2025-03-22 15:19:05.108,1.3124479559498963
2025-03-22 15:19:05.108,-1.4110785890003015
2025-03-22 15:19:05.116,-2.476018360731465
2025-03-22 15:19:05.116,-1.1752810328594738
2025-03-22 15:19:05.116,0.9582521330110925
2025-03-22 15:19:05.117,1.7127399808402533
2025-03-22 15:19:05.117,0.3929150086343779
2025-03-22 15:19:05.126,-1.3747665859194431
2025-03-22 15:19:05.126,-1.3385125227866252
2025-03-22 15:19:05.126,0.6875088486919047
2025-03-22 15:19:05.127,2.326721810412004
2025-03-22 15:19:05.127,1.3302248385375453
2025-03-22 15:19:05.136,-1.568566702456264
2025-03-22 15:19:05.136,-3.197684007681766
2025-03-22 15:19:05.136,-1.4950924947395174
2025-03-22 15:19:05.137,1.9740039749658254
2025-03-22 15:19:05.146,3.5459296338857897
2025-03-22 15:19:05.146,1.4969934722278322
2025-03-22 15:19:05.146,-1.9584718548350342
2025-03-22 15:19:05.146,-3.1397881189952574
2025-03-22 15:19:05.146,-1.0608927090987175
2025-03-22 15:19:05.156,1.6601737230048645
2025-03-22 15:19:05.156,2.1365308730739065
2025-03-22 15:19:05.156,0.46416475007311553
2025-03-22 15:19:05.156,-1.0578260044675372
2025-03-22 15:19:05.156,-1.0989658182853008
2025-03-22 15:19:05.166,-0.3801436059501076
2025-03-22 15:19:05.166,0.11452051710369375
2025-03-22 15:19:05.166,0.46092557118717126
2025-03-22 15:19:05.166,0.9129258314140221
2025-03-22 15:19:05.166,0.9348138682760782
2025-03-22 15:19:05.176,-0.027967560291745908
2025-03-22 15:19:05.176,-1.3928419891440198
2025-03-22 15:19:05.176,-1.791086610030819
2025-03-22 15:19:05.176,-0.5344381645157543
2025-03-22 15:19:05.177,1.4568235031340873
2025-03-22 15:19:05.186,2.250034521128753
2025-03-22 15:19:05.186,0.8040397093280995
2025-03-22 15:19:05.186,-1.5051033097496882
2025-03-22 15:19:05.186,-1.9866790585394272
2025-03-22 15:19:05.186,0.05844164691365614
2025-03-22 15:19:05.196,1.950939244919859
2025-03-22 15:19:05.196,0.8452101353715092
2025-03-22 15:19:05.196,-2.1314075188300725
2025-03-22 15:19:05.196,-2.767254141819648
2025-03-22 15:19:05.197,0.7093749032969704
2025-03-22 15:19:05.206,4.601668378436052
2025-03-22 15:19:05.206,3.7361720528800664
2025-03-22 15:19:05.206,-1.9759291591710473
2025-03-22 15:19:05.206,-6.588599140289741
2025-03-22 15:19:05.206,-4.567284339250793
2025-03-22 15:19:05.216,2.568619374962914
2025-03-22 15:19:05.216,7.42580089022012
2025-03-22 15:19:05.216,4.848866732901055
2025-03-22 15:19:05.216,-2.3497818407286095
2025-03-22 15:19:05.216,-6.718278282850525
2025-03-22 15:19:05.226,-4.382188355099231
2025-03-22 15:19:05.226,1.448570749525091
2025-03-22 15:19:05.226,4.85112720966896
2025-03-22 15:19:05.226,3.4054738735791297
2025-03-22 15:19:05.226,-0.44625681092749325
2025-03-22 15:19:05.236,-2.8763307917404033
2025-03-22 15:19:05.236,-2.2932727037437703
2025-03-22 15:19:05.236,0.014532782021626028
2025-03-22 15:19:05.236,1.640250982789332
2025-03-22 15:19:05.236,1.2288069540645488
2025-03-22 15:19:05.245,-0.436467247105032
2025-03-22 15:19:05.246,-1.2583208777365478
2025-03-22 15:19:05.246,-0.1504724107841135
2025-03-22 15:19:05.246,1.4798352961122714
2025-03-22 15:19:05.246,1.2811607595309296
2025-03-22 15:19:05.254,-0.9098284365365663
2025-03-22 15:19:05.254,-2.501847295485462
2025-03-22 15:19:05.255,-1.3293313150311472
2025-03-22 15:19:05.255,1.4853555049914304
2025-03-22 15:19:05.255,2.8693190383951337
2025-03-22 15:19:05.264,1.490657904372899
2025-03-22 15:19:05.264,-1.0351559394411745
2025-03-22 15:19:05.264,-2.4248751066781593
2025-03-22 15:19:05.265,-1.9676459878677774
2025-03-22 15:19:05.274,-0.3416036819994394
2025-03-22 15:19:05.274,1.5056684648873087
2025-03-22 15:19:05.274,2.5796360390444297
2025-03-22 15:19:05.274,1.8904563538765013
2025-03-22 15:19:05.275,-0.5552897146442846
2025-03-22 15:19:05.284,-2.959053612783002
2025-03-22 15:19:05.284,-2.938463009128635
2025-03-22 15:19:05.284,-0.09173629306001296
2025-03-22 15:19:05.285,3.02420903518325
2025-03-22 15:19:05.285,3.2294220661066118
2025-03-22 15:19:05.294,0.23277196129809588
2025-03-22 15:19:05.294,-2.8103947699687266
2025-03-22 15:19:05.294,-2.760658580715116
2025-03-22 15:19:05.294,-0.009187847339672872
2025-03-22 15:19:05.294,2.242526073840075
2025-03-22 15:19:05.304,1.8596200708477268
2025-03-22 15:19:05.304,-0.1484961404808341
2025-03-22 15:19:05.304,-1.4568696573665072
2025-03-22 15:19:05.304,-1.1432349868946308
2025-03-22 15:19:05.305,-0.01443666684883281
2025-03-22 15:19:05.314,0.8599439471534526
2025-03-22 15:19:05.314,1.010915922918136
2025-03-22 15:19:05.314,0.40510581305556026
2025-03-22 15:19:05.314,-0.617544472094561
2025-03-22 15:19:05.314,-1.2412263413686866
2025-03-22 15:19:05.324,-0.7663890092817841
2025-03-22 15:19:05.324,0.4688695491120245
2025-03-22 15:19:05.324,1.2550554449837388
2025-03-22 15:19:05.324,0.8515691861830109
2025-03-22 15:19:05.324,-0.19185771745741495
2025-03-22 15:19:05.334,-0.800810837427397
2025-03-22 15:19:05.334,-0.6319065517072628
2025-03-22 15:19:05.334,-0.1769994321464341
2025-03-22 15:19:05.334,0.15391777385039426
2025-03-22 15:19:05.334,0.4353822773105748
2025-03-22 15:19:05.342,0.6242748111992149
2025-03-22 15:19:05.342,0.2665714512126931
2025-03-22 15:19:05.343,-0.6581086945724888
2025-03-22 15:19:05.343,-1.1310937280844124
2025-03-22 15:19:05.343,-0.23078734802149733
2025-03-22 15:19:05.352,1.2695140700193093
2025-03-22 15:19:05.352,1.480877872583767
2025-03-22 15:19:05.352,-0.12010908630628978
2025-03-22 15:19:05.353,-1.744869648384155
2025-03-22 15:19:05.353,-1.4861686041361821
2025-03-22 15:19:05.362,0.2883218047677477
2025-03-22 15:19:05.362,1.5989200653722264
2025-03-22 15:19:05.363,1.3477260821662949
2025-03-22 15:19:05.363,0.1282765643366092
2025-03-22 15:19:05.363,-1.0437925842189328
2025-03-22 15:19:05.372,-1.5636533124142187
2025-03-22 15:19:05.372,-0.9489193369321569
2025-03-22 15:19:05.372,0.8223656326930509
2025-03-22 15:19:05.373,2.3451726236590016
2025-03-22 15:19:05.373,1.5982385262944785
2025-03-22 15:19:05.382,-1.336406226987909
2025-03-22 15:19:05.382,-3.3939978317417756
2025-03-22 15:19:05.382,-1.7544383477259133
2025-03-22 15:19:05.383,2.3344471404159104
2025-03-22 15:19:05.392,4.358228797124688
2025-03-22 15:19:05.392,1.6497863935851902
2025-03-22 15:19:05.392,-3.218288290346932
2025-03-22 15:19:05.393,-5.052203377518665
2025-03-22 15:19:05.393,-1.7739985885111014
2025-03-22 15:19:05.402,3.3225407678305308
2025-03-22 15:19:05.402,5.220618170104922
2025-03-22 15:19:05.402,2.3696949848405175
2025-03-22 15:19:05.402,-2.2434521948276998
2025-03-22 15:19:05.403,-4.589728914712719
2025-03-22 15:19:05.412,-3.2407097278954726
2025-03-22 15:19:05.412,0.23817533418140352
2025-03-22 15:19:05.412,3.237846182697922
2025-03-22 15:19:05.412,3.872891960834093
2025-03-22 15:19:05.413,1.7911228190537272
2025-03-22 15:19:05.422,-1.5906480989163991
2025-03-22 15:19:05.422,-3.754406958543459
2025-03-22 15:19:05.422,-2.9459411090211485
2025-03-22 15:19:05.422,0.13582866579064015
2025-03-22 15:19:05.422,2.8051483196277127
2025-03-22 15:19:05.432,2.896936651808855
2025-03-22 15:19:05.432,0.7573830067026684
2025-03-22 15:19:05.432,-1.40167786502633
2025-03-22 15:19:05.432,-1.9053824740143126
2025-03-22 15:19:05.432,-0.9968606036905072
2025-03-22 15:19:05.442,0.05899096957939911
2025-03-22 15:19:05.442,0.5760559331218367
2025-03-22 15:19:05.442,0.7383169644667116
2025-03-22 15:19:05.442,0.740985698308105
2025-03-22 15:19:05.443,0.41855492557249646
2025-03-22 15:19:05.452,-0.18062284757879907
2025-03-22 15:19:05.452,-0.548302251040142
2025-03-22 15:19:05.452,-0.480263226602095
2025-03-22 15:19:05.452,-0.5186361513452791
2025-03-22 15:19:05.452,-0.9196078831409802
2025-03-22 15:19:05.462,-0.6790374669457735
2025-03-22 15:19:05.462,1.1679828848274965
2025-03-22 15:19:05.462,3.278731002953846
2025-03-22 15:19:05.462,2.657421979504659
2025-03-22 15:19:05.462,-1.420454253389329
2025-03-22 15:19:05.472,-5.304535356054627
2025-03-22 15:19:05.472,-4.479127470303276
2025-03-22 15:19:05.472,0.9556061054660799
2025-03-22 15:19:05.472,5.792432230688535
2025-03-22 15:19:05.472,5.246560468277148
2025-03-22 15:19:05.480,0.05950192057716236
2025-03-22 15:19:05.480,-4.587218559463443
2025-03-22 15:19:05.481,-4.650069133483806
2025-03-22 15:19:05.481,-0.9227661017077377
2025-03-22 15:19:05.481,2.57117102969718
2025-03-22 15:19:05.490,2.9733591419644703
2025-03-22 15:19:05.490,0.9839987684750693
2025-03-22 15:19:05.491,-0.7300788021179128
2025-03-22 15:19:05.491,-0.7915829867586994
2025-03-22 15:19:05.500,-0.24064818678491895
2025-03-22 15:19:05.500,-0.5296393751521886
2025-03-22 15:19:05.500,-1.2715328746716272
2025-03-22 15:19:05.501,-0.8070697514217836
2025-03-22 15:19:05.501,1.2048950094231956
2025-03-22 15:19:05.510,2.768262997082438
2025-03-22 15:19:05.510,1.7241603691235898
2025-03-22 15:19:05.510,-1.4008797715123735
2025-03-22 15:19:05.510,-3.4946565659090343
2025-03-22 15:19:05.511,-2.1906819444510517
2025-03-22 15:19:05.520,1.2825775205348204
2025-03-22 15:19:05.520,3.286470622129333
2025-03-22 15:19:05.520,1.879916250423869
2025-03-22 15:19:05.520,-1.0195971445415517
2025-03-22 15:19:05.521,-2.1006985439327606
2025-03-22 15:19:05.530,-0.6688747248638758
2025-03-22 15:19:05.530,0.8191035265059181
2025-03-22 15:19:05.530,0.24914855780799328
2025-03-22 15:19:05.530,-1.2401581965527029
2025-03-22 15:19:05.531,-0.8388325289022188
2025-03-22 15:19:05.540,1.7661008009680423
2025-03-22 15:19:05.540,3.278124591736555
2025-03-22 15:19:05.540,0.8739284950788353
2025-03-22 15:19:05.540,-3.449726236268347
2025-03-22 15:19:05.540,-4.528391034633258
2025-03-22 15:19:05.550,-0.483050192627958
2025-03-22 15:19:05.550,4.303794585919878
2025-03-22 15:19:05.550,4.257810618914068
2025-03-22 15:19:05.550,-0.40098319045987324
2025-03-22 15:19:05.550,-3.9706999181705136
2025-03-22 15:19:05.560,-2.5555381136111377
2025-03-22 15:19:05.560,1.3243395515511296
2025-03-22 15:19:05.560,2.6001383809222953
2025-03-22 15:19:05.560,0.29809114992846975
2025-03-22 15:19:05.560,-1.8771941955503366
2025-03-22 15:19:05.570,-1.007128316174041
2025-03-22 15:19:05.570,1.3995868993714804
2025-03-22 15:19:05.570,2.0038279756212507
2025-03-22 15:19:05.570,0.15940447205342173
2025-03-22 15:19:05.570,-1.722310634156333
2025-03-22 15:19:05.578,-1.6605851087625152
2025-03-22 15:19:05.578,-0.3029720652475517
2025-03-22 15:19:05.579,0.606093151841371
2025-03-22 15:19:05.579,0.643861779672917
2025-03-22 15:19:05.588,0.683180299458651
2025-03-22 15:19:05.588,1.0622332466386342
2025-03-22 15:19:05.588,0.9308519996809388
2025-03-22 15:19:05.589,-0.35461600881844985
2025-03-22 15:19:05.589,-1.9461855906734227
2025-03-22 15:19:05.598,-2.2451489601337746
2025-03-22 15:19:05.598,-0.755902026912937
2025-03-22 15:19:05.598,1.3067713252561879
2025-03-22 15:19:05.599,2.3308758149607876
2025-03-22 15:19:05.599,1.8287554445054628
2025-03-22 15:19:05.599,0.47004436572461056
2025-03-22 15:19:05.608,-0.9516337139088711
2025-03-22 15:19:05.608,-2.0324025308152294
2025-03-22 15:19:05.609,-2.3670493239272794
2025-03-22 15:19:05.609,-1.3562565759292033
2025-03-22 15:19:05.618,1.0708452927340886
2025-03-22 15:19:05.618,3.5958962659143507
2025-03-22 15:19:05.618,3.9000200755302297
2025-03-22 15:19:05.618,0.7114144046220331
2025-03-22 15:19:05.618,-4.077276581781685
2025-03-22 15:19:05.628,-6.043335081203847
2025-03-22 15:19:05.628,-2.3991046987884554
2025-03-22 15:19:05.628,4.15782489149188
2025-03-22 15:19:05.628,7.143165778219632
2025-03-22 15:19:05.629,3.072117211696057
2025-03-22 15:19:05.638,-4.093228396150137
2025-03-22 15:19:05.638,-6.80602241591683
2025-03-22 15:19:05.638,-2.3755017754697665
2025-03-22 15:19:05.638,3.936250759768017
2025-03-22 15:19:05.639,5.14541716294962
2025-03-22 15:19:05.648,0.663435178107638
2025-03-22 15:19:05.648,-3.5811592578263682
2025-03-22 15:19:05.648,-2.809094992404785
2025-03-22 15:19:05.648,1.0913999072565854
2025-03-22 15:19:05.649,2.8215565671499117
2025-03-22 15:19:05.658,0.6906997187714503
2025-03-22 15:19:05.658,-1.9013486768023675
2025-03-22 15:19:05.658,-1.6283595723926632
2025-03-22 15:19:05.658,0.5832965671888897
2025-03-22 15:19:05.659,1.5954089664288167
2025-03-22 15:19:05.668,0.5159847410333759
2025-03-22 15:19:05.668,-0.7782899399065186
2025-03-22 15:19:05.668,-0.8476637294806586
2025-03-22 15:19:05.668,-0.3160729112748337
2025-03-22 15:19:05.669,-0.06519598199842482
2025-03-22 15:19:05.678,0.31484222258740896
2025-03-22 15:19:05.678,1.2406194748061943
2025-03-22 15:19:05.678,1.594375423875397
2025-03-22 15:19:05.678,0.028656020761323044
2025-03-22 15:19:05.678,-2.529073886423073
2025-03-22 15:19:05.688,-3.188048489586298
2025-03-22 15:19:05.688,-0.507662428350572
2025-03-22 15:19:05.688,3.2252193398099887
2025-03-22 15:19:05.688,4.1088886984138675
2025-03-22 15:19:05.688,1.003790086655615
2025-03-22 15:19:05.698,-2.9849563206433336
2025-03-22 15:19:05.698,-3.854052227396112
2025-03-22 15:19:05.698,-1.063017045691654
2025-03-22 15:19:05.698,2.1465775202466344
2025-03-22 15:19:05.698,2.6286965227196277
2025-03-22 15:19:05.708,0.6175789142627816
2025-03-22 15:19:05.708,-1.2256440265253545
2025-03-22 15:19:05.708,-1.2213238646697746
2025-03-22 15:19:05.708,-0.1579233381584965
2025-03-22 15:19:05.708,0.4135829492226884
2025-03-22 15:19:05.716,0.23874964171892848
2025-03-22 15:19:05.716,0.14543250684893255
2025-03-22 15:19:05.717,0.42683439544399465
2025-03-22 15:19:05.717,0.3662026997665359
2025-03-22 15:19:05.726,-0.5346324947134331
2025-03-22 15:19:05.726,-1.4751386060434324
2025-03-22 15:19:05.726,-1.0269496092014758
2025-03-22 15:19:05.727,1.0265411296411318
2025-03-22 15:19:05.727,2.80759228701866
2025-03-22 15:19:05.736,1.9308154862778866
2025-03-22 15:19:05.736,-1.534109178284424
2025-03-22 15:19:05.736,-4.1944629859257425
2025-03-22 15:19:05.737,-2.6579700999664855
2025-03-22 15:19:05.737,2.0633146604611112
2025-03-22 15:19:05.746,4.900593077339872
2025-03-22 15:19:05.746,2.5136544327985533
2025-03-22 15:19:05.746,-2.3976900455869856
2025-03-22 15:19:05.746,-4.213263002526741
2025-03-22 15:19:05.747,-1.281526635788389
2025-03-22 15:19:05.756,2.343064868824679
2025-03-22 15:19:05.756,2.381580192675734
2025-03-22 15:19:05.756,-0.45065952277761245
2025-03-22 15:19:05.756,-2.0681138556530865
2025-03-22 15:19:05.757,-0.5865051767701515
2025-03-22 15:19:05.766,1.714670654673375
2025-03-22 15:19:05.766,1.8784233028567132
2025-03-22 15:19:05.766,-0.10157941478576257
2025-03-22 15:19:05.766,-1.892269155770763
2025-03-22 15:19:05.767,-1.8624557353953608
2025-03-22 15:19:05.776,-0.4170650018115903
2025-03-22 15:19:05.776,1.1204197999867416
2025-03-22 15:19:05.776,1.8165934947048532
2025-03-22 15:19:05.776,1.3600545247921487
2025-03-22 15:19:05.776,-0.0328679627704656
2025-03-22 15:19:05.786,-1.4926689078593225
2025-03-22 15:19:05.786,-1.8300821559031446
2025-03-22 15:19:05.786,-0.6515481178739995
2025-03-22 15:19:05.786,0.9520435066126084
2025-03-22 15:19:05.786,1.3992132851195356
2025-03-22 15:19:05.796,0.4333181585517155
2025-03-22 15:19:05.796,-0.5520884392107853
2025-03-22 15:19:05.796,-0.30701229115586526
2025-03-22 15:19:05.796,0.6133893445313224
2025-03-22 15:19:05.796,0.5944448211066812
2025-03-22 15:19:05.804,-0.7594230793532414
2025-03-22 15:19:05.804,-1.8430807396045776
2025-03-22 15:19:05.805,-0.9714685943252152
2025-03-22 15:19:05.805,1.3189851200106142
2025-03-22 15:19:05.805,2.5812100439208026
2025-03-22 15:19:05.814,1.2339675782807966
2025-03-22 15:19:05.814,-1.4492111604198057
2025-03-22 15:19:05.815,-2.615877728327402
2025-03-22 15:19:05.815,-1.0355505431064762
2025-03-22 15:19:05.824,1.469216097720329
2025-03-22 15:19:05.824,2.103798219361866
2025-03-22 15:19:05.824,0.33174495450658603
2025-03-22 15:19:05.825,-1.5657609214798776
2025-03-22 15:19:05.825,-1.3042724313894392
2025-03-22 15:19:05.834,0.6442633479516604
2025-03-22 15:19:05.834,1.7471871458072408
2025-03-22 15:19:05.834,0.6050909265508708
2025-03-22 15:19:05.834,-1.4057403851034287
2025-03-22 15:19:05.835,-1.9097318456793428
2025-03-22 15:19:05.844,-0.30919473468390574
2025-03-22 15:19:05.844,1.656763243349851
2025-03-22 15:19:05.844,1.8815553354219876
2025-03-22 15:19:05.845,0.14622508241044493
2025-03-22 15:19:05.845,-1.6172290279873784
2025-03-22 15:19:05.854,-1.4500840645434008
2025-03-22 15:19:05.854,0.3014204824629596
2025-03-22 15:19:05.854,1.389081213511663
2025-03-22 15:19:05.855,0.5920622115124814
2025-03-22 15:19:05.855,-0.7309025672722561
2025-03-22 15:19:05.864,-0.7249565353412246
2025-03-22 15:19:05.864,0.31331697964225125
2025-03-22 15:19:05.864,0.6279864537116715
2025-03-22 15:19:05.864,-0.22616194864036437
2025-03-22 15:19:05.865,-0.8240783611790352
2025-03-22 15:19:05.874,-0.15683669138399542
2025-03-22 15:19:05.874,0.8649536386451008
2025-03-22 15:19:05.874,0.8137695420979654
2025-03-22 15:19:05.874,-0.211571123399049
2025-03-22 15:19:05.875,-0.8321636651877801
2025-03-22 15:19:05.884,-0.3672005719611159
2025-03-22 15:19:05.884,0.34173621786433217
2025-03-22 15:19:05.884,0.27735521066990215
2025-03-22 15:19:05.884,-0.31320355093482316
2025-03-22 15:19:05.885,-0.41093091600220544
2025-03-22 15:19:05.894,0.22247527070189704
2025-03-22 15:19:05.894,0.7543092112409794
2025-03-22 15:19:05.894,0.5607825226266778
2025-03-22 15:19:05.894,0.027030510265702367
2025-03-22 15:19:05.894,-0.3020422634202061
2025-03-22 15:19:05.904,-0.646356288861115
2025-03-22 15:19:05.904,-1.2570841318749
2025-03-22 15:19:05.904,-1.2640914206547436
2025-03-22 15:19:05.904,0.41631907107247584
2025-03-22 15:19:05.904,2.8555236254052754
2025-03-22 15:19:05.912,3.2340001931655444
2025-03-22 15:19:05.912,0.21318483628907106
2025-03-22 15:19:05.913,-3.669429892235898
2025-03-22 15:19:05.913,-4.365967235306455
2025-03-22 15:19:05.913,-0.9957244864159953
2025-03-22 15:19:05.922,3.019432604365541
2025-03-22 15:19:05.922,3.832032801097864
2025-03-22 15:19:05.923,1.2742914068763482
2025-03-22 15:19:05.923,-1.5144680414251008
2025-03-22 15:19:05.923,-1.930512315691255
2025-03-22 15:19:05.932,-0.47281114989859735
2025-03-22 15:19:05.933,0.5088452657913692
2025-03-22 15:19:05.933,-0.13485574723071098
2025-03-22 15:19:05.933,-1.1391260224120736
2025-03-22 15:19:05.933,-0.637260689588527
2025-03-22 15:19:05.942,1.2972688861922397
2025-03-22 15:19:05.942,2.5028111264134782
2025-03-22 15:19:05.943,1.2954953548944317
2025-03-22 15:19:05.943,-1.3288668161975365
2025-03-22 15:19:05.943,-2.691095648633664
2025-03-22 15:19:05.952,-1.5099080394102997
2025-03-22 15:19:05.952,0.7234493731249901
2025-03-22 15:19:05.953,1.6741317111526333
2025-03-22 15:19:05.953,0.8426281362803271
2025-03-22 15:19:05.953,-0.2414367903769759
2025-03-22 15:19:05.962,-0.21468835371275913
2025-03-22 15:19:05.962,0.46357984313451106
2025-03-22 15:19:05.963,0.3588756773929646
2025-03-22 15:19:05.963,-0.8323309184583344
2025-03-22 15:19:05.972,-1.7003086393109073
2025-03-22 15:19:05.972,-0.9007881745375613
2025-03-22 15:19:05.972,0.9824701921347122
2025-03-22 15:19:05.973,2.019424097515427
2025-03-22 15:19:05.973,1.2649915892809107
2025-03-22 15:19:05.982,-0.25291945365519397
2025-03-22 15:19:05.982,-1.0679139742194768
2025-03-22 15:19:05.982,-1.0068407108484592
2025-03-22 15:19:05.982,-0.8036369932284767
2025-03-22 15:19:05.983,-0.5825403264809361
2025-03-22 15:19:05.992,0.2582566132421472
2025-03-22 15:19:05.992,1.5913055853670457
2025-03-22 15:19:05.992,1.969085351511696
2025-03-22 15:19:05.992,0.30850121049049967
2025-03-22 15:19:05.993,-2.1397053228624956
2025-03-22 15:19:06.002,-2.597021169452614
2025-03-22 15:19:06.002,-0.08339031272604552
2025-03-22 15:19:06.002,2.8160520930284223
2025-03-22 15:19:06.002,2.609705979497031
2025-03-22 15:19:06.002,-0.7780036512207105
2025-03-22 15:19:06.012,-3.5300400009687913
2025-03-22 15:19:06.012,-2.3447614844180684
2025-03-22 15:19:06.012,1.5326139826693543
2025-03-22 15:19:06.012,3.7068956817841063
2025-03-22 15:19:06.013,1.8274666913342879
2025-03-22 15:19:06.022,-1.748344712336039
2025-03-22 15:19:06.022,-2.9662426389542267
2025-03-22 15:19:06.022,-0.8911511608427032
2025-03-22 15:19:06.022,1.5794582701728426
2025-03-22 15:19:06.022,1.62621271294444
2025-03-22 15:19:06.032,-0.1993095642995888
2025-03-22 15:19:06.032,-1.264533870771947
2025-03-22 15:19:06.032,-0.45097851563105
2025-03-22 15:19:06.032,0.8266132246756553
2025-03-22 15:19:06.033,0.9372910470978306
2025-03-22 15:19:06.040,0.01161226292178913
2025-03-22 15:19:06.041,-0.7803833932833742
2025-03-22 15:19:06.041,-0.8588381570051622
2025-03-22 15:19:06.041,-0.4094673821715807
2025-03-22 15:19:06.041,0.3576052702780046
2025-03-22 15:19:06.050,1.2037838365345892
2025-03-22 15:19:06.050,1.4015453829374
2025-03-22 15:19:06.051,0.2414402464986656
2025-03-22 15:19:06.051,-1.7162140046364645
2025-03-22 15:19:06.051,-2.552093889942213
2025-03-22 15:19:06.060,-0.9071955363010674
2025-03-22 15:19:06.060,2.0157325815876446
2025-03-22 15:19:06.061,3.196684408796263
2025-03-22 15:19:06.061,1.1643753406953818
2025-03-22 15:19:06.061,-1.9502642052389179
2025-03-22 15:19:06.070,-2.7234812515484537
2025-03-22 15:19:06.071,-0.5699609149341943
2025-03-22 15:19:06.071,1.6496581769105783
2025-03-22 15:19:06.071,1.353424300525825
2025-03-22 15:19:06.071,-0.6529486850042185
2025-03-22 15:19:06.080,-1.5372952416765886
2025-03-22 15:19:06.080,-0.1227962306795813
2025-03-22 15:19:06.081,1.819699475392975
2025-03-22 15:19:06.081,1.8796004895284941
2025-03-22 15:19:06.090,-0.17064601056224038
2025-03-22 15:19:06.090,-2.2386111729487337
2025-03-22 15:19:06.091,-2.29344156137682
2025-03-22 15:19:06.091,-0.4125309013591328
2025-03-22 15:19:06.091,1.5976365079938128
2025-03-22 15:19:06.100,2.1661750392910584
2025-03-22 15:19:06.100,1.1939276064125819
2025-03-22 15:19:06.100,-0.3345125396750008
2025-03-22 15:19:06.101,-1.3587165012571976
2025-03-22 15:19:06.101,-1.3742597401486347
2025-03-22 15:19:06.110,-0.6219334600732953
2025-03-22 15:19:06.110,0.16996351383748326
2025-03-22 15:19:06.111,0.538495963579233
2025-03-22 15:19:06.111,0.7384334248508482
2025-03-22 15:19:06.111,1.0573602959576482
2025-03-22 15:19:06.120,0.955516230830538
2025-03-22 15:19:06.120,-0.2655542411650248
2025-03-22 15:19:06.120,-1.9376205752853726
2025-03-22 15:19:06.120,-2.2272924395339992
2025-03-22 15:19:06.121,-0.36613911828178036
2025-03-22 15:19:06.130,2.070612066815671
2025-03-22 15:19:06.130,2.749472410699525
2025-03-22 15:19:06.130,1.04327024264261
2025-03-22 15:19:06.130,-1.5008595302130618
2025-03-22 15:19:06.131,-2.7508295924818738
2025-03-22 15:19:06.140,-1.7169563345211625
2025-03-22 15:19:06.140,0.7848936364360343
2025-03-22 15:19:06.140,2.6802033071478375
2025-03-22 15:19:06.140,2.227615643280307
2025-03-22 15:19:06.141,-0.3065389442034806
2025-03-22 15:19:06.150,-2.6271910797887585
2025-03-22 15:19:06.150,-2.5167822508393893
2025-03-22 15:19:06.150,-0.0619611139835593
2025-03-22 15:19:06.150,2.406245984907363
2025-03-22 15:19:06.150,2.608815537825257
2025-03-22 15:19:06.160,0.46288865312564675
2025-03-22 15:19:06.160,-1.9655083738316732
2025-03-22 15:19:06.160,-2.4657941057339943
2025-03-22 15:19:06.160,-0.6973006554864569
2025-03-22 15:19:06.161,1.5532214625505099
2025-03-22 15:19:06.170,2.084382382404401
2025-03-22 15:19:06.170,0.47074367014741364
2025-03-22 15:19:06.170,-1.4417149157818197
2025-03-22 15:19:06.170,-1.5384856171172738
2025-03-22 15:19:06.171,0.11889886974147583
2025-03-22 15:19:06.180,1.4627092500254122
2025-03-22 15:19:06.180,1.0799499750951236
2025-03-22 15:19:06.180,-0.27326963526308784
2025-03-22 15:19:06.180,-1.172649127316132
2025-03-22 15:19:06.180,-1.2779580452538948
2025-03-22 15:19:06.190,-0.7588550449891682
2025-03-22 15:19:06.190,0.6269502318532997
2025-03-22 15:19:06.190,2.394378310977466
2025-03-22 15:19:06.190,2.4621308164901556
2025-03-22 15:19:06.190,-0.40400436328815165
2025-03-22 15:19:06.200,-3.744313267066454
2025-03-22 15:19:06.200,-3.4623005609153736
2025-03-22 15:19:06.200,0.7651543187548967
2025-03-22 15:19:06.200,4.306096966295547
2025-03-22 15:19:06.201,3.082449974000925
2025-03-22 15:19:06.210,-1.3000489462998313
2025-03-22 15:19:06.210,-3.6911645073253005
2025-03-22 15:19:06.210,-1.824418740353892
2025-03-22 15:19:06.210,1.4388099948156778
2025-03-22 15:19:06.210,2.3356371670280067
2025-03-22 15:19:06.218,0.6674725164564306
2025-03-22 15:19:06.218,-0.9782227910950403
2025-03-22 15:19:06.219,-1.038348247541824
2025-03-22 15:19:06.219,-0.30068476478165285
2025-03-22 15:19:06.228,0.11170232958918372
2025-03-22 15:19:06.228,0.29301989969596853
2025-03-22 15:19:06.229,0.6392528644065147
2025-03-22 15:19:06.229,0.7148544391674261
2025-03-22 15:19:06.229,0.003164364109815153
2025-03-22 15:19:06.229,-0.9055132250390476
2025-03-22 15:19:06.238,-0.9266280032151469
2025-03-22 15:19:06.238,-0.08122442487868275
2025-03-22 15:19:06.238,0.476552807111784
2025-03-22 15:19:06.239,0.1677023848217692
2025-03-22 15:19:06.248,-0.16283890448678626
2025-03-22 15:19:06.248,0.3773991018821212
2025-03-22 15:19:06.248,1.1813109135448085
2025-03-22 15:19:06.249,0.8470209591967176
2025-03-22 15:19:06.249,-0.7788898294694518
2025-03-22 15:19:06.258,-2.1384514030496558
2025-03-22 15:19:06.258,-1.7249597436456072
2025-03-22 15:19:06.258,0.2528161143385106
2025-03-22 15:19:06.259,2.1332246565362976
2025-03-22 15:19:06.259,2.3355804284933366
2025-03-22 15:19:06.268,0.6577859826278984
2025-03-22 15:19:06.268,-1.4745948017239852
2025-03-22 15:19:06.268,-2.1427808753497852
2025-03-22 15:19:06.268,-0.8896307175826825
2025-03-22 15:19:06.269,0.633601281100337
2025-03-22 15:19:06.278,0.7118039671095078
2025-03-22 15:19:06.278,-0.06520406125925651
2025-03-22 15:19:06.278,0.25308191604999464
2025-03-22 15:19:06.278,1.6780891484237292
2025-03-22 15:19:06.279,1.71015000741211
2025-03-22 15:19:06.288,-0.9842998826130739
2025-03-22 15:19:06.288,-3.8319357180469398
2025-03-22 15:19:06.288,-3.1018391244842225
2025-03-22 15:19:06.288,1.1041284053654046
2025-03-22 15:19:06.289,4.481437834218469
2025-03-22 15:19:06.296,3.5417440358456482
2025-03-22 15:19:06.296,-0.4277992100434841
2025-03-22 15:19:06.297,-3.276300614874272
2025-03-22 15:19:06.297,-2.8269397406935024
2025-03-22 15:19:06.308,-0.5634293753631994
2025-03-22 15:19:06.308,1.0243382753121935
2025-03-22 15:19:06.308,1.2709795854089203
2025-03-22 15:19:06.308,1.1078853555167885
2025-03-22 15:19:06.308,1.0729943302079998
2025-03-22 15:19:06.308,0.5719222701763277
2025-03-22 15:19:06.316,-0.8891737122451158
2025-03-22 15:19:06.316,-2.404712536538482
2025-03-22 15:19:06.317,-2.2415520204550337
2025-03-22 15:19:06.317,0.09849963009564523
2025-03-22 15:19:06.326,2.8009659513150624
2025-03-22 15:19:06.326,3.3147014259572174
2025-03-22 15:19:06.326,1.03992695432686
2025-03-22 15:19:06.327,-2.0102189412840494
2025-03-22 15:19:06.327,-3.323757190809434
2025-03-22 15:19:06.336,-2.2107324479394608
2025-03-22 15:19:06.336,0.11381597058932034
2025-03-22 15:19:06.337,2.089098745140272
2025-03-22 15:19:06.337,2.8267736789258113
2025-03-22 15:19:06.337,2.008681455223928
2025-03-22 15:19:06.346,-0.1474169651744685
2025-03-22 15:19:06.346,-2.4710763251575685
2025-03-22 15:19:06.346,-3.183425888854852
2025-03-22 15:19:06.347,-1.48120363109917
2025-03-22 15:19:06.347,1.330863841231314
2025-03-22 15:19:06.356,2.8766221737062794
2025-03-22 15:19:06.356,2.0333959135796404
2025-03-22 15:19:06.356,-0.06770476177786015
2025-03-22 15:19:06.356,-1.461552820899685
2025-03-22 15:19:06.356,-1.4130176561028074
2025-03-22 15:19:06.366,-0.7167742471609067
2025-03-22 15:19:06.366,-0.21865929809146112
2025-03-22 15:19:06.366,0.19032939911973856
2025-03-22 15:19:06.367,0.8406522879481123
2025-03-22 15:19:06.367,1.2841120967343793
2025-03-22 15:19:06.376,0.7910744246998589
2025-03-22 15:19:06.376,-0.4288282171300723
2025-03-22 15:19:06.376,-1.2775945489419025
2025-03-22 15:19:06.376,-1.076817518408643
2025-03-22 15:19:06.376,-0.23106728869020632
2025-03-22 15:19:06.386,0.49423471824007487
2025-03-22 15:19:06.386,0.7813001490528068
2025-03-22 15:19:06.386,0.6872651183668117
2025-03-22 15:19:06.386,0.32868332394336724
2025-03-22 15:19:06.386,-0.09690685414691451
2025-03-22 15:19:06.394,-0.40875894616060426
2025-03-22 15:19:06.394,-0.698022494046175
2025-03-22 15:19:06.395,-0.9959738772156497
2025-03-22 15:19:06.395,-0.7328467274111438
2025-03-22 15:19:06.395,0.6197895767588488
2025-03-22 15:19:06.404,2.20665066713665
2025-03-22 15:19:06.405,2.1405251989080245
2025-03-22 15:19:06.405,-0.1716553285482395
2025-03-22 15:19:06.405,-2.7852902559217787
2025-03-22 15:19:06.414,-3.0959155797115248
2025-03-22 15:19:06.414,-0.6879953519585721
2025-03-22 15:19:06.415,2.2651863202605775
2025-03-22 15:19:06.415,3.299372165213431
2025-03-22 15:19:06.415,1.858108758313058
2025-03-22 15:19:06.424,-0.7186878631143049
2025-03-22 15:19:06.424,-2.6962357101632954
2025-03-22 15:19:06.424,-3.014113111840686
2025-03-22 15:19:06.425,-1.4223456195960535
2025-03-22 15:19:06.425,1.4048077643438381
2025-03-22 15:19:06.434,3.66113853023033
2025-03-22 15:19:06.434,3.297832375398286
2025-03-22 15:19:06.434,0.09657751276543777
2025-03-22 15:19:06.435,-3.3987427875390344
2025-03-22 15:19:06.435,-3.9818764731362655
2025-03-22 15:19:06.444,-1.0990271615665919
2025-03-22 15:19:06.444,2.448986073441913
2025-03-22 15:19:06.444,3.377695808136874
2025-03-22 15:19:06.445,1.1770333472678967
2025-03-22 15:19:06.445,-1.6552753595140657
2025-03-22 15:19:06.454,-2.3356308074357313
2025-03-22 15:19:06.454,-0.521439564332095
2025-03-22 15:19:06.454,1.57658384610735
2025-03-22 15:19:06.455,1.646195726586452
2025-03-22 15:19:06.455,-0.2728516042415852
2025-03-22 15:19:06.464,-1.9251887667519767
2025-03-22 15:19:06.464,-1.408165559731002
2025-03-22 15:19:06.464,0.7177032542464089
2025-03-22 15:19:06.465,2.136412939605629
2025-03-22 15:19:06.465,1.3811829350000355
2025-03-22 15:19:06.474,-0.6707953599467746
2025-03-22 15:19:06.474,-1.9257363294294323
2025-03-22 15:19:06.474,-1.3238760970426238
2025-03-22 15:19:06.475,0.26184758346122317
2025-03-22 15:19:06.475,1.2003335187799147
2025-03-22 15:19:06.484,0.876841201038689
2025-03-22 15:19:06.484,0.14322388175197584
2025-03-22 15:19:06.484,0.031139884244359886
2025-03-22 15:19:06.484,0.3207712712753901
2025-03-22 15:19:06.485,-0.11344647595765253
2025-03-22 15:19:06.494,-1.4482218274453114
2025-03-22 15:19:06.494,-2.1046212983429635
2025-03-22 15:19:06.494,-0.5305585413305234
2025-03-22 15:19:06.494,2.4245940901225445
2025-03-22 15:19:06.495,3.8023768151957325
2025-03-22 15:19:06.504,1.6437562937271981
2025-03-22 15:19:06.504,-2.5347788219529566
2025-03-22 15:19:06.504,-4.865218943916765
2025-03-22 15:19:06.504,-2.889266925073445
2025-03-22 15:19:06.505,1.8583123520763403
2025-03-22 15:19:06.512,5.106234783839375
2025-03-22 15:19:06.512,3.8344325694871526
2025-03-22 15:19:06.513,-0.7951817170940652
2025-03-22 15:19:06.513,-4.4813963026074
2025-03-22 15:19:06.513,-3.958283325535807
2025-03-22 15:19:06.522,-0.162941619699884
2025-03-22 15:19:06.522,2.9900637129548717
2025-03-22 15:19:06.523,2.8895465361523947
2025-03-22 15:19:06.523,0.6517680711723357
2025-03-22 15:19:06.523,-0.9253144388479234
2025-03-22 15:19:06.532,-0.8880799633519343
2025-03-22 15:19:06.532,-0.5855064618516179
2025-03-22 15:19:06.533,-1.0113646345165055
2025-03-22 15:19:06.533,-1.1749007445006967
2025-03-22 15:19:06.542,0.18557353844045388
2025-03-22 15:19:06.542,2.197902019711796
2025-03-22 15:19:06.542,2.457485042771291
2025-03-22 15:19:06.542,0.1289584179593329
2025-03-22 15:19:06.543,-2.5564870768795873
2025-03-22 15:19:06.552,-2.6494240969556206
2025-03-22 15:19:06.552,0.0019614419294463614
2025-03-22 15:19:06.552,2.4259309306058476
2025-03-22 15:19:06.552,1.9670657005324168
2025-03-22 15:19:06.553,-0.6087800122807455
2025-03-22 15:19:06.562,-2.1514652521302504
2025-03-22 15:19:06.562,-0.9898275526064119
2025-03-22 15:19:06.562,1.2254727158106742
2025-03-22 15:19:06.563,1.830274248368075
2025-03-22 15:19:06.563,0.37716541352985594
2025-03-22 15:19:06.572,-1.2482434032354845
2025-03-22 15:19:06.572,-1.4087038866249781
2025-03-22 15:19:06.572,-0.36353577032649625
2025-03-22 15:19:06.573,0.6432732641022137
2025-03-22 15:19:06.573,0.952243076926319
2025-03-22 15:19:06.582,0.6942043435003842
2025-03-22 15:19:06.582,0.10021246254143323
2025-03-22 15:19:06.582,-0.6444535271750371
2025-03-22 15:19:06.582,-1.052536076147898
2025-03-22 15:19:06.583,-0.5949700257841394
2025-03-22 15:19:06.592,0.4801225720652715
2025-03-22 15:19:06.592,1.132789300215959
2025-03-22 15:19:06.592,0.7229192625787809
2025-03-22 15:19:06.592,-0.16801001775807028
2025-03-22 15:19:06.593,-0.5890188328768482
2025-03-22 15:19:06.602,-0.5301063864354653
2025-03-22 15:19:06.602,-0.6028168605052422
2025-03-22 15:19:06.602,-0.6075552555404087
2025-03-22 15:19:06.602,0.34674439743910934
2025-03-22 15:19:06.603,1.8717188015300055
2025-03-22 15:19:06.610,1.8564490518137644
2025-03-22 15:19:06.610,-0.6712624197734911
2025-03-22 15:19:06.611,-3.203110364067013
2025-03-22 15:19:06.611,-2.3017717757443643
2025-03-22 15:19:06.611,1.5559699808688858
2025-03-22 15:19:06.620,3.8552272527268627
2025-03-22 15:19:06.620,1.6677513045850092
2025-03-22 15:19:06.620,-2.386499993434841
2025-03-22 15:19:06.621,-3.430293772225034
2025-03-22 15:19:06.630,-0.5082803441897265
2025-03-22 15:19:06.630,2.5424560479231166
2025-03-22 15:19:06.631,2.2512414755608794
2025-03-22 15:19:06.631,-0.421074069410027
2025-03-22 15:19:06.631,-1.9740086111664676
2025-03-22 15:19:06.640,-0.9494580894427818
2025-03-22 15:19:06.640,0.7994995063951327
2025-03-22 15:19:06.641,1.0217054286408163
2025-03-22 15:19:06.641,-0.146166540759216
2025-03-22 15:19:06.641,-0.8156817060528109
2025-03-22 15:19:06.650,-0.03244856229675915
2025-03-22 15:19:06.650,1.0420426274858463
2025-03-22 15:19:06.650,0.7554457400532982
2025-03-22 15:19:06.650,-0.7833869212247851
2025-03-22 15:19:06.651,-1.7031068963636804
2025-03-22 15:19:06.660,-0.6901641547593078
2025-03-22 15:19:06.660,1.271729157796205
2025-03-22 15:19:06.660,1.9991697437201852
2025-03-22 15:19:06.661,0.6879809159165033
2025-03-22 15:19:06.661,-1.2433510695558039
2025-03-22 15:19:06.670,-1.9045475805639502
2025-03-22 15:19:06.670,-0.9062288554778267
2025-03-22 15:19:06.671,0.6320405492552484
2025-03-22 15:19:06.671,1.47850654904039
2025-03-22 15:19:06.671,1.2537740352025104
2025-03-22 15:19:06.680,0.3296818388414232
2025-03-22 15:19:06.680,-0.6963121900596283
2025-03-22 15:19:06.680,-1.3411696493144576
2025-03-22 15:19:06.681,-1.303786173415204
2025-03-22 15:19:06.681,-0.4737706602989487
2025-03-22 15:19:06.690,0.8929044544019621
2025-03-22 15:19:06.690,1.9907198752650785
2025-03-22 15:19:06.690,1.8065597500229678
2025-03-22 15:19:06.691,0.06371547830344088
2025-03-22 15:19:06.691,-2.1240105659878767
2025-03-22 15:19:06.700,-2.8820220768061207
2025-03-22 15:19:06.700,-1.253798572427075
2025-03-22 15:19:06.700,1.6362040985700161
2025-03-22 15:19:06.701,3.3329320293024542
2025-03-22 15:19:06.701,2.2688606722411864
2025-03-22 15:19:06.710,-0.6907652785164805
2025-03-22 15:19:06.710,-3.0076493490460074
2025-03-22 15:19:06.710,-2.805641397828666
2025-03-22 15:19:06.711,-0.45529429918819064
2025-03-22 15:19:06.711,2.0088976807779937
2025-03-22 15:19:06.720,2.7841225899259374
2025-03-22 15:19:06.720,1.5704289788803962
2025-03-22 15:19:06.720,-0.6220810503952784
2025-03-22 15:19:06.720,-2.3541763266978255
2025-03-22 15:19:06.721,-2.4649403807188577
2025-03-22 15:19:06.730,-0.6873993656123432
2025-03-22 15:19:06.730,1.8172843999703074
2025-03-22 15:19:06.730,2.926230410230752
2025-03-22 15:19:06.730,1.4223582543032551
2025-03-22 15:19:06.731,-1.4318104294540626
2025-03-22 15:19:06.740,-2.828819781839394
2025-03-22 15:19:06.740,-1.3640078320013975
2025-03-22 15:19:06.740,1.3066066401373735
2025-03-22 15:19:06.740,2.2714378364254664
2025-03-22 15:19:06.741,0.6731169801100789
2025-03-22 15:19:06.750,-1.3998110706917544
2025-03-22 15:19:06.750,-1.5007359043026387
2025-03-22 15:19:06.750,0.26723943468420913
2025-03-22 15:19:06.750,1.5382047805547223
2025-03-22 15:19:06.751,0.7230240828605004
2025-03-22 15:19:06.760,-1.0410133421755199
2025-03-22 15:19:06.760,-1.4615648951180886
2025-03-22 15:19:06.760,-0.07947219468211948
2025-03-22 15:19:06.760,1.2602567981433097
2025-03-22 15:19:06.760,0.9769304562106216
2025-03-22 15:19:06.768,-0.2396438734899281
2025-03-22 15:19:06.768,-0.6804571829844801
2025-03-22 15:19:06.769,-0.12695098869163435
2025-03-22 15:19:06.769,0.09808629982808101
2025-03-22 15:19:06.769,-0.5329966488333336
2025-03-22 15:19:06.778,-0.771608275867857
2025-03-22 15:19:06.778,0.36270118302159077
2025-03-22 15:19:06.779,1.6706703784756958
2025-03-22 15:19:06.779,1.2264044771307205
2025-03-22 15:19:06.788,-0.729683223917948
2025-03-22 15:19:06.788,-1.8700030344511758
2025-03-22 15:19:06.789,-0.9164455520790002
2025-03-22 15:19:06.789,0.6961427293781415
2025-03-22 15:19:06.789,0.9523434371725487
2025-03-22 15:19:06.798,-0.03418598429626768
2025-03-22 15:19:06.798,-0.49857252733687596
2025-03-22 15:19:06.799,0.3179415904891887
2025-03-22 15:19:06.799,1.1718939881893369
2025-03-22 15:19:06.799,0.6408340336858769
2025-03-22 15:19:06.808,-0.9275787663745911
2025-03-22 15:19:06.808,-1.871937654907674
2025-03-22 15:19:06.808,-1.2189996252178994
2025-03-22 15:19:06.809,0.4030135355284939
2025-03-22 15:19:06.809,1.6952756312529234
2025-03-22 15:19:06.818,1.8686743001184818
2025-03-22 15:19:06.818,0.8726798755404378
2025-03-22 15:19:06.818,-0.8094898443524257
2025-03-22 15:19:06.819,-2.1937148156040625
2025-03-22 15:19:06.819,-2.123453711565988
2025-03-22 15:19:06.828,-0.26324435859563194
2025-03-22 15:19:06.828,2.1186553548410836
2025-03-22 15:19:06.828,2.8567572685264357
2025-03-22 15:19:06.828,0.9783582237756823
2025-03-22 15:19:06.829,-1.88284660864374
2025-03-22 15:19:06.838,-2.823614917889988
2025-03-22 15:19:06.838,-0.8554828564105141
2025-03-22 15:19:06.838,1.7676577063345742
2025-03-22 15:19:06.838,2.070116034217017
2025-03-22 15:19:06.839,-0.11484971639545549
2025-03-22 15:19:06.848,-1.9692713064717067
2025-03-22 15:19:06.848,-1.138447602367825
2025-03-22 15:19:06.848,1.3829950112859069
2025-03-22 15:19:06.848,2.410072905801806
2025-03-22 15:19:06.848,0.4369465260182991
2025-03-22 15:19:06.858,-2.385414124817397
2025-03-22 15:19:06.858,-2.6698795349729885
2025-03-22 15:19:06.858,0.13507395286796173
2025-03-22 15:19:06.858,2.935345350600847
2025-03-22 15:19:06.859,2.511528389070499
2025-03-22 15:19:06.866,-0.7561072147090657
2025-03-22 15:19:06.867,-3.2392589476844895
2025-03-22 15:19:06.867,-2.0600680117012726
2025-03-22 15:19:06.867,1.6124781735539042
2025-03-22 15:19:06.867,3.597097984362785
2025-03-22 15:19:06.876,1.3078160024920724
2025-03-22 15:19:06.877,-2.916975664691526
2025-03-22 15:19:06.877,-4.01420591303875
2025-03-22 15:19:06.877,-0.16244959935910985
2025-03-22 15:19:06.886,4.4783337489099315
2025-03-22 15:19:06.886,4.275516707821242
2025-03-22 15:19:06.886,-1.029673824275105
2025-03-22 15:19:06.887,-5.624792704176466
2025-03-22 15:19:06.887,-4.2854422702247135
2025-03-22 15:19:06.896,1.5865170753974283
2025-03-22 15:19:06.896,5.716819176193289
2025-03-22 15:19:06.896,4.072313078981973
2025-03-22 15:19:06.897,-1.1448299905936026
2025-03-22 15:19:06.897,-4.6051024308351
2025-03-22 15:19:06.906,-3.599837653156909
2025-03-22 15:19:06.906,0.02889678245527058
2025-03-22 15:19:06.906,2.740001768632106
2025-03-22 15:19:06.906,2.783861589306373
2025-03-22 15:19:06.907,0.9583035412318723
2025-03-22 15:19:06.916,-0.9089570875069607
2025-03-22 15:19:06.916,-1.5939926011909278
2025-03-22 15:19:06.916,-1.0928555894603162
2025-03-22 15:19:06.916,-0.24714792307571526
2025-03-22 15:19:06.917,0.19130096942917
2025-03-22 15:19:06.926,0.25899052632878394
2025-03-22 15:19:06.926,0.47897478512041497
2025-03-22 15:19:06.926,0.9169509129058161
2025-03-22 15:19:06.926,0.9219667889964459
2025-03-22 15:19:06.927,0.035635031787887836
2025-03-22 15:19:06.936,-1.1460123616424713
2025-03-22 15:19:06.936,-1.4659831183835024
2025-03-22 15:19:06.936,-0.5887404214979335
2025-03-22 15:19:06.936,0.4962973209121663
2025-03-22 15:19:06.937,0.6745846987671738
2025-03-22 15:19:06.946,0.20017872282547072
2025-03-22 15:19:06.946,0.33776257911199714
2025-03-22 15:19:06.946,1.2972023517525786
2025-03-22 15:19:06.946,1.4013829135901177
2025-03-22 15:19:06.947,-0.6765873080313798
2025-03-22 15:19:06.956,-3.3199377624531308
2025-03-22 15:19:06.956,-3.2030194690108122
2025-03-22 15:19:06.956,0.41325128386663246
2025-03-22 15:19:06.956,4.035872072453264
2025-03-22 15:19:06.957,3.792579123488773
2025-03-22 15:19:06.964,0.11143013686946643
2025-03-22 15:19:06.964,-2.942558124194947
2025-03-22 15:19:06.965,-2.707957900736869
2025-03-22 15:19:06.965,-0.5836368647268362
2025-03-22 15:19:06.974,0.7089521233746925
2025-03-22 15:19:06.974,0.7280946253189792
2025-03-22 15:19:06.975,0.8676068886898325
2025-03-22 15:19:06.975,1.445950924429525
2025-03-22 15:19:06.975,1.1062077703776787
2025-03-22 15:19:06.975,-0.8150230935862433
2025-03-22 15:19:06.984,-2.7188207413124963
2025-03-22 15:19:06.985,-2.347908549168106
2025-03-22 15:19:06.985,0.4216338286452496
2025-03-22 15:19:06.985,3.040799259771691
2025-03-22 15:19:06.985,2.8283652694211323
2025-03-22 15:19:06.994,-0.057379483217700034
2025-03-22 15:19:06.994,-2.613830968689782
2025-03-22 15:19:06.995,-2.2717857511278767
2025-03-22 15:19:06.995,0.19197972707194222
2025-03-22 15:19:07.004,1.7012988496397285
2025-03-22 15:19:07.004,0.7137042476244999
2025-03-22 15:19:07.005,-0.9935614481209986
2025-03-22 15:19:07.005,-0.8249935304315953
2025-03-22 15:19:07.005,1.191516052076981
2025-03-22 15:19:07.014,2.3971515208580425
2025-03-22 15:19:07.014,0.7371476708498399
2025-03-22 15:19:07.014,-2.679875771161136
2025-03-22 15:19:07.014,-4.386331185706302
2025-03-22 15:19:07.015,-1.8937895693747377
2025-03-22 15:19:07.024,3.3911953640807924
2025-03-22 15:19:07.024,6.61133522026649
2025-03-22 15:19:07.024,3.8434934378478323
2025-03-22 15:19:07.025,-3.2382529068634285
2025-03-22 15:19:07.025,-7.972315655367755
2025-03-22 15:19:07.034,-5.32807713706564
2025-03-22 15:19:07.034,2.3142444805230036
2025-03-22 15:19:07.034,7.374733579288537
2025-03-22 15:19:07.035,5.25926848133389
2025-03-22 15:19:07.035,-1.0143691953753753
2025-03-22 15:19:07.044,-4.913544027712895
2025-03-22 15:19:07.044,-3.6472363236994974
2025-03-22 15:19:07.044,-0.014926831394079132
2025-03-22 15:19:07.045,1.9887009743792912
2025-03-22 15:19:07.045,1.4337133158656967
2025-03-22 15:19:07.054,0.15020774577599225
2025-03-22 15:19:07.054,-0.18717553959548444
2025-03-22 15:19:07.054,0.35834167665899014
2025-03-22 15:19:07.054,0.6816485945683558
2025-03-22 15:19:07.055,0.03790885202761089
2025-03-22 15:19:07.064,-1.1793149100943014
2025-03-22 15:19:07.064,-1.7163828212618901
2025-03-22 15:19:07.064,-0.7257043618547044
2025-03-22 15:19:07.065,1.0587295953152334
2025-03-22 15:19:07.065,1.882638034193796
2025-03-22 15:19:07.074,1.0224710993854618
2025-03-22 15:19:07.074,-0.3425246350051542
2025-03-22 15:19:07.074,-0.8064656949295872
2025-03-22 15:19:07.074,-0.5317078338465795
2025-03-22 15:19:07.075,-0.5147249385055864
2025-03-22 15:19:07.084,-0.7271145642973749
2025-03-22 15:19:07.084,-0.2442782067024569
2025-03-22 15:19:07.084,0.9607419146342685
2025-03-22 15:19:07.085,1.610878266505541
2025-03-22 15:19:07.085,0.8039073204018186
2025-03-22 15:19:07.094,-0.764818935628169
2025-03-22 15:19:07.094,-1.632178367022881
2025-03-22 15:19:07.094,-1.0807761006054744
2025-03-22 15:19:07.094,0.3795103652498621
2025-03-22 15:19:07.095,1.516724464456633
2025-03-22 15:19:07.102,1.2343862704854045
2025-03-22 15:19:07.102,-0.42147571906445574
2025-03-22 15:19:07.103,-1.8753393826115148
2025-03-22 15:19:07.103,-1.3734796630097872
2025-03-22 15:19:07.103,0.8472528190253286
2025-03-22 15:19:07.112,2.431868977132705
2025-03-22 15:19:07.112,1.5432645714637045
2025-03-22 15:19:07.113,-0.9304983092473693
2025-03-22 15:19:07.113,-2.4643542608907225
2025-03-22 15:19:07.122,-1.7595233755884545
2025-03-22 15:19:07.122,0.19182650578730942
2025-03-22 15:19:07.123,1.6253002675983022
2025-03-22 15:19:07.123,1.775129113132878
2025-03-22 15:19:07.123,1.0174926891658904
2025-03-22 15:19:07.123,-0.07522820750362878
2025-03-22 15:19:07.132,-1.2165283711073327
2025-03-22 15:19:07.133,-1.99631114553724
2025-03-22 15:19:07.133,-1.6341164743121523
2025-03-22 15:19:07.133,0.19562314466315175
2025-03-22 15:19:07.142,2.333149322706284
2025-03-22 15:19:07.142,2.7232975704140356
2025-03-22 15:19:07.143,0.6382325703159537
2025-03-22 15:19:07.143,-2.064532620516074
2025-03-22 15:19:07.143,-2.6888619150915685
2025-03-22 15:19:07.152,-0.737927210424381
2025-03-22 15:19:07.152,1.5011910454750954
2025-03-22 15:19:07.152,1.68674877798163
2025-03-22 15:19:07.153,0.09116718354566081
2025-03-22 15:19:07.153,-1.0439628594840347
2025-03-22 15:19:07.162,-0.4186861924722489
2025-03-22 15:19:07.162,0.8945442945366282
2025-03-22 15:19:07.162,1.0317800087146543
2025-03-22 15:19:07.163,-0.33139905080232235
2025-03-22 15:19:07.163,-1.6819350043545214
2025-03-22 15:19:07.172,-1.443688965862123
2025-03-22 15:19:07.172,0.3182774036236454
2025-03-22 15:19:07.172,1.9361166992111962
2025-03-22 15:19:07.173,1.7750719940023845
2025-03-22 15:19:07.173,-0.06553939756045718
2025-03-22 15:19:07.182,-1.7217150554126237
2025-03-22 15:19:07.182,-1.5031604041868278
2025-03-22 15:19:07.182,0.19320596439054444
2025-03-22 15:19:07.183,1.351239922020671
2025-03-22 15:19:07.183,0.7509856687766153
2025-03-22 15:19:07.192,-0.6715835276266898
2025-03-22 15:19:07.192,-1.151820363469776
2025-03-22 15:19:07.192,-0.23195344434981652
2025-03-22 15:19:07.193,0.9504361671405334
2025-03-22 15:19:07.193,1.193673091771131
2025-03-22 15:19:07.200,0.4358106311325325
2025-03-22 15:19:07.201,-0.5513167775568122
2025-03-22 15:19:07.201,-1.1106685916099268
2025-03-22 15:19:07.201,-1.0692577757159465
2025-03-22 15:19:07.201,-0.4880339402640538
2025-03-22 15:19:07.212,0.4801077354189148
2025-03-22 15:19:07.212,1.386296744056975
2025-03-22 15:19:07.212,1.5120524212024782
2025-03-22 15:19:07.213,0.5307311375195471
2025-03-22 15:19:07.213,-0.897234832818372
2025-03-22 15:19:07.220,-1.6233306619898586
2025-03-22 15:19:07.221,-1.2151007714349662
2025-03-22 15:19:07.221,-0.27012923759430546
2025-03-22 15:19:07.221,0.5392945749803771
2025-03-22 15:19:07.221,1.1219961904684939
2025-03-22 15:19:07.230,1.4007868518457152
2025-03-22 15:19:07.231,0.8701981516826226
2025-03-22 15:19:07.231,-0.5388961990157993
2025-03-22 15:19:07.231,-1.679776448137754
2025-03-22 15:19:07.231,-1.3003068002876954
2025-03-22 15:19:07.240,0.15964735638626537
2025-03-22 15:19:07.240,0.9190237932418356
2025-03-22 15:19:07.241,0.2647710292331521
2025-03-22 15:19:07.241,-0.4074415767523977
2025-03-22 15:19:07.250,0.3228000061707611
2025-03-22 15:19:07.250,1.5712985685392418
2025-03-22 15:19:07.251,1.1282399625994992
2025-03-22 15:19:07.251,-1.3197028033003517
2025-03-22 15:19:07.251,-3.1753712166566093
2025-03-22 15:19:07.260,-1.8579021680791319
2025-03-22 15:19:07.260,1.7923134592171244
2025-03-22 15:19:07.261,3.983297001935769
2025-03-22 15:19:07.261,2.1443657567320953
2025-03-22 15:19:07.261,-1.9345891602184926
2025-03-22 15:19:07.270,-3.900315681519925
2025-03-22 15:19:07.270,-1.7641605851493245
2025-03-22 15:19:07.271,1.8676585681423956
2025-03-22 15:19:07.271,3.0172947794123512
2025-03-22 15:19:07.271,0.9611051513492196
2025-03-22 15:19:07.280,-1.449117381042169
2025-03-22 15:19:07.280,-1.6907094686603898
2025-03-22 15:19:07.281,-0.32889242016486986
2025-03-22 15:19:07.281,0.558451190149356
2025-03-22 15:19:07.281,0.4116135895873452
2025-03-22 15:19:07.290,0.35069281459601664
2025-03-22 15:19:07.290,0.7899400735014489
2025-03-22 15:19:07.290,0.5455151520594849
2025-03-22 15:19:07.291,-1.0362501762860044
2025-03-22 15:19:07.291,-2.297699065024557
2025-03-22 15:19:07.300,-1.0813045390953648
2025-03-22 15:19:07.300,1.9338342027682822
2025-03-22 15:19:07.300,3.311149501796937
2025-03-22 15:19:07.301,1.0324160323019773
2025-03-22 15:19:07.301,-2.5297472902076605
2025-03-22 15:19:07.310,-3.2167117777482876
2025-03-22 15:19:07.310,-0.2864625318992582
2025-03-22 15:19:07.310,2.6020656347461544
2025-03-22 15:19:07.311,2.0329159260973904
2025-03-22 15:19:07.311,-0.945285168241871
2025-03-22 15:19:07.320,-2.380638030367446
2025-03-22 15:19:07.320,-0.4879070695115191
2025-03-22 15:19:07.320,2.2529489739004847
2025-03-22 15:19:07.321,2.2895843030811425
2025-03-22 15:19:07.321,-0.6746556477836435
2025-03-22 15:19:07.330,-3.3011349807871144
2025-03-22 15:19:07.330,-2.416982161532775
2025-03-22 15:19:07.330,1.339308629518153
2025-03-22 15:19:07.331,3.9952744534456452
2025-03-22 15:19:07.331,2.449179023350762
2025-03-22 15:19:07.340,-1.9359363074236189
2025-03-22 15:19:07.340,-4.429183092415107
2025-03-22 15:19:07.340,-2.060846912775996
2025-03-22 15:19:07.340,2.7419582239040294
2025-03-22 15:19:07.341,4.592826704328695
2025-03-22 15:19:07.350,1.314512145539108
2025-03-22 15:19:07.350,-3.4178907735144266
2025-03-22 15:19:07.350,-4.323424312033473
2025-03-22 15:19:07.351,-0.6064000112157779
2025-03-22 15:19:07.351,3.410449898578373
2025-03-22 15:19:07.358,3.5522821799177073
2025-03-22 15:19:07.358,0.28935993737277116
2025-03-22 15:19:07.359,-2.5808726053382345
2025-03-22 15:19:07.359,-2.5401173626426785
2025-03-22 15:19:07.368,-0.4465831740642609
2025-03-22 15:19:07.369,1.3522257365843902
2025-03-22 15:19:07.369,1.5977912899401712
2025-03-22 15:19:07.369,0.7091290204721903
2025-03-22 15:19:07.369,-0.20875556571464338
2025-03-22 15:19:07.369,-0.5207095671550148
2025-03-22 15:19:07.378,-0.524988293470257
2025-03-22 15:19:07.378,-0.7946756916716562
2025-03-22 15:19:07.379,-1.0172707085366353
2025-03-22 15:19:07.379,-0.14198146993958094
2025-03-22 15:19:07.388,1.757520481496341
2025-03-22 15:19:07.388,2.6087328693740472
2025-03-22 15:19:07.388,0.6911591920316659
2025-03-22 15:19:07.388,-2.447693093799319
2025-03-22 15:19:07.389,-3.2103114780436375
2025-03-22 15:19:07.398,-0.5614073655843099
2025-03-22 15:19:07.398,2.318166515598786
2025-03-22 15:19:07.398,2.1467585191429555
2025-03-22 15:19:07.399,-0.16991963140485214
2025-03-22 15:19:07.399,-1.1772618903475383
2025-03-22 15:19:07.408,0.09566348875965744
2025-03-22 15:19:07.408,1.0678456474327058
2025-03-22 15:19:07.408,-0.2476815636162894
2025-03-22 15:19:07.409,-2.2006207788714462
2025-03-22 15:19:07.409,-1.8541256343546537
2025-03-22 15:19:07.418,0.8796245006938591
2025-03-22 15:19:07.418,3.0535010410453536
2025-03-22 15:19:07.418,2.3524759785925142
2025-03-22 15:19:07.418,-0.3615996102624496
2025-03-22 15:19:07.419,-2.4196658089920913
2025-03-22 15:19:07.428,-2.3159887222433424
2025-03-22 15:19:07.428,-0.7359850544513844
2025-03-22 15:19:07.428,0.8239609701468039
2025-03-22 15:19:07.429,1.5938438177117185
2025-03-22 15:19:07.429,1.584211169030413
2025-03-22 15:19:07.436,0.8670304712587151
2025-03-22 15:19:07.437,-0.4388848862189511
2025-03-22 15:19:07.437,-1.614849300739674
2025-03-22 15:19:07.437,-1.649406392336872
2025-03-22 15:19:07.437,-0.49147485857466144
2025-03-22 15:19:07.448,0.6407592672675921
2025-03-22 15:19:07.448,0.7917504144811273
2025-03-22 15:19:07.448,0.5594226260535253
2025-03-22 15:19:07.449,0.9779725863342944
2025-03-22 15:19:07.449,1.4945637191094299
2025-03-22 15:19:07.458,0.40756519982026107
2025-03-22 15:19:07.458,-2.3352346411681926
2025-03-22 15:19:07.458,-4.040452568021882
2025-03-22 15:19:07.459,-2.093241241735414
2025-03-22 15:19:07.459,2.5231369713219123
2025-03-22 15:19:07.466,5.597639315105403
2025-03-22 15:19:07.467,3.909023224567647
2025-03-22 15:19:07.467,-1.3168958373741766
2025-03-22 15:19:07.467,-5.471524592517749
2025-03-22 15:19:07.467,-5.024876936233361
2025-03-22 15:19:07.476,-0.740905276634918
2025-03-22 15:19:07.477,3.511045389495843
2025-03-22 15:19:07.477,4.664896134951809
2025-03-22 15:19:07.477,2.7357180612429897
2025-03-22 15:19:07.477,-0.3192557600972204
2025-03-22 15:19:07.486,-2.7909171224023557
2025-03-22 15:19:07.487,-3.804688709663661
2025-03-22 15:19:07.487,-2.7895659913899062
2025-03-22 15:19:07.487,0.22580536873357004
2025-03-22 15:19:07.496,3.6400430413109053
2025-03-22 15:19:07.496,4.713976857170243
2025-03-22 15:19:07.497,2.001203949975284
2025-03-22 15:19:07.497,-2.6450906794287525
2025-03-22 15:19:07.497,-5.204085189754719
2025-03-22 15:19:07.506,-3.2330520582599993
2025-03-22 15:19:07.506,1.5008616389918452
2025-03-22 15:19:07.507,4.560899792426731
2025-03-22 15:19:07.507,3.274363096515701
2025-03-22 15:19:07.507,-0.648320009445913
2025-03-22 15:19:07.516,-3.209862064977014
2025-03-22 15:19:07.516,-2.4203306746801925
2025-03-22 15:19:07.517,0.13147116550384247
2025-03-22 15:19:07.517,1.6865090946698569
2025-03-22 15:19:07.517,1.2772275467794125
2025-03-22 15:19:07.526,0.0401173284999219
2025-03-22 15:19:07.526,-0.566185917567783
2025-03-22 15:19:07.527,-0.2068309152659577
2025-03-22 15:19:07.527,0.33611366436419376
2025-03-22 15:19:07.527,0.13696868230224152
2025-03-22 15:19:07.536,-0.8052081243396053
2025-03-22 15:19:07.536,-1.3197567197138458
2025-03-22 15:19:07.537,-0.251989582737427
2025-03-22 15:19:07.537,1.817854168929107
2025-03-22 15:19:07.537,2.5898834755172793
2025-03-22 15:19:07.546,0.5584461477987419
2025-03-22 15:19:07.546,-2.6849497237921445
2025-03-22 15:19:07.547,-3.6664861081263163
2025-03-22 15:19:07.547,-0.9273874204758321
2025-03-22 15:19:07.547,3.0061706301193474
2025-03-22 15:19:07.556,4.180205176612432
2025-03-22 15:19:07.556,1.4374332336804128
2025-03-22 15:19:07.556,-2.4617800062063218
2025-03-22 15:19:07.557,-3.8586687731458715
2025-03-22 15:19:07.557,-1.8597684780843489
2025-03-22 15:19:07.566,1.1821211922636041
2025-03-22 15:19:07.566,2.5092599477411057
2025-03-22 15:19:07.567,1.7265500828178342
2025-03-22 15:19:07.567,0.46351116322878577
2025-03-22 15:19:07.567,-0.20922969105977132
2025-03-22 15:19:07.576,-0.9348747461721807
2025-03-22 15:19:07.576,-2.2261312816132985
2025-03-22 15:19:07.576,-2.609955863859045
2025-03-22 15:19:07.577,-0.22050893445908856
2025-03-22 15:19:07.577,3.7749504695904323
2025-03-22 15:19:07.584,5.159375383346891
2025-03-22 15:19:07.585,1.3962017823179043
2025-03-22 15:19:07.585,-4.468737006552254
2025-03-22 15:19:07.585,-6.387108844462042
2025-03-22 15:19:07.585,-2.109772453988776
2025-03-22 15:19:07.594,3.925238166509798
2025-03-22 15:19:07.595,5.508957998226206
2025-03-22 15:19:07.595,1.7058741548416467
2025-03-22 15:19:07.595,-2.516861907554648
2025-03-22 15:19:07.595,-2.7069437470888564
2025-03-22 15:19:07.604,-0.09268970735506687
2025-03-22 15:19:07.605,0.9721082801962655
2025-03-22 15:19:07.605,-0.6861371504951796
2025-03-22 15:19:07.605,-1.8224838449033725
2025-03-22 15:19:07.614,0.061917727522779936
2025-03-22 15:19:07.615,2.871309463612488
2025-03-22 15:19:07.615,2.8374061321190864
2025-03-22 15:19:07.615,-0.2101517480951844
2025-03-22 15:19:07.615,-2.7118848423554573
2025-03-22 15:19:07.624,-2.229237137873484
2025-03-22 15:19:07.624,-0.2704258288633338
2025-03-22 15:19:07.625,0.47969430790218986
2025-03-22 15:19:07.625,0.02770467913844396
2025-03-22 15:19:07.625,0.4745970553181137
2025-03-22 15:19:07.634,2.2313407719876652
2025-03-22 15:19:07.634,2.8598829507797343
2025-03-22 15:19:07.634,0.3768491447648966
2025-03-22 15:19:07.635,-3.547565674096647
2025-03-22 15:19:07.635,-4.967865711354568
2025-03-22 15:19:07.644,-2.062713530243085
2025-03-22 15:19:07.644,2.730672488395804
2025-03-22 15:19:07.645,5.196117142762665
2025-03-22 15:19:07.645,3.452737876110625
2025-03-22 15:19:07.645,-0.6278890466436006
2025-03-22 15:19:07.654,-3.6170953572128943
2025-03-22 15:19:07.654,-3.595255790443166
2025-03-22 15:19:07.655,-1.2326526232732764
2025-03-22 15:19:07.655,1.3879326848796092
2025-03-22 15:19:07.655,2.5506116928472786
2025-03-22 15:19:07.664,1.8706865436866267
2025-03-22 15:19:07.664,0.19100576348828413
2025-03-22 15:19:07.664,-1.1865689954748075
2025-03-22 15:19:07.665,-1.4045385463939808
2025-03-22 15:19:07.665,-0.5678536734518054
2025-03-22 15:19:07.674,0.42905900086555687
2025-03-22 15:19:07.674,0.6586523217769038
2025-03-22 15:19:07.674,0.010960728962801772
2025-03-22 15:19:07.675,-0.608835063502474
2025-03-22 15:19:07.675,-0.22461162481198252
2025-03-22 15:19:07.684,0.8825950876872598
2025-03-22 15:19:07.684,1.2363889840756004
2025-03-22 15:19:07.684,0.027297714610688424
2025-03-22 15:19:07.685,-1.5200872022630032
2025-03-22 15:19:07.685,-1.4709864466766744
2025-03-22 15:19:07.694,0.24338561644345613
2025-03-22 15:19:07.694,1.5427864662246238
2025-03-22 15:19:07.694,0.8413121858227882
2025-03-22 15:19:07.695,-0.8229598542043852
2025-03-22 15:19:07.695,-1.0905216092606862
2025-03-22 15:19:07.704,0.5574875712882255
2025-03-22 15:19:07.704,1.8840642646690238
2025-03-22 15:19:07.704,0.64159838298373
2025-03-22 15:19:07.705,-2.2639067777222746
2025-03-22 15:19:07.705,-3.326486154230441
2025-03-22 15:19:07.714,-0.5430045302330744
2025-03-22 15:19:07.714,3.688903818181279
2025-03-22 15:19:07.714,4.703012422878878
2025-03-22 15:19:07.714,0.7700064445660129
2025-03-22 15:19:07.715,-4.469613081752351
2025-03-22 15:19:07.724,-5.4884314283147955
2025-03-22 15:19:07.724,-0.8992711560513413
2025-03-22 15:19:07.724,4.632218748002907
2025-03-22 15:19:07.724,5.247369973004031
2025-03-22 15:19:07.725,0.4578067701415266
2025-03-22 15:19:07.734,-4.277117642660548
2025-03-22 15:19:07.734,-3.9167656696524484
2025-03-22 15:19:07.734,0.4621053218008557
2025-03-22 15:19:07.735,3.4762524912966613
2025-03-22 15:19:07.735,2.0971554104933197
2025-03-22 15:19:07.742,-1.2621348908403847
2025-03-22 15:19:07.743,-2.4502494258150875
2025-03-22 15:19:07.743,-0.6579347044296686
2025-03-22 15:19:07.743,1.3914158070328306
2025-03-22 15:19:07.743,1.439090392485654
2025-03-22 15:19:07.752,0.15654051345823622
2025-03-22 15:19:07.753,-0.6258411629093696
2025-03-22 15:19:07.753,-0.5894225092202606
2025-03-22 15:19:07.753,-0.6289392884233858
2025-03-22 15:19:07.762,-0.7625374829043698
2025-03-22 15:19:07.762,-0.01930525152394276
2025-03-22 15:19:07.763,1.5170078044919344
2025-03-22 15:19:07.763,2.0602268139499236
2025-03-22 15:19:07.763,0.38060209222153246
2025-03-22 15:19:07.772,-2.0815530545842185
2025-03-22 15:19:07.772,-2.521795958647665
2025-03-22 15:19:07.772,-0.25473387022811544
2025-03-22 15:19:07.773,2.0944757498374744
2025-03-22 15:19:07.773,1.6706510055509345
2025-03-22 15:19:07.782,-0.8452478720345081
2025-03-22 15:19:07.782,-1.885489132389126
2025-03-22 15:19:07.782,0.27480398896736924
2025-03-22 15:19:07.783,2.863073744288537
2025-03-22 15:19:07.783,1.9763109346925365
2025-03-22 15:19:07.792,-2.131774819645701
2025-03-22 15:19:07.792,-4.852930508992009
2025-03-22 15:19:07.793,-2.6273519315433567
2025-03-22 15:19:07.793,2.703636981485398
2025-03-22 15:19:07.793,5.777881118564876
2025-03-22 15:19:07.802,3.449891632892642
2025-03-22 15:19:07.802,-2.0234927759251784
2025-03-22 15:19:07.802,-5.407677304670178
2025-03-22 15:19:07.803,-3.6959456797643946
2025-03-22 15:19:07.803,1.1080302436958047
2025-03-22 15:19:07.812,4.22163669122455
2025-03-22 15:19:07.812,2.9839293196054792
2025-03-22 15:19:07.812,-0.6814801459393862
2025-03-22 15:19:07.812,-2.777132236834768
2025-03-22 15:19:07.813,-1.6521718233563645
2025-03-22 15:19:07.820,0.7324959462228491
2025-03-22 15:19:07.821,1.6045656609845322
2025-03-22 15:19:07.821,0.4207874289807859
2025-03-22 15:19:07.821,-1.1089486136738753
2025-03-22 15:19:07.821,-1.218159198550149
2025-03-22 15:19:07.832,0.21316218920234903
2025-03-22 15:19:07.832,1.7392507911957422
2025-03-22 15:19:07.832,1.7109227010517898
2025-03-22 15:19:07.833,-0.17596234462884774
2025-03-22 15:19:07.833,-2.3471086164877675
2025-03-22 15:19:07.842,-2.602564618611559
2025-03-22 15:19:07.842,-0.33059070160083104
2025-03-22 15:19:07.842,2.56262878152321
2025-03-22 15:19:07.843,3.298078797001125
2025-03-22 15:19:07.843,0.9910016400901803
2025-03-22 15:19:07.850,-2.3072399822266036
2025-03-22 15:19:07.851,-3.502893194091243
2025-03-22 15:19:07.851,-1.5004411225019592
2025-03-22 15:19:07.851,1.7088537562336714
2025-03-22 15:19:07.851,3.115620564551425
2025-03-22 15:19:07.860,1.7250610572245422
2025-03-22 15:19:07.861,-0.7524940299122653
2025-03-22 15:19:07.861,-2.0820197327069314
2025-03-22 15:19:07.861,-1.7115796624440023
2025-03-22 15:19:07.870,-0.5631690375698442
2025-03-22 15:19:07.871,0.5639819111196201
2025-03-22 15:19:07.871,1.449501238670582
2025-03-22 15:19:07.871,1.6950959908962324
2025-03-22 15:19:07.871,0.8101177506271191
2025-03-22 15:19:07.880,-0.6962147936163856
2025-03-22 15:19:07.880,-1.4899625094564477
2025-03-22 15:19:07.881,-1.1885501105948724
2025-03-22 15:19:07.881,-0.7987092748132811
2025-03-22 15:19:07.881,-0.718577528537629
2025-03-22 15:19:07.890,0.25929151528058625
2025-03-22 15:19:07.890,2.604028800442532
2025-03-22 15:19:07.890,3.938967771844759
2025-03-22 15:19:07.890,1.4726586170130977
2025-03-22 15:19:07.891,-3.572641906973391
2025-03-22 15:19:07.900,-6.144760927133988
2025-03-22 15:19:07.900,-3.0359419467675206
2025-03-22 15:19:07.900,2.9412513451507185
2025-03-22 15:19:07.901,5.91554223925912
2025-03-22 15:19:07.901,3.5339919020057193
2025-03-22 15:19:07.910,-0.9894044287401116
2025-03-22 15:19:07.910,-3.3518856108156694
2025-03-22 15:19:07.910,-2.792376816417312
2025-03-22 15:19:07.911,-1.3079411483240007
2025-03-22 15:19:07.911,-0.013686697607764278
2025-03-22 15:19:07.920,1.5132796937083337
2025-03-22 15:19:07.920,2.8330946218317146
2025-03-22 15:19:07.920,2.192508568289786
2025-03-22 15:19:07.921,-0.6302191611981786
2025-03-22 15:19:07.921,-2.931940085587718
2025-03-22 15:19:07.930,-2.161691681607267
2025-03-22 15:19:07.930,0.5895978313197017
2025-03-22 15:19:07.930,1.901740778356113
2025-03-22 15:19:07.931,0.513002339114974
2025-03-22 15:19:07.931,-1.2100872763179373
2025-03-22 15:19:07.940,-0.6911142869133283
2025-03-22 15:19:07.940,1.3574723219388096
2025-03-22 15:19:07.940,1.9702562959749983
2025-03-22 15:19:07.941,-0.05798192246318516
2025-03-22 15:19:07.941,-2.468889187302444
2025-03-22 15:19:07.950,-2.3000877414438814
2025-03-22 15:19:07.950,0.4116434593480047
2025-03-22 15:19:07.950,2.6184064078867264
2025-03-22 15:19:07.950,1.8985997737340694
2025-03-22 15:19:07.951,-0.7569196104300384
2025-03-22 15:19:07.958,-2.237287224175357
2025-03-22 15:19:07.959,-0.9257682061411979
2025-03-22 15:19:07.959,1.5328417309087852
2025-03-22 15:19:07.959,2.0984377912356367
2025-03-22 15:19:07.959,-0.21841097156240769
2025-03-22 15:19:07.969,-2.949305298876659
2025-03-22 15:19:07.969,-2.608098063945047
2025-03-22 15:19:07.969,1.1743807491092446
2025-03-22 15:19:07.969,4.532033536087735
2025-03-22 15:19:07.969,3.3537054461238682
2025-03-22 15:19:07.978,-1.6906854471827923
2025-03-22 15:19:07.979,-5.339587763266973
2025-03-22 15:19:07.979,-3.579771220514909
2025-03-22 15:19:07.979,1.654866226689882
2025-03-22 15:19:07.988,4.753274987936162
2025-03-22 15:19:07.988,2.9359885335889917
2025-03-22 15:19:07.989,-1.0122987273040736
2025-03-22 15:19:07.989,-2.8058919721404783
2025-03-22 15:19:07.989,-1.7599621952816042
2025-03-22 15:19:07.998,-0.37345169466223027
2025-03-22 15:19:07.998,0.03701607793502248
2025-03-22 15:19:07.999,0.7392619082177886
2025-03-22 15:19:07.999,2.310437750701677
2025-03-22 15:19:07.999,2.59454666602796
2025-03-22 15:19:08.008,-0.1785136309915738
2025-03-22 15:19:08.008,-3.779074056615318
2025-03-22 15:19:08.009,-4.015934494176049
2025-03-22 15:19:08.009,-0.20010728556747082
2025-03-22 15:19:08.009,3.6442528322258427
2025-03-22 15:19:08.018,3.6742231820441886
2025-03-22 15:19:08.018,0.6303302481848294
2025-03-22 15:19:08.019,-1.8159969394227518
2025-03-22 15:19:08.019,-1.869243454502927
2025-03-22 15:19:08.019,-0.9690991308084838
2025-03-22 15:19:08.028,-0.7004887518212954
2025-03-22 15:19:08.028,-0.4473956016861931
2025-03-22 15:19:08.029,0.9353397874400667
2025-03-22 15:19:08.029,2.563745088598159
2025-03-22 15:19:08.029,2.297396872904259
2025-03-22 15:19:08.038,-0.26884610976062284
2025-03-22 15:19:08.038,-2.9466665590341012
2025-03-22 15:19:08.039,-3.292358619901116
2025-03-22 15:19:08.039,-1.0123379827734609
2025-03-22 15:19:08.039,2.034642125162449
2025-03-22 15:19:08.048,3.5144936396202326
2025-03-22 15:19:08.048,2.2738978332385904
2025-03-22 15:19:08.048,-0.7778825463079725
2025-03-22 15:19:08.049,-3.0800615071427293
2025-03-22 15:19:08.049,-2.5092214804521333
2025-03-22 15:19:08.058,0.28090433930464503
2025-03-22 15:19:08.058,2.17659574870371
2025-03-22 15:19:08.059,1.1101920236818907
2025-03-22 15:19:08.059,-1.1881357417918408
2025-03-22 15:19:08.059,-1.218645349926052
2025-03-22 15:19:08.068,1.472696701804594
2025-03-22 15:19:08.068,3.1640209472992233
2025-03-22 15:19:08.068,0.7166830415485954
2025-03-22 15:19:08.069,-3.777823605980348
2025-03-22 15:19:08.069,-5.0163151279497
2025-03-22 15:19:08.078,-0.9957922184215664
2025-03-22 15:19:08.078,4.337872598322112
2025-03-22 15:19:08.078,5.624272821481125
2025-03-22 15:19:08.079,1.9303902504286086
2025-03-22 15:19:08.079,-2.9112464437829315
2025-03-22 15:19:08.088,-4.791218776187725
2025-03-22 15:19:08.088,-2.8758537772943455
2025-03-22 15:19:08.088,0.7242326544381295
2025-03-22 15:19:08.089,3.240104921502436
2025-03-22 15:19:08.089,3.021330893705321
2025-03-22 15:19:08.096,0.4547036957223118
2025-03-22 15:19:08.097,-2.06498790907983
2025-03-22 15:19:08.097,-2.0020266069727777
2025-03-22 15:19:08.097,0.4504620435337094
2025-03-22 15:19:08.097,2.020747501315301
2025-03-22 15:19:08.106,0.18834299340756555
2025-03-22 15:19:08.107,-3.0277442406148043
2025-03-22 15:19:08.107,-2.961344782994752
2025-03-22 15:19:08.107,1.5258492477403252
2025-03-22 15:19:08.116,5.640719337941088
2025-03-22 15:19:08.117,4.068046015530966
2025-03-22 15:19:08.117,-2.204889831170786
2025-03-22 15:19:08.117,-6.593279864788404
2025-03-22 15:19:08.117,-4.563697517081884
2025-03-22 15:19:08.126,1.357074312244734
2025-03-22 15:19:08.127,5.133139995711703
2025-03-22 15:19:08.127,4.138048581580358
2025-03-22 15:19:08.127,0.7718311049287286
2025-03-22 15:19:08.127,-1.828765362476876
2025-03-22 15:19:08.136,-3.048636915338517
2025-03-22 15:19:08.136,-3.268449502492976
2025-03-22 15:19:08.137,-1.7086648370435933
2025-03-22 15:19:08.137,1.957699501936821
2025-03-22 15:19:08.137,5.04825645795436
2025-03-22 15:19:08.146,3.814026833432866
2025-03-22 15:19:08.146,-1.4685416431793878
2025-03-22 15:19:08.147,-5.521870104516312
2025-03-22 15:19:08.147,-3.804474526456127
2025-03-22 15:19:08.147,1.7960484495660782
2025-03-22 15:19:08.156,4.877617302951949
2025-03-22 15:19:08.156,2.1385867892084724
2025-03-22 15:19:08.157,-2.7032225627809945
2025-03-22 15:19:08.157,-3.660454603856312
2025-03-22 15:19:08.157,0.08629450837766994
2025-03-22 15:19:08.166,3.485235740511787
2025-03-22 15:19:08.166,2.3103090120701686
2025-03-22 15:19:08.166,-1.644670349790908
2025-03-22 15:19:08.167,-3.386131789754361
2025-03-22 15:19:08.167,-1.2010685771783405
2025-03-22 15:19:08.176,1.8213796647177092
2025-03-22 15:19:08.176,2.3288315738559175
2025-03-22 15:19:08.176,0.5629127530745035
2025-03-22 15:19:08.177,-0.9499562166506196
2025-03-22 15:19:08.177,-0.9220154537852375
2025-03-22 15:19:08.184,-0.23524910766492152
2025-03-22 15:19:08.185,-0.04279807246181968
2025-03-22 15:19:08.185,-0.23742521429781901
2025-03-22 15:19:08.185,-0.028592575304096035
2025-03-22 15:19:08.185,0.647041468607254
2025-03-22 15:19:08.194,0.8869337926690523
2025-03-22 15:19:08.195,0.07811411420255474
2025-03-22 15:19:08.195,-0.9842733680706252
2025-03-22 15:19:08.195,-0.8401461430966916
2025-03-22 15:19:08.204,0.5791838596953569
2025-03-22 15:19:08.204,1.3529656450501861
2025-03-22 15:19:08.205,-0.0754639771745985
2025-03-22 15:19:08.205,-2.2605227302465245
2025-03-22 15:19:08.205,-1.9216470841330702
2025-03-22 15:19:08.214,1.6080667902933794
2025-03-22 15:19:08.214,4.464585788564394
2025-03-22 15:19:08.215,2.5001493565196813
2025-03-22 15:19:08.215,-2.9775438458623404
2025-03-22 15:19:08.215,-5.871247821135241
2025-03-22 15:19:08.224,-2.521547252333819
2025-03-22 15:19:08.224,3.4961892445491536
2025-03-22 15:19:08.225,5.507236489646329
2025-03-22 15:19:08.225,1.7096743474575797
2025-03-22 15:19:08.225,-3.102260042508286
2025-03-22 15:19:08.234,-3.762095321832381
2025-03-22 15:19:08.234,-0.5624967707440052
2025-03-22 15:19:08.235,2.154362042468195
2025-03-22 15:19:08.235,1.7371929200608722
2025-03-22 15:19:08.235,-0.2473653416693915
2025-03-22 15:19:08.244,-0.9642500902175257
2025-03-22 15:19:08.244,-0.045727463999709284
2025-03-22 15:19:08.244,0.5689183288482565
2025-03-22 15:19:08.245,-0.25044425692389255
2025-03-22 15:19:08.245,-1.2322415572548722
2025-03-22 15:19:08.254,-0.6193494317754098
2025-03-22 15:19:08.254,1.1943464633624292
2025-03-22 15:19:08.254,1.9712442131418553
2025-03-22 15:19:08.255,0.5397321841771568
2025-03-22 15:19:08.255,-1.5705794440126901
2025-03-22 15:19:08.264,-1.9681833724662148
2025-03-22 15:19:08.264,-0.316006866472202
2025-03-22 15:19:08.265,1.3784176936343369
2025-03-22 15:19:08.265,1.2904216177889694
2025-03-22 15:19:08.265,-0.13618459539199185
2025-03-22 15:19:08.274,-0.9746185894761203
2025-03-22 15:19:08.274,-0.2933489512106053
2025-03-22 15:19:08.275,0.7846123543226124
2025-03-22 15:19:08.275,0.6882236051106162
2025-03-22 15:19:08.275,-0.4892570264927367
2025-03-22 15:19:08.284,-1.1939396027912372
2025-03-22 15:19:08.284,-0.5764488673671521
2025-03-22 15:19:08.285,0.4683922599587641
2025-03-22 15:19:08.285,0.7532343794101259
2025-03-22 15:19:08.285,0.4450241184453928
2025-03-22 15:19:08.294,0.47365836690188884
2025-03-22 15:19:08.294,0.7493915444011436
2025-03-22 15:19:08.294,0.09273491913581651
2025-03-22 15:19:08.295,-1.7295516155173636
2025-03-22 15:19:08.295,-2.8320354374139263
2025-03-22 15:19:08.304,-1.1755974252425143
2025-03-22 15:19:08.304,2.4037573879046024
2025-03-22 15:19:08.305,4.350333921333954
2025-03-22 15:19:08.305,2.293308427782244
2025-03-22 15:19:08.305,-1.926370286324085
2025-03-22 15:19:08.314,-4.1509713059243145
2025-03-22 15:19:08.314,-2.575167417186208
2025-03-22 15:19:08.315,0.5760714784707892
2025-03-22 15:19:08.315,2.148378521637227
2025-03-22 15:19:08.315,1.5875813319827041
2025-03-22 15:19:08.323,0.6060696653814689
2025-03-22 15:19:08.323,0.32759988778389965
2025-03-22 15:19:08.323,0.16186199643600813
2025-03-22 15:19:08.323,-0.6415787129963842
2025-03-22 15:19:08.323,-1.6035531770507683
2025-03-22 15:19:08.334,-1.6623027926337501
2025-03-22 15:19:08.334,-0.5416859506973907
2025-03-22 15:19:08.334,1.0227564972397278
2025-03-22 15:19:08.335,2.0921472750691814
2025-03-22 15:19:08.335,2.109661753179849
2025-03-22 15:19:08.343,0.8821103240598425
2025-03-22 15:19:08.343,-1.302464984246909
2025-03-22 15:19:08.343,-3.1957105903483214
2025-03-22 15:19:08.343,-2.940186927635348
2025-03-22 15:19:08.343,0.022336320338496224
2025-03-22 15:19:08.353,3.4555385549170072
2025-03-22 15:19:08.353,3.982454852984976
2025-03-22 15:19:08.353,0.8467496010125884
2025-03-22 15:19:08.353,-2.861513456952079
2025-03-22 15:19:08.353,-3.556044506189734
2025-03-22 15:19:08.364,-1.0941132544522048
2025-03-22 15:19:08.364,1.5608694514700654
2025-03-22 15:19:08.365,2.1013950444075347
2025-03-22 15:19:08.365,1.0163442292726688
2025-03-22 15:19:08.365,-0.0257532004236578
2025-03-22 15:19:08.372,-0.49000879300833183
2025-03-22 15:19:08.373,-0.8293394898165618
2025-03-22 15:19:08.373,-0.984368590138936
2025-03-22 15:19:08.373,-0.4134418583360465
2025-03-22 15:19:08.373,0.5403170365092343
2025-03-22 15:19:08.382,0.7275955042394411
2025-03-22 15:19:08.383,0.06881353143367946
2025-03-22 15:19:08.383,-0.00950089509696004
2025-03-22 15:19:08.383,1.0214641120236778
2025-03-22 15:19:08.383,1.282348353622683
2025-03-22 15:19:08.392,-0.855829577074601
2025-03-22 15:19:08.393,-3.433758640984848
2025-03-22 15:19:08.393,-2.6755264512020576
2025-03-22 15:19:08.393,1.6479056462585984
2025-03-22 15:19:08.402,4.984584515012572
2025-03-22 15:19:08.403,3.3545878155149866
2025-03-22 15:19:08.403,-1.6639584031227799
2025-03-22 15:19:08.403,-4.823173111086854
2025-03-22 15:19:08.403,-3.214687185801773
2025-03-22 15:19:08.412,0.9968203079322632
2025-03-22 15:19:08.412,3.481097345976186
2025-03-22 15:19:08.413,2.2600092750319263
2025-03-22 15:19:08.413,-0.7450427365991932
2025-03-22 15:19:08.413,-2.110088426103428
2025-03-22 15:19:08.422,-0.6377627957495219
2025-03-22 15:19:08.422,1.5019335931356197
2025-03-22 15:19:08.422,1.5656703471973383
2025-03-22 15:19:08.423,-0.4705670457652439
2025-03-22 15:19:08.423,-2.2868534430456835
2025-03-22 15:19:08.432,-2.2431798109182832
2025-03-22 15:19:08.433,-0.6200721772255396
2025-03-22 15:19:08.433,1.6881809836542174
2025-03-22 15:19:08.433,3.765835007337388
2025-03-22 15:19:08.433,3.9017911548127056
2025-03-22 15:19:08.442,0.557554498125386
2025-03-22 15:19:08.442,-4.72392543675144
2025-03-22 15:19:08.443,-7.160683176966782
2025-03-22 15:19:08.443,-3.454675357869153
2025-03-22 15:19:08.443,3.813737808662441
2025-03-22 15:19:08.452,8.129046633174731
2025-03-22 15:19:08.452,5.606636433162016
2025-03-22 15:19:08.453,-1.261687847263996
2025-03-22 15:19:08.453,-6.4604156927059595
2025-03-22 15:19:08.453,-6.147301828046613
2025-03-22 15:19:08.462,-1.4011589803204156
2025-03-22 15:19:08.462,3.5593760375668184
2025-03-22 15:19:08.462,5.101081754898733
2025-03-22 15:19:08.463,2.7376230802782064
2025-03-22 15:19:08.463,-1.0130166957019342
2025-03-22 15:19:08.472,-3.087044684169361
2025-03-22 15:19:08.473,-2.4498384424087685
2025-03-22 15:19:08.473,-0.4338257617248994
2025-03-22 15:19:08.473,1.0883483209261668
2025-03-22 15:19:08.473,1.3447642164560416
2025-03-22 15:19:08.482,0.6745108252531192
2025-03-22 15:19:08.482,-0.17680554009140803
2025-03-22 15:19:08.482,-0.4455357527279417
2025-03-22 15:19:08.483,0.1513701602001158
2025-03-22 15:19:08.483,0.7752187870782572
2025-03-22 15:19:08.492,0.11817379403021652
2025-03-22 15:19:08.492,-1.5883151858525781
2025-03-22 15:19:08.492,-2.1323472210341836
2025-03-22 15:19:08.493,-0.0898643753407336
2025-03-22 15:19:08.493,2.673107933975239
2025-03-22 15:19:08.500,2.9054030601189145
2025-03-22 15:19:08.501,0.19817387125739172
2025-03-22 15:19:08.501,-2.417795317173943
2025-03-22 15:19:08.501,-2.407563792269371
2025-03-22 15:19:08.512,-0.5912438061031334
2025-03-22 15:19:08.512,0.7296858203896774
2025-03-22 15:19:08.512,0.9825775409471433
2025-03-22 15:19:08.513,1.1953040475240684
2025-03-22 15:19:08.513,1.5302580339435066
2025-03-22 15:19:08.513,0.7873867034537292
2025-03-22 15:19:08.520,-1.4201217931211372
2025-03-22 15:19:08.521,-3.326757403452318
2025-03-22 15:19:08.521,-2.678755688472192
2025-03-22 15:19:08.521,0.6182508888974887
2025-03-22 15:19:08.521,3.997082702444872
2025-03-22 15:19:08.530,4.4094237484068275
2025-03-22 15:19:08.531,1.109799351699253
2025-03-22 15:19:08.531,-3.4078115963034756
2025-03-22 15:19:08.531,-5.304728931502496
2025-03-22 15:19:08.540,-2.8010969748299996
2025-03-22 15:19:08.541,1.9830159093107722
2025-03-22 15:19:08.541,4.876159239824595
2025-03-22 15:19:08.541,3.5927034514579526
2025-03-22 15:19:08.541,-0.33422143476940924
2025-03-22 15:19:08.550,-3.437962315469306
2025-03-22 15:19:08.551,-3.5418565877015604
2025-03-22 15:19:08.551,-1.0848600751179738
2025-03-22 15:19:08.551,1.8273214283459789
2025-03-22 15:19:08.551,3.1009975348668903
2025-03-22 15:19:08.560,1.977137778157167
2025-03-22 15:19:08.560,-0.5308924891987972
2025-03-22 15:19:08.561,-2.455209761457837
2025-03-22 15:19:08.561,-2.4008904775783084
2025-03-22 15:19:08.561,-0.49089327977487657
2025-03-22 15:19:08.570,1.8243000531457274
2025-03-22 15:19:08.570,2.702943280095273
2025-03-22 15:19:08.571,1.229717689431346
2025-03-22 15:19:08.571,-1.5043089241754464
2025-03-22 15:19:08.571,-2.9301201541761555
2025-03-22 15:19:08.580,-1.4735903222604412
2025-03-22 15:19:08.580,1.4533525884923912
2025-03-22 15:19:08.581,2.7291942785136736
2025-03-22 15:19:08.581,1.0564304183875857
2025-03-22 15:19:08.581,-1.4894577480460838
2025-03-22 15:19:08.590,-1.9508340649045368
2025-03-22 15:19:08.590,-0.009339840175049102
2025-03-22 15:19:08.591,1.7430283814966399
2025-03-22 15:19:08.591,1.0136454367947643
2025-03-22 15:19:08.591,-1.384003443895594
2025-03-22 15:19:08.600,-2.4209027912661427
2025-03-22 15:19:08.601,-0.46474959428606466
2025-03-22 15:19:08.601,2.5549840615121915
2025-03-22 15:19:08.601,3.1740443314533167
2025-03-22 15:19:08.601,0.46810247025731433
2025-03-22 15:19:08.610,-2.7559719218395218
2025-03-22 15:19:08.610,-3.235332305280757
2025-03-22 15:19:08.611,-0.8808122879663329
2025-03-22 15:19:08.611,1.661223669464743
2025-03-22 15:19:08.611,2.349056792425184
2025-03-22 15:19:08.619,1.4090222738420874
2025-03-22 15:19:08.619,0.013803902249514645
2025-03-22 15:19:08.619,-1.141659980116605
2025-03-22 15:19:08.619,-1.6187864717857963
2025-03-22 15:19:08.619,-0.9767496699046051
2025-03-22 15:19:08.630,0.424427738290559
2025-03-22 15:19:08.630,1.234861669494449
2025-03-22 15:19:08.630,0.6305031892268089
2025-03-22 15:19:08.631,-0.4756677441709893
2025-03-22 15:19:08.631,-0.545605764003515
2025-03-22 15:19:08.639,0.5104651716160253
2025-03-22 15:19:08.639,1.129869424798061
2025-03-22 15:19:08.639,0.0981667035845821
2025-03-22 15:19:08.639,-1.7131946630858366
2025-03-22 15:19:08.639,-2.072136434835765
2025-03-22 15:19:08.650,-0.0042514563514085835
2025-03-22 15:19:08.650,2.637762676967065
2025-03-22 15:19:08.651,2.876915296503905
2025-03-22 15:19:08.651,0.0718303742127383
2025-03-22 15:19:08.651,-3.00765177507081
2025-03-22 15:19:08.660,-3.1633006251222215
2025-03-22 15:19:08.660,-0.36311230574323194
2025-03-22 15:19:08.660,2.44299920849124
2025-03-22 15:19:08.661,2.818375879656283
2025-03-22 15:19:08.661,1.0968099064766719
2025-03-22 15:19:08.668,-0.9040799034508972
2025-03-22 15:19:08.669,-2.0864588252824388
2025-03-22 15:19:08.669,-2.2043623555924534
2025-03-22 15:19:08.669,-0.960400738038189
2025-03-22 15:19:08.678,1.4499571376408518
2025-03-22 15:19:08.679,3.2315589041741264
2025-03-22 15:19:08.679,2.207501377170898
2025-03-22 15:19:08.679,-1.2340010120379292
2025-03-22 15:19:08.679,-3.693084820312027
2025-03-22 15:19:08.688,-2.3806912901447688
2025-03-22 15:19:08.689,1.3946731916950632
2025-03-22 15:19:08.689,3.5108506570721962
2025-03-22 15:19:08.689,1.7583514266794502
2025-03-22 15:19:08.689,-1.7104141063133387
2025-03-22 15:19:08.698,-3.0271394598349683
2025-03-22 15:19:08.699,-0.97737587974261
2025-03-22 15:19:08.699,1.9592288375031537
2025-03-22 15:19:08.699,2.633202177451674
2025-03-22 15:19:08.699,0.5361233842725543
2025-03-22 15:19:08.708,-2.019721759762704
2025-03-22 15:19:08.709,-2.4732981919080554
2025-03-22 15:19:08.709,-0.47624631958541985
2025-03-22 15:19:08.709,1.9235985894557788
2025-03-22 15:19:08.709,2.349224222528651
2025-03-22 15:19:08.718,0.48719009534118607
2025-03-22 15:19:08.718,-1.6214408350912781
2025-03-22 15:19:08.719,-1.8806510484248882
2025-03-22 15:19:08.719,-0.41648638848201647
2025-03-22 15:19:08.719,0.9465245572926689
2025-03-22 15:19:08.728,1.0685529515921346
2025-03-22 15:19:08.728,0.4280119035343393
2025-03-22 15:19:08.729,-0.13268465476923894
2025-03-22 15:19:08.729,-0.4351717525848895
2025-03-22 15:19:08.729,-0.5381070253341627
2025-03-22 15:19:08.738,-0.29910236077397095
2025-03-22 15:19:08.738,0.2174954472715221
2025-03-22 15:19:08.739,0.5708801532079537
2025-03-22 15:19:08.739,0.47521350644818067
2025-03-22 15:19:08.739,0.025684258819973806
2025-03-22 15:19:08.748,-0.5987497447383888
2025-03-22 15:19:08.749,-1.0727254384734002
2025-03-22 15:19:08.749,-0.7271981517886656
2025-03-22 15:19:08.749,0.7030722561977603
2025-03-22 15:19:08.749,2.0976483707492055
2025-03-22 15:19:08.757,1.7329337490466892
2025-03-22 15:19:08.757,-0.5249569618409486
2025-03-22 15:19:08.757,-2.6104380446103264
2025-03-22 15:19:08.757,-2.453198192774797
2025-03-22 15:19:08.757,-0.2699882225708178
2025-03-22 15:19:08.768,1.882376034203935
2025-03-22 15:19:08.768,2.3898878807912927
2025-03-22 15:19:08.768,1.313773841046718
2025-03-22 15:19:08.769,-0.2940488177463229
2025-03-22 15:19:08.769,-1.5063984536921962
2025-03-22 15:19:08.776,-1.857500485027881
2025-03-22 15:19:08.777,-1.1934556827895546
2025-03-22 15:19:08.777,0.25158277889004643
2025-03-22 15:19:08.777,1.6336266978700609
2025-03-22 15:19:08.777,1.861330189816418
2025-03-22 15:19:08.786,0.6573207027561365
2025-03-22 15:19:08.787,-0.8888945022381108
2025-03-22 15:19:08.787,-1.3717237959632087
2025-03-22 15:19:08.787,-0.7000996915482683
2025-03-22 15:19:08.797,-0.07515304513203637
2025-03-22 15:19:08.797,-0.16658798601685895
2025-03-22 15:19:08.797,-0.10410426136939174
2025-03-22 15:19:08.797,1.0071441062733455
2025-03-22 15:19:08.797,2.1397707108655837
2025-03-22 15:19:08.797,1.2224334640958654
2025-03-22 15:19:08.807,-1.7358492180300975
2025-03-22 15:19:08.807,-3.6761228456798474
2025-03-22 15:19:08.807,-1.8831774681835098
2025-03-22 15:19:08.807,2.1802141650240054
2025-03-22 15:19:08.816,4.033548651684709
2025-03-22 15:19:08.816,1.5394206814967013
2025-03-22 15:19:08.817,-2.308411516366757
2025-03-22 15:19:08.817,-3.028763619739441
2025-03-22 15:19:08.817,-0.18450673190126007
2025-03-22 15:19:08.826,2.2858175223375334
2025-03-22 15:19:08.827,1.2273754177167902
2025-03-22 15:19:08.827,-1.7741799510775627
2025-03-22 15:19:08.827,-2.5228272987732843
2025-03-22 15:19:08.827,0.4191865434203457
2025-03-22 15:19:08.836,3.7538249768849026
2025-03-22 15:19:08.837,3.2328503613272668
2025-03-22 15:19:08.837,-1.2121346772363553
2025-03-22 15:19:08.837,-5.016039040680921
2025-03-22 15:19:08.837,-3.9541311726007358
2025-03-22 15:19:08.846,1.0453017510982952
2025-03-22 15:19:08.847,4.8803909096182165
2025-03-22 15:19:08.847,3.9271162214725077
2025-03-22 15:19:08.847,-0.28951713413744834
2025-03-22 15:19:08.847,-3.3750065449439326
2025-03-22 15:19:08.856,-2.959034192875327
2025-03-22 15:19:08.857,-0.44076158171689056
2025-03-22 15:19:08.857,1.439158124042836
2025-03-22 15:19:08.857,1.4975838153319598
2025-03-22 15:19:08.857,0.5402549086861235
2025-03-22 15:19:08.866,-0.12738827985554277
2025-03-22 15:19:08.866,-0.09181811012376076
2025-03-22 15:19:08.867,0.05416282591631616
2025-03-22 15:19:08.867,-0.2717575643680368
2025-03-22 15:19:08.867,-0.7389795067698901
2025-03-22 15:19:08.876,-0.5650546908218219
2025-03-22 15:19:08.876,0.21057128955151838
2025-03-22 15:19:08.877,0.6184522649137187
2025-03-22 15:19:08.877,0.19128292442443606
2025-03-22 15:19:08.877,-0.2498385684804837
2025-03-22 15:19:08.886,0.14941795424224266
2025-03-22 15:19:08.886,0.8342838160271286
2025-03-22 15:19:08.886,0.5553929431010921
2025-03-22 15:19:08.887,-0.7010857964583621
2025-03-22 15:19:08.887,-1.485148103808209
2025-03-22 15:19:08.896,-0.7985309163467713
2025-03-22 15:19:08.896,0.575729331752117
2025-03-22 15:19:08.896,1.1568292919589744
2025-03-22 15:19:08.897,0.6104497623636668
2025-03-22 15:19:08.897,-0.1364448725856679
2025-03-22 15:19:08.905,-0.29991384662749304
2025-03-22 15:19:08.905,-0.045843157656684314
2025-03-22 15:19:08.905,0.05575383833337837
2025-03-22 15:19:08.907,-0.22067038786587997
2025-03-22 15:19:08.907,-0.6396931656152895
2025-03-22 15:19:08.916,-0.7057960354821782
2025-03-22 15:19:08.916,0.016543752436611672
2025-03-22 15:19:08.916,1.2900931798970114
2025-03-22 15:19:08.917,1.9114563085216814
2025-03-22 15:19:08.917,0.7325904171838564
2025-03-22 15:19:08.925,-1.6778367444782594
2025-03-22 15:19:08.925,-3.013101852768094
2025-03-22 15:19:08.925,-1.5885365020611713
2025-03-22 15:19:08.925,1.4761367733667556
2025-03-22 15:19:08.925,3.200888590494561
2025-03-22 15:19:08.934,2.0297055867501608
2025-03-22 15:19:08.935,-0.5224800128544808
2025-03-22 15:19:08.935,-1.9327898862025938
2025-03-22 15:19:08.935,-1.6609409595591098
2025-03-22 15:19:08.944,-1.0786033115298377
2025-03-22 15:19:08.945,-0.7738152570458292
2025-03-22 15:19:08.945,0.4197107523585878
2025-03-22 15:19:08.945,2.8943302255351546
2025-03-22 15:19:08.945,4.173148654566209
2025-03-22 15:19:08.954,1.375069893910955
2025-03-22 15:19:08.954,-4.180973666002904
2025-03-22 15:19:08.955,-6.904429690309263
2025-03-22 15:19:08.955,-3.001366433382974
2025-03-22 15:19:08.955,4.306415459725993
2025-03-22 15:19:08.964,7.611356757522644
2025-03-22 15:19:08.965,3.6090570616362925
2025-03-22 15:19:08.965,-3.164984144771872
2025-03-22 15:19:08.965,-5.820548126117282
2025-03-22 15:19:08.965,-2.863653979272251
2025-03-22 15:19:08.974,1.2374179962368759
2025-03-22 15:19:08.975,2.359184292233539
2025-03-22 15:19:08.975,1.1335769422183732
2025-03-22 15:19:08.975,0.5124098156109133
2025-03-22 15:19:08.975,1.1149841759679504
2025-03-22 15:19:08.984,0.9245232253974293
2025-03-22 15:19:08.985,-1.0929600993673907
2025-03-22 15:19:08.985,-3.0745349420299015
2025-03-22 15:19:08.985,-2.5843495205069305
2025-03-22 15:19:08.985,0.2489943742793942
2025-03-22 15:19:08.994,2.873299379645115
2025-03-22 15:19:08.994,3.1817919631462934
2025-03-22 15:19:08.995,1.3529153472409057
2025-03-22 15:19:08.995,-1.0332474098972035
2025-03-22 15:19:08.995,-2.6342206935656365
2025-03-22 15:19:09.004,-2.7307651929853924
2025-03-22 15:19:09.005,-1.0668485443452003
2025-03-22 15:19:09.005,1.6049579939917598
2025-03-22 15:19:09.005,3.2817677369782046
2025-03-22 15:19:09.005,2.267056321316929
2025-03-22 15:19:09.014,-0.7834653739288017
2025-03-22 15:19:09.015,-3.130438160257635
2025-03-22 15:19:09.015,-2.620541769669984
2025-03-22 15:19:09.015,0.22581776145116686
2025-03-22 15:19:09.015,2.8327308992143774
2025-03-22 15:19:09.024,2.9331660817053864
2025-03-22 15:19:09.024,0.4261134960391061
2025-03-22 15:19:09.025,-2.5726701864569907
2025-03-22 15:19:09.025,-3.4331023805666097
2025-03-22 15:19:09.025,-1.2883835931029353
2025-03-22 15:19:09.034,2.029340869056608
2025-03-22 15:19:09.034,3.5487863689073134
2025-03-22 15:19:09.034,1.9812129606760636
2025-03-22 15:19:09.035,-1.0519321987697092
2025-03-22 15:19:09.035,-2.7794423665770918
2025-03-22 15:19:09.044,-2.084382208896636
2025-03-22 15:19:09.045,-0.19046573647894233
2025-03-22 15:19:09.045,1.2129126058743303
2025-03-22 15:19:09.045,1.6592175967571343
2025-03-22 15:19:09.045,1.4473614274671303
2025-03-22 15:19:09.053,0.5357911658306675
2025-03-22 15:19:09.053,-1.0574117463159374
2025-03-22 15:19:09.053,-2.2522376985209345
2025-03-22 15:19:09.053,-1.6495574230244219
2025-03-22 15:19:09.053,0.505273142068804
2025-03-22 15:19:09.062,2.1441920814020796
2025-03-22 15:19:09.063,1.689089658988088
2025-03-22 15:19:09.063,-0.1437280338764581
2025-03-22 15:19:09.063,-1.372821552495217
2025-03-22 15:19:09.073,-1.0244388401535545
2025-03-22 15:19:09.073,0.1714785670576411
2025-03-22 15:19:09.073,0.8920895295169066
2025-03-22 15:19:09.073,0.46045821966343004
2025-03-22 15:19:09.073,-0.6888767817385578
2025-03-22 15:19:09.083,-1.3163717645729247
2025-03-22 15:19:09.083,-0.4676217507448128
2025-03-22 15:19:09.083,1.342311447449151
2025-03-22 15:19:09.083,2.3230924685716015
2025-03-22 15:19:09.083,1.1586754950905047
2025-03-22 15:19:09.092,-1.5137494910620255
2025-03-22 15:19:09.093,-3.431999346787592
2025-03-22 15:19:09.093,-2.5201600870030227
2025-03-22 15:19:09.093,1.114454576092943
2025-03-22 15:19:09.093,4.538400171918281
2025-03-22 15:19:09.102,4.097823300954527
2025-03-22 15:19:09.103,-0.6393143351992864
2025-03-22 15:19:09.103,-5.370046606068911
2025-03-22 15:19:09.103,-5.02470503784709
2025-03-22 15:19:09.103,0.4050500700159969
2025-03-22 15:19:09.112,5.357932358081802
2025-03-22 15:19:09.112,4.781587118044549
2025-03-22 15:19:09.113,-0.3083848739685914
2025-03-22 15:19:09.113,-4.341010498995398
2025-03-22 15:19:09.113,-3.5713255125105445
2025-03-22 15:19:09.122,0.28966721478933777
2025-03-22 15:19:09.122,2.772535507768094
2025-03-22 15:19:09.123,1.8247866408620803
2025-03-22 15:19:09.123,-0.4811798910570552
2025-03-22 15:19:09.123,-1.0946207323880883
2025-03-22 15:19:09.132,0.18319841229871073
2025-03-22 15:19:09.133,0.8543968412873634
2025-03-22 15:19:09.133,-0.537187186912698
2025-03-22 15:19:09.133,-2.133550297037111
2025-03-22 15:19:09.133,-1.1892034874309103
2025-03-22 15:19:09.142,1.8952120709087947
2025-03-22 15:19:09.143,3.526167060179432
2025-03-22 15:19:09.143,1.3491290924520403
2025-03-22 15:19:09.143,-2.5209331983495376
2025-03-22 15:19:09.143,-3.8679087887225863
2025-03-22 15:19:09.152,-1.3908927468352257
2025-03-22 15:19:09.153,2.03386155765156
2025-03-22 15:19:09.153,3.0806523290254675
2025-03-22 15:19:09.153,1.507364297807415
2025-03-22 15:19:09.153,-0.5911753949010727
2025-03-22 15:19:09.162,-1.7028506403765962
2025-03-22 15:19:09.162,-1.810133105216025
2025-03-22 15:19:09.163,-1.1330144411013487
2025-03-22 15:19:09.163,0.39354764116395974
2025-03-22 15:19:09.163,2.1435347060317533
2025-03-22 15:19:09.172,2.543221289289235
2025-03-22 15:19:09.172,0.6781844942007081
2025-03-22 15:19:09.173,-2.1884885329588424
2025-03-22 15:19:09.173,-3.4306880560989335
2025-03-22 15:19:09.173,-1.6366183056685037
2025-03-22 15:19:09.182,1.7741141803542784
2025-03-22 15:19:09.182,3.704027507803336
2025-03-22 15:19:09.182,2.3149754075833733
2025-03-22 15:19:09.183,-1.1076494719183398
2025-03-22 15:19:09.183,-3.3255692376297716
2025-03-22 15:19:09.192,-2.33106356644677
2025-03-22 15:19:09.192,0.6600321296490057
2025-03-22 15:19:09.193,2.5410225759289076
2025-03-22 15:19:09.193,1.6204472045168141
2025-03-22 15:19:09.193,-0.6945132965251027
2025-03-22 15:19:09.202,-1.7183706440110238
2025-03-22 15:19:09.203,-0.6231758030421543
2025-03-22 15:19:09.203,0.9017252892396606
2025-03-22 15:19:09.203,1.0666987799092469
2025-03-22 15:19:09.203,0.0884763332354942
2025-03-22 15:19:09.211,-0.6512081609147775
2025-03-22 15:19:09.211,-0.6750053194368195
2025-03-22 15:19:09.211,-0.5557051773709996
2025-03-22 15:19:09.211,-0.40318712713217025
2025-03-22 15:19:09.211,0.4220727777334937
2025-03-22 15:19:09.221,1.7565101496216156
2025-03-22 15:19:09.221,1.98218552314152
2025-03-22 15:19:09.221,-0.024255525027773367
2025-03-22 15:19:09.221,-2.7524555412545837
2025-03-22 15:19:09.231,-3.1704746038005993
2025-03-22 15:19:09.231,-0.3954592575293795
2025-03-22 15:19:09.231,2.7558357825846054
2025-03-22 15:19:09.231,2.9042907154068422
2025-03-22 15:19:09.231,0.27117315319153285
2025-03-22 15:19:09.240,-1.702482431199692
2025-03-22 15:19:09.240,-0.971720210987437
2025-03-22 15:19:09.241,0.5644656241070799
2025-03-22 15:19:09.241,0.15569921400858325
2025-03-22 15:19:09.241,-1.5793946461818043
2025-03-22 15:19:09.250,-1.5385493416816884
2025-03-22 15:19:09.250,1.1036999026123953
2025-03-22 15:19:09.251,3.270532175605293
2025-03-22 15:19:09.251,2.012295460317659
2025-03-22 15:19:09.251,-1.4527215101601343
2025-03-22 15:19:09.260,-3.2810736304480868
2025-03-22 15:19:09.261,-1.8267344279695767
2025-03-22 15:19:09.261,0.7816866031066376
2025-03-22 15:19:09.261,1.8430103278752985
2025-03-22 15:19:09.261,1.1883155128969114
2025-03-22 15:19:09.270,0.3726206248631611
2025-03-22 15:19:09.270,0.06986525461265569
2025-03-22 15:19:09.270,-0.36712025054766495
2025-03-22 15:19:09.271,-1.1995202829177225
2025-03-22 15:19:09.271,-1.5156291097181316
2025-03-22 15:19:09.280,-0.49619464126978774
2025-03-22 15:19:09.280,1.2559072700155656
2025-03-22 15:19:09.281,2.1514123881001743
2025-03-22 15:19:09.281,1.2468170890078891
2025-03-22 15:19:09.281,-0.7466668848779769
2025-03-22 15:19:09.290,-2.074787683553921
2025-03-22 15:19:09.290,-1.5761850729647366
2025-03-22 15:19:09.291,0.2121203155842752
2025-03-22 15:19:09.291,1.5842781204782486
2025-03-22 15:19:09.291,1.350158635436701
2025-03-22 15:19:09.300,-0.036665560652343485
2025-03-22 15:19:09.301,-1.0826094882968507
2025-03-22 15:19:09.301,-0.8732090011644299
2025-03-22 15:19:09.301,0.12023704723303423
2025-03-22 15:19:09.301,0.8014812782764027
2025-03-22 15:19:09.310,0.6386336827880448
2025-03-22 15:19:09.310,-0.07346148567791244
2025-03-22 15:19:09.311,-0.740405576694305
2025-03-22 15:19:09.311,-0.8624755044662316
2025-03-22 15:19:09.311,-0.20158041972210267
2025-03-22 15:19:09.319,0.8691030518756471
2025-03-22 15:19:09.319,1.3091411202724135
2025-03-22 15:19:09.319,0.41033485263834324
2025-03-22 15:19:09.319,-1.0493920461766386
2025-03-22 15:19:09.319,-1.4230070931758525
2025-03-22 15:19:09.330,-0.29988960237843176
2025-03-22 15:19:09.330,0.8262257953914509
2025-03-22 15:19:09.331,0.6321136258021876
2025-03-22 15:19:09.331,-0.11641436418517945
2025-03-22 15:19:09.331,0.15933812207442527
2025-03-22 15:19:09.339,1.1516358175805155
2025-03-22 15:19:09.339,0.7999866805158599
2025-03-22 15:19:09.339,-1.5342284735168572
2025-03-22 15:19:09.339,-3.387711660305821
2025-03-22 15:19:09.339,-1.8623478548960648
2025-03-22 15:19:09.349,2.4276659971002403
2025-03-22 15:19:09.349,5.266593655748681
2025-03-22 15:19:09.349,3.218581380163636
2025-03-22 15:19:09.349,-2.325661727202855
2025-03-22 15:19:09.349,-6.0986020147828945
2025-03-22 15:19:09.359,-4.199751281567165
2025-03-22 15:19:09.359,1.7092793980775265
2025-03-22 15:19:09.359,5.786327524300545
2025-03-22 15:19:09.359,3.9481094958172704
2025-03-22 15:19:09.359,-1.696247938983682
2025-03-22 15:19:09.369,-4.9978557811135245
2025-03-22 15:19:09.369,-2.5285691053248276
2025-03-22 15:19:09.369,2.642774643286934
2025-03-22 15:19:09.369,4.584977333610423
2025-03-22 15:19:09.369,1.2272634464066237
2025-03-22 15:19:09.379,-3.625953507947502
2025-03-22 15:19:09.379,-4.81146363198016
2025-03-22 15:19:09.379,-1.2237889678046023
2025-03-22 15:19:09.379,3.561591824942953
2025-03-22 15:19:09.388,5.174756680473001
2025-03-22 15:19:09.388,2.3751289959202753
2025-03-22 15:19:09.389,-2.291131682244276
2025-03-22 15:19:09.389,-4.929417692503747
2025-03-22 15:19:09.389,-3.519921614286031
2025-03-22 15:19:09.398,0.540909588178677
2025-03-22 15:19:09.399,3.7550680226610615
2025-03-22 15:19:09.399,3.6206999316971893
2025-03-22 15:19:09.399,0.747918703046069
2025-03-22 15:19:09.399,-2.0030609624014963
2025-03-22 15:19:09.409,-2.438416706663836
2025-03-22 15:19:09.409,-0.9598426447296545
2025-03-22 15:19:09.409,0.3979778885502754
2025-03-22 15:19:09.409,0.46821398006504833
2025-03-22 15:19:09.409,0.02497951708152385
2025-03-22 15:19:09.418,0.3791087690543868
2025-03-22 15:19:09.419,1.4369409080861075
2025-03-22 15:19:09.419,1.644828313093571
2025-03-22 15:19:09.419,-0.06634604291446644
2025-03-22 15:19:09.419,-2.576011886011897
2025-03-22 15:19:09.428,-3.299133526431467
2025-03-22 15:19:09.429,-0.9535799642321205
2025-03-22 15:19:09.429,2.64325879496812
2025-03-22 15:19:09.429,4.124083485030566
2025-03-22 15:19:09.429,2.0237306972781077
2025-03-22 15:19:09.438,-1.7208116859725466
2025-03-22 15:19:09.439,-3.8085344677346065
2025-03-22 15:19:09.439,-2.710991209140891
2025-03-22 15:19:09.439,0.30845098872707843
2025-03-22 15:19:09.439,2.735272033386719
2025-03-22 15:19:09.448,2.9106258763702013
2025-03-22 15:19:09.449,0.973650725055049
2025-03-22 15:19:09.449,-1.520927704442526
2025-03-22 15:19:09.449,-2.716795946970965
2025-03-22 15:19:09.449,-1.7543141733221237
2025-03-22 15:19:09.458,0.5065151228014935
2025-03-22 15:19:09.458,2.1583427407632794
2025-03-22 15:19:09.459,1.9569378840932794
2025-03-22 15:19:09.459,0.3481058130583296
2025-03-22 15:19:09.459,-1.2377193130769728
2025-03-22 15:19:09.468,-1.766473351052104
2025-03-22 15:19:09.469,-1.107333104241452
2025-03-22 15:19:09.469,0.27083081770088974
2025-03-22 15:19:09.469,1.498777289502467
2025-03-22 15:19:09.469,1.546690848564028
2025-03-22 15:19:09.478,0.1452550308320939
2025-03-22 15:19:09.478,-1.4332640417203404
2025-03-22 15:19:09.479,-1.3752571910391669
2025-03-22 15:19:09.479,0.399213459972141
2025-03-22 15:19:09.479,1.6896279935603753
2025-03-22 15:19:09.488,0.6270887517944524
2025-03-22 15:19:09.488,-1.630213506760268
2025-03-22 15:19:09.489,-2.07663403188198
2025-03-22 15:19:09.489,0.20388695211266217
2025-03-22 15:19:09.489,2.63510740569986
2025-03-22 15:19:09.497,2.329443836865941
2025-03-22 15:19:09.497,-0.395315201713516
2025-03-22 15:19:09.497,-2.646039939472114
2025-03-22 15:19:09.497,-2.415043716024425
2025-03-22 15:19:09.507,-0.33823421997949144
2025-03-22 15:19:09.507,1.6544474069420723
2025-03-22 15:19:09.507,2.290914728610419
2025-03-22 15:19:09.507,1.4483467462196313
2025-03-22 15:19:09.507,-0.2716371257144699
2025-03-22 15:19:09.508,-1.8290529265876212
2025-03-22 15:19:09.517,-2.114706389571806
2025-03-22 15:19:09.517,-0.7948975543350454
2025-03-22 15:19:09.517,1.1280900639821125
2025-03-22 15:19:09.517,2.0239782849877277
2025-03-22 15:19:09.517,1.1779911046646092
2025-03-22 15:19:09.527,-0.4671779742647704
2025-03-22 15:19:09.527,-1.3090165837540326
2025-03-22 15:19:09.527,-0.8110150286732744
2025-03-22 15:19:09.527,0.025344596975752337
2025-03-22 15:19:09.537,0.07882367708527908
2025-03-22 15:19:09.537,-0.3261952142025656
2025-03-22 15:19:09.537,0.09244708582206329
2025-03-22 15:19:09.537,1.4437615946593938
2025-03-22 15:19:09.537,1.936677462314865
2025-03-22 15:19:09.537,0.1520670624232728
2025-03-22 15:19:09.547,-2.5057433516549876
2025-03-22 15:19:09.547,-3.014015460873822
2025-03-22 15:19:09.547,-0.5520633020636775
2025-03-22 15:19:09.547,2.2492820108483635
2025-03-22 15:19:09.556,2.573118358017802
2025-03-22 15:19:09.557,0.759700170071494
2025-03-22 15:19:09.557,-0.7301307296823192
2025-03-22 15:19:09.557,-0.8014555271068624
2025-03-22 15:19:09.557,-0.5764702727883371
2025-03-22 15:19:09.567,-0.9739422527274478
2025-03-22 15:19:09.567,-1.1615272721776502
2025-03-22 15:19:09.567,-0.07144315881851346
2025-03-22 15:19:09.567,1.7066177383542511
2025-03-22 15:19:09.567,2.4726664150345377
2025-03-22 15:19:09.576,1.3102684336526615
2025-03-22 15:19:09.577,-1.1286980704420644
2025-03-22 15:19:09.577,-3.1567266879162066
2025-03-22 15:19:09.577,-2.986128209348281
2025-03-22 15:19:09.577,-0.09799466067896011
2025-03-22 15:19:09.586,3.5002815893905295
2025-03-22 15:19:09.586,4.307390355561503
2025-03-22 15:19:09.587,0.9721259823276156
2025-03-22 15:19:09.587,-3.4648887334192433
2025-03-22 15:19:09.587,-4.420139068672033
2025-03-22 15:19:09.596,-1.0083342030720996
2025-03-22 15:19:09.596,2.8736465800499174
2025-03-22 15:19:09.597,3.2164171284218805
2025-03-22 15:19:09.597,0.4355099784328295
2025-03-22 15:19:09.597,-1.7922100023869718
2025-03-22 15:19:09.606,-1.3561676585690567
2025-03-22 15:19:09.606,0.22792819106321055
2025-03-22 15:19:09.607,0.602593288742026
2025-03-22 15:19:09.607,-0.22557714236657891
2025-03-22 15:19:09.607,-0.5209776029170666
2025-03-22 15:19:09.616,0.2638926394588917
2025-03-22 15:19:09.616,0.79711833349851
2025-03-22 15:19:09.617,0.16908282701656216
2025-03-22 15:19:09.617,-0.5955299580954694
2025-03-22 15:19:09.617,-0.20377137658167838
2025-03-22 15:19:09.626,0.715516855120988
2025-03-22 15:19:09.627,0.4390593115832442
2025-03-22 15:19:09.627,-1.101203762144422
2025-03-22 15:19:09.627,-1.7959071248800489
2025-03-22 15:19:09.627,-0.1064590909246943
2025-03-22 15:19:09.635,2.526218770261715
2025-03-22 15:19:09.635,2.94798591733307
2025-03-22 15:19:09.635,-0.007732015929256375
2025-03-22 15:19:09.635,-3.6868142387593714
2025-03-22 15:19:09.635,-4.079472695236596
2025-03-22 15:19:09.645,-0.2519278517764474
2025-03-22 15:19:09.645,4.201169337045132
2025-03-22 15:19:09.645,4.752991042053671
2025-03-22 15:19:09.645,0.8261106703706353
2025-03-22 15:19:09.646,-3.6395260255291872
2025-03-22 15:19:09.655,-4.510666680243382
2025-03-22 15:19:09.655,-1.5329339659257195
2025-03-22 15:19:09.655,2.119106477194367
2025-03-22 15:19:09.655,3.4139418459731745
2025-03-22 15:19:09.655,1.9424073657788534
2025-03-22 15:19:09.665,-0.5127216369011492
2025-03-22 15:19:09.665,-1.9504562607309623
2025-03-22 15:19:09.665,-1.6705531721385452
2025-03-22 15:19:09.665,-0.4045391365033925
2025-03-22 15:19:09.675,0.6528151151099476
2025-03-22 15:19:09.675,0.874617656991676
2025-03-22 15:19:09.675,0.4760147909417749
2025-03-22 15:19:09.675,0.07744912335272194
2025-03-22 15:19:09.675,0.05552568374308173
2025-03-22 15:19:09.684,0.15539275768919533
2025-03-22 15:19:09.685,-0.1876696752197684
2025-03-22 15:19:09.685,-0.9341996972422503
2025-03-22 15:19:09.685,-1.123475964446097
2025-03-22 15:19:09.685,-0.01829153452542176
2025-03-22 15:19:09.694,1.568733176071681
2025-03-22 15:19:09.695,1.860771398601733
2025-03-22 15:19:09.695,0.2568421849403744
2025-03-22 15:19:09.695,-1.7291914939210042
2025-03-22 15:19:09.695,-2.0693588212916363
2025-03-22 15:19:09.704,-0.4204357989307944
2025-03-22 15:19:09.705,1.5737489577304025
2025-03-22 15:19:09.705,1.9640130937293523
2025-03-22 15:19:09.705,0.3699491074861365
2025-03-22 15:19:09.705,-1.589484240105365
2025-03-22 15:19:09.714,-1.7990215635191618
2025-03-22 15:19:09.715,0.05360024913611158
2025-03-22 15:19:09.715,1.867847167660342
2025-03-22 15:19:09.715,1.442682297869145
2025-03-22 15:19:09.715,-0.7411448802783708
2025-03-22 15:19:09.724,-1.969531578404717
2025-03-22 15:19:09.725,-0.7208050722503796
2025-03-22 15:19:09.725,1.3613203702718213
2025-03-22 15:19:09.725,1.6286746726493033
2025-03-22 15:19:09.725,-0.13780903421809684
2025-03-22 15:19:09.734,-1.57032938789836
2025-03-22 15:19:09.735,-0.9322447303087597
2025-03-22 15:19:09.735,0.6737742061071818
2025-03-22 15:19:09.735,1.0149814705879925
2025-03-22 15:19:09.735,-0.11354578126013798
2025-03-22 15:19:09.744,-0.7154644443540982
2025-03-22 15:19:09.744,0.3613587421998554
2025-03-22 15:19:09.745,1.5367499490786856
2025-03-22 15:19:09.745,0.6202311836601501
2025-03-22 15:19:09.745,-1.8910802766687713
2025-03-22 15:19:09.754,-3.0095161609818613
2025-03-22 15:19:09.755,-0.9203825644360992
2025-03-22 15:19:09.755,2.6016626309531024
2025-03-22 15:19:09.755,4.03813196443893
2025-03-22 15:19:09.755,1.8506890752355165
2025-03-22 15:19:09.764,-2.1183076308974393
2025-03-22 15:19:09.765,-4.507254704309256
2025-03-22 15:19:09.765,-3.2510233612719794
2025-03-22 15:19:09.765,0.8468605700467334
2025-03-22 15:19:09.765,4.529719069866239
2025-03-22 15:19:09.773,4.481035738701516
2025-03-22 15:19:09.773,0.45166248268271025
2025-03-22 15:19:09.773,-3.9006263765036993
2025-03-22 15:19:09.773,-4.383615197428063
2025-03-22 15:19:09.773,-0.9028392144348577
2025-03-22 15:19:09.783,2.3408269859129054
2025-03-22 15:19:09.783,2.027340407750463
2025-03-22 15:19:09.783,-0.14247789361142899
2025-03-22 15:19:09.783,-0.16263320432694395
2025-03-22 15:19:09.784,2.139005386248804
2025-03-22 15:19:09.793,2.4060924618481936
2025-03-22 15:19:09.793,-1.773344640537832
2025-03-22 15:19:09.793,-6.1703869342085245
2025-03-22 15:19:09.793,-4.54341003075223
2025-03-22 15:19:09.802,2.723422118600811
2025-03-22 15:19:09.803,7.902884569975525
2025-03-22 15:19:09.803,5.085000446472218
2025-03-22 15:19:09.803,-2.4557232143945535
2025-03-22 15:19:09.803,-6.436783780702116
2025-03-22 15:19:09.813,-3.6523725070750994
2025-03-22 15:19:09.813,1.2175714699703235
2025-03-22 15:19:09.813,2.7286494676391553
2025-03-22 15:19:09.813,1.175985267750736
2025-03-22 15:19:09.813,0.30834763095096374
2025-03-22 15:19:09.813,1.1152956894717552
2025-03-22 15:19:09.823,1.0189893817910205
2025-03-22 15:19:09.823,-1.3025912100389243
2025-03-22 15:19:09.823,-3.328643459538442
2025-03-22 15:19:09.823,-2.1132869656296136
2025-03-22 15:19:09.833,1.4560836402306152
2025-03-22 15:19:09.833,3.536355603240617
2025-03-22 15:19:09.833,2.002332928683294
2025-03-22 15:19:09.833,-1.1763945737452999
2025-03-22 15:19:09.833,-2.530159891665058
2025-03-22 15:19:09.843,-1.1104682296916455
2025-03-22 15:19:09.843,0.8920967399917478
2025-03-22 15:19:09.843,1.2251297272166723
2025-03-22 15:19:09.843,0.17687332860130645
2025-03-22 15:19:09.843,-0.43502256408837386
2025-03-22 15:19:09.853,-0.04284290500349498
2025-03-22 15:19:09.853,0.16818558537448577
2025-03-22 15:19:09.853,-0.5046760979935991
2025-03-22 15:19:09.853,-0.9487324966975115
2025-03-22 15:19:09.853,0.040941152960186224
2025-03-22 15:19:09.862,1.6257862811445198
2025-03-22 15:19:09.863,1.7505574497915333
2025-03-22 15:19:09.863,-0.12326222506531834
2025-03-22 15:19:09.863,-2.1972836559728197
2025-03-22 15:19:09.863,-2.393916510188482
2025-03-22 15:19:09.872,-0.4880209491700338
2025-03-22 15:19:09.873,1.9231875177174829
2025-03-22 15:19:09.873,2.907227450452679
2025-03-22 15:19:09.873,1.5837667436092016
2025-03-22 15:19:09.873,-1.1760293808194244
2025-03-22 15:19:09.882,-3.1153296581309102
2025-03-22 15:19:09.883,-2.3737951878018166
2025-03-22 15:19:09.883,0.4947388745499313
2025-03-22 15:19:09.883,2.7028414185801948
2025-03-22 15:19:09.883,2.102623295332019
2025-03-22 15:19:09.892,-0.3158730783263234
2025-03-22 15:19:09.892,-1.5878045014374618
2025-03-22 15:19:09.893,-0.5086949815195544
2025-03-22 15:19:09.893,0.8293117769942141
2025-03-22 15:19:09.893,0.025334727670585137
2025-03-22 15:19:09.902,-1.9477447724388857
2025-03-22 15:19:09.903,-1.712892462437331
2025-03-22 15:19:09.903,1.6336561116197639
2025-03-22 15:19:09.903,4.359689041733186
2025-03-22 15:19:09.903,2.3485905721802065
2025-03-22 15:19:09.912,-3.141901873279503
2025-03-22 15:19:09.913,-5.980772271745297
2025-03-22 15:19:09.913,-2.281191910716978
2025-03-22 15:19:09.913,4.323883647261817
2025-03-22 15:19:09.913,6.370047151975326
2025-03-22 15:19:09.922,1.4219330745024525
2025-03-22 15:19:09.922,-4.796271573887162
2025-03-22 15:19:09.923,-5.27385439512515
2025-03-22 15:19:09.923,-0.12428625621317468
2025-03-22 15:19:09.923,4.066669433745067
2025-03-22 15:19:09.932,2.796834464321932
2025-03-22 15:19:09.933,-1.1573525056427694
2025-03-22 15:19:09.933,-2.2203998293153537
2025-03-22 15:19:09.933,0.43166781838295465
2025-03-22 15:19:09.933,2.3111692494026728
2025-03-22 15:19:09.941,0.19920007503980303
2025-03-22 15:19:09.941,-3.333451250102197
2025-03-22 15:19:09.941,-3.3504138394507854
2025-03-22 15:19:09.941,0.8807303461434939
2025-03-22 15:19:09.941,4.765696135057361
2025-03-22 15:19:09.951,3.941122903736223
2025-03-22 15:19:09.951,-0.6481209710940689
2025-03-22 15:19:09.951,-4.196860673481853
2025-03-22 15:19:09.951,-3.6283851119021975
2025-03-22 15:19:09.961,-0.3620021689726122
2025-03-22 15:19:09.961,2.2199686448129663
2025-03-22 15:19:09.961,2.489686731679775
2025-03-22 15:19:09.961,1.2269202352155564
2025-03-22 15:19:09.961,-0.17134360871375998
2025-03-22 15:19:09.970,-0.9884154037655344
2025-03-22 15:19:09.971,-1.1602262036212845
2025-03-22 15:19:09.971,-0.9367852000192123
2025-03-22 15:19:09.971,-0.6005289644274334
2025-03-22 15:19:09.971,-0.08773436269992506
2025-03-22 15:19:09.980,0.9053177790187967
2025-03-22 15:19:09.981,2.0400208000234534
2025-03-22 15:19:09.981,2.008632654194838
2025-03-22 15:19:09.981,-0.0496630778652946
2025-03-22 15:19:09.981,-2.8437508494788872
2025-03-22 15:19:09.990,-3.6098381226575884
2025-03-22 15:19:09.991,-1.0954050963908024
2025-03-22 15:19:09.991,2.605808359039035
2025-03-22 15:19:09.991,3.985176276546615
2025-03-22 15:19:09.991,1.9014038566160618
2025-03-22 15:19:10.000,-1.2959969527243158
2025-03-22 15:19:10.000,-2.7011554199066845
2025-03-22 15:19:10.001,-1.998658990999575
2025-03-22 15:19:10.001,-0.813998697569335
