timestamp,bandpass_and_notch
2025-03-22 15:40:07.740,-0.38583589002211194
2025-03-22 15:40:07.741,3.8481298706302565
2025-03-22 15:40:07.741,4.672502434104226
2025-03-22 15:40:07.741,-4.501145451739208
2025-03-22 15:40:07.749,-19.98912076149259
2025-03-22 15:40:07.750,-20.982384976081704
2025-03-22 15:40:07.750,6.319987139622912
2025-03-22 15:40:07.750,40.628105257578525
2025-03-22 15:40:07.750,40.75141723211218
2025-03-22 15:40:07.758,-4.195996407862606
2025-03-22 15:40:07.758,-53.291405373217
2025-03-22 15:40:07.758,-55.02363291083306
2025-03-22 15:40:07.759,-5.204899060337921
2025-03-22 15:40:07.766,47.67378533435612
2025-03-22 15:40:07.766,55.051381871705715
2025-03-22 15:40:07.766,16.843318033961378
2025-03-22 15:40:07.766,-25.70831393868227
2025-03-22 15:40:07.767,-37.16317626045001
2025-03-22 15:40:07.776,-19.179566340802232
2025-03-22 15:40:07.776,2.5379836461326795
2025-03-22 15:40:07.776,11.107134448962977
2025-03-22 15:40:07.776,10.851564076308769
2025-03-22 15:40:07.784,11.487477362445578
2025-03-22 15:40:07.784,11.455619200045891
2025-03-22 15:40:07.784,2.846536806772924
2025-03-22 15:40:07.785,-12.507147575388705
2025-03-22 15:40:07.785,-20.920471308480373
2025-03-22 15:40:07.794,-12.789081115431095
2025-03-22 15:40:07.794,4.823790535498715
2025-03-22 15:40:07.794,15.671844352378747
2025-03-22 15:40:07.794,12.161414272706978
2025-03-22 15:40:07.803,1.6295011868687532
2025-03-22 15:40:07.804,-4.621702994600512
2025-03-22 15:40:07.804,-4.018588175557722
2025-03-22 15:40:07.804,-2.246713561882054
2025-03-22 15:40:07.804,-3.241456266607005
2025-03-22 15:40:07.814,-4.1693342147432775
2025-03-22 15:40:07.814,-0.9596664748361924
2025-03-22 15:40:07.814,4.677328812093484
2025-03-22 15:40:07.814,6.774907050454251
2025-03-22 15:40:07.814,2.8651143042054703
2025-03-22 15:40:07.823,-2.6700050062543377
2025-03-22 15:40:07.824,-4.016982591933575
2025-03-22 15:40:07.824,-0.8618051819652306
2025-03-22 15:40:07.824,1.9044805054083271
2025-03-22 15:40:07.824,0.715179343339082
2025-03-22 15:40:07.834,-2.458312303104751
2025-03-22 15:40:07.834,-3.0345533463491074
2025-03-22 15:40:07.834,0.330270520256263
2025-03-22 15:40:07.834,4.124829782732755
2025-03-22 15:40:07.834,4.103869545411552
2025-03-22 15:40:07.842,0.08251215984348667
2025-03-22 15:40:07.842,-3.898433231090704
2025-03-22 15:40:07.842,-3.9255951013258135
2025-03-22 15:40:07.843,-0.23416007696946778
2025-03-22 15:40:07.843,3.2589080762282108
2025-03-22 15:40:07.852,3.1318467806169137
2025-03-22 15:40:07.852,-0.17524583283912268
2025-03-22 15:40:07.852,-3.110698368828349
2025-03-22 15:40:07.853,-2.7755732073232977
2025-03-22 15:40:07.862,0.25151072958111687
2025-03-22 15:40:07.862,2.7604698618479313
2025-03-22 15:40:07.862,2.3808262777953697
2025-03-22 15:40:07.862,-0.045033935436711
2025-03-22 15:40:07.863,-1.7091877281502028
2025-03-22 15:40:07.872,-1.1419727490829306
2025-03-22 15:40:07.872,0.3667132907329521
2025-03-22 15:40:07.872,0.7519430802401854
2025-03-22 15:40:07.872,-0.21524034595760796
2025-03-22 15:40:07.872,-1.0322329279004552
2025-03-22 15:40:07.882,-0.7232619796034344
2025-03-22 15:40:07.882,0.1395714002754669
2025-03-22 15:40:07.882,0.7641423049100056
2025-03-22 15:40:07.882,1.2335915411077447
2025-03-22 15:40:07.883,1.6037908790798356
2025-03-22 15:40:07.892,1.0199174157479731
2025-03-22 15:40:07.892,-1.0379607489315024
2025-03-22 15:40:07.892,-3.1746668114354293
2025-03-22 15:40:07.892,-3.0895143130899445
2025-03-22 15:40:07.892,-0.31137282448068626
2025-03-22 15:40:07.902,2.9059383207763956
2025-03-22 15:40:07.902,3.7521888599919673
2025-03-22 15:40:07.902,1.6313046223515562
2025-03-22 15:40:07.902,-1.3548867560945563
2025-03-22 15:40:07.902,-2.5691541695689697
2025-03-22 15:40:07.912,-1.4298665114514209
2025-03-22 15:40:07.912,0.24360272935766514
2025-03-22 15:40:07.912,0.5419265975629811
2025-03-22 15:40:07.912,-0.24862752954988027
2025-03-22 15:40:07.912,-0.2924323875138611
2025-03-22 15:40:07.922,0.9785201344598974
2025-03-22 15:40:07.922,1.8050149033475031
2025-03-22 15:40:07.922,0.581891050518431
2025-03-22 15:40:07.922,-1.5256221170616753
2025-03-22 15:40:07.922,-1.893765833395432
2025-03-22 15:40:07.931,-0.10126022935814069
2025-03-22 15:40:07.932,1.4275586227666675
2025-03-22 15:40:07.932,0.8586748264689987
2025-03-22 15:40:07.932,-0.6277831325497731
2025-03-22 15:40:07.932,-0.9067416919907546
2025-03-22 15:40:07.942,-0.043561491409192105
2025-03-22 15:40:07.942,0.3002349505084821
2025-03-22 15:40:07.942,-0.13465927731965027
2025-03-22 15:40:07.942,0.1156301444324026
2025-03-22 15:40:07.942,1.333960074411563
2025-03-22 15:40:07.952,1.4829111563332187
2025-03-22 15:40:07.952,-0.7059844936382433
2025-03-22 15:40:07.952,-2.9910820070548336
2025-03-22 15:40:07.952,-2.1212318638463166
2025-03-22 15:40:07.952,1.3511102097176648
2025-03-22 15:40:07.961,3.166884243622339
2025-03-22 15:40:07.962,0.9984657467931085
2025-03-22 15:40:07.962,-2.1248543740125836
2025-03-22 15:40:07.962,-1.810099578485777
2025-03-22 15:40:07.962,1.558859813302676
2025-03-22 15:40:07.971,3.167204481374965
2025-03-22 15:40:07.972,0.3255149626230744
2025-03-22 15:40:07.972,-3.725423979755708
2025-03-22 15:40:07.972,-3.9422653774336593
2025-03-22 15:40:07.972,0.08954644156645603
2025-03-22 15:40:07.981,3.8478566063269355
2025-03-22 15:40:07.982,3.5918615470777895
2025-03-22 15:40:07.982,0.395572328536782
2025-03-22 15:40:07.982,-2.063533707912672
2025-03-22 15:40:07.982,-2.085556852607539
2025-03-22 15:40:07.992,-0.9258128358867114
2025-03-22 15:40:07.992,-0.06772075445489986
2025-03-22 15:40:07.992,0.5470177359484891
2025-03-22 15:40:07.992,1.2352421634201536
2025-03-22 15:40:07.992,1.2205648426095137
2025-03-22 15:40:08.002,-0.1343542315153185
2025-03-22 15:40:08.002,-1.6205540605118725
2025-03-22 15:40:08.002,-1.3005263985274043
2025-03-22 15:40:08.002,0.7315763946216166
2025-03-22 15:40:08.002,2.0934143413677933
2025-03-22 15:40:08.010,1.0741209218921846
2025-03-22 15:40:08.010,-1.1720877141843906
2025-03-22 15:40:08.010,-2.148614477875256
2025-03-22 15:40:08.011,-1.0723777753395194
2025-03-22 15:40:08.011,0.5806013107591308
2025-03-22 15:40:08.020,1.318476769810724
2025-03-22 15:40:08.020,1.2025892968164125
2025-03-22 15:40:08.020,0.8428511141645287
2025-03-22 15:40:08.021,0.06970351695812754
2025-03-22 15:40:08.021,-1.289329868546485
2025-03-22 15:40:08.030,-2.086335487161314
2025-03-22 15:40:08.030,-0.9340413232636173
2025-03-22 15:40:08.031,1.378367440509635
2025-03-22 15:40:08.031,2.208881383207784
2025-03-22 15:40:08.031,0.5106162525844784
2025-03-22 15:40:08.040,-1.461070632274432
2025-03-22 15:40:08.040,-1.1376125340051533
2025-03-22 15:40:08.040,0.7381430162679221
2025-03-22 15:40:08.041,1.258589007037463
2025-03-22 15:40:08.050,-0.31978193625916956
2025-03-22 15:40:08.050,-1.5295237350814774
2025-03-22 15:40:08.050,-0.47948354625088735
2025-03-22 15:40:08.050,1.2838963877882403
2025-03-22 15:40:08.051,1.1222382664343755
2025-03-22 15:40:08.060,-0.7584251049449309
2025-03-22 15:40:08.060,-1.6249378445898572
2025-03-22 15:40:08.060,-0.13692466348695065
2025-03-22 15:40:08.060,1.8709519465673636
2025-03-22 15:40:08.060,1.9373413217777238
2025-03-22 15:40:08.070,-0.05656484205134733
2025-03-22 15:40:08.070,-2.1766588070720267
2025-03-22 15:40:08.070,-2.702654529235376
2025-03-22 15:40:08.070,-1.27633724944937
2025-03-22 15:40:08.070,1.3776997255166668
2025-03-22 15:40:08.080,3.6836715968338285
2025-03-22 15:40:08.080,3.576388192621608
2025-03-22 15:40:08.080,0.18900598733130924
2025-03-22 15:40:08.080,-4.284279317362456
2025-03-22 15:40:08.080,-5.624681791769163
2025-03-22 15:40:08.090,-1.7885298505394478
2025-03-22 15:40:08.090,4.167066757749906
2025-03-22 15:40:08.090,6.547710616133093
2025-03-22 15:40:08.090,2.857944645935861
2025-03-22 15:40:08.090,-3.413333909400297
2025-03-22 15:40:08.100,-6.277961231914938
2025-03-22 15:40:08.100,-3.236161373124359
2025-03-22 15:40:08.100,2.4806562319404244
2025-03-22 15:40:08.100,5.362211410389984
2025-03-22 15:40:08.100,2.9850534796063313
2025-03-22 15:40:08.110,-1.9250048627771978
2025-03-22 15:40:08.110,-4.4536053804947
2025-03-22 15:40:08.110,-2.3933257476622516
2025-03-22 15:40:08.110,1.8012474068039943
2025-03-22 15:40:08.110,3.8411223972723407
2025-03-22 15:40:08.120,2.0155560113644118
2025-03-22 15:40:08.120,-1.5209893735636508
2025-03-22 15:40:08.120,-3.418322371870161
2025-03-22 15:40:08.120,-2.2724662154930866
2025-03-22 15:40:08.120,0.7163472591593051
2025-03-22 15:40:08.128,3.0889771075040313
2025-03-22 15:40:08.128,2.8711525069930284
2025-03-22 15:40:08.129,0.1024635118646754
2025-03-22 15:40:08.129,-2.779832664251378
2025-03-22 15:40:08.129,-2.970039176513823
2025-03-22 15:40:08.140,-0.3411374224359982
2025-03-22 15:40:08.140,2.250042851633929
2025-03-22 15:40:08.140,2.2294606601084777
2025-03-22 15:40:08.140,0.12029710384870065
2025-03-22 15:40:08.140,-1.5166822105516795
2025-03-22 15:40:08.148,-1.2151321508748938
2025-03-22 15:40:08.148,0.18261892384830364
2025-03-22 15:40:08.148,1.0203885062371143
2025-03-22 15:40:08.149,0.6210165008098928
2025-03-22 15:40:08.158,-0.40559180568011605
2025-03-22 15:40:08.158,-0.9866848122942412
2025-03-22 15:40:08.158,-0.5559898578636758
2025-03-22 15:40:08.158,0.4660755486969637
2025-03-22 15:40:08.158,1.0813878499380318
2025-03-22 15:40:08.159,0.727541225285129
2025-03-22 15:40:08.168,-0.23001879303590025
2025-03-22 15:40:08.168,-1.0335165862754392
2025-03-22 15:40:08.168,-1.1630207843433908
2025-03-22 15:40:08.169,-0.37167724895026577
2025-03-22 15:40:08.178,1.1540301319945652
2025-03-22 15:40:08.178,2.2384613385273227
2025-03-22 15:40:08.178,1.2467740706070294
2025-03-22 15:40:08.178,-1.7364142349531497
2025-03-22 15:40:08.178,-3.8389339619438805
2025-03-22 15:40:08.188,-2.1344221410578763
2025-03-22 15:40:08.188,2.347565589793166
2025-03-22 15:40:08.188,4.95235439107867
2025-03-22 15:40:08.188,2.6665454630778704
2025-03-22 15:40:08.188,-2.133923257752296
2025-03-22 15:40:08.198,-4.473909154119101
2025-03-22 15:40:08.198,-2.538757059020715
2025-03-22 15:40:08.198,0.8674767830787933
2025-03-22 15:40:08.198,2.329095620752255
2025-03-22 15:40:08.199,1.5683806475522344
2025-03-22 15:40:08.208,0.6008760640772179
2025-03-22 15:40:08.208,0.44986073579985614
2025-03-22 15:40:08.208,0.11019559748142006
2025-03-22 15:40:08.208,-1.30161806183864
2025-03-22 15:40:08.208,-2.6089418488689735
2025-03-22 15:40:08.218,-1.774441045043119
2025-03-22 15:40:08.218,1.1577938697944703
2025-03-22 15:40:08.218,3.4096490009172697
2025-03-22 15:40:08.218,2.4888625875319987
2025-03-22 15:40:08.218,-0.682555025871844
2025-03-22 15:40:08.226,-2.7301495781834637
2025-03-22 15:40:08.226,-1.870968040366555
2025-03-22 15:40:08.226,0.2189762115906968
2025-03-22 15:40:08.226,1.0241822345931815
2025-03-22 15:40:08.236,0.41802236761326916
2025-03-22 15:40:08.236,0.1366721349337508
2025-03-22 15:40:08.236,0.797702432874678
2025-03-22 15:40:08.237,1.011373357665209
2025-03-22 15:40:08.237,-0.33215910516636604
2025-03-22 15:40:08.237,-2.067121227748033
2025-03-22 15:40:08.246,-1.9351133330812869
2025-03-22 15:40:08.246,0.4665025372593191
2025-03-22 15:40:08.246,2.7360948242905003
2025-03-22 15:40:08.247,2.205637956508776
2025-03-22 15:40:08.256,-0.7936398844025953
2025-03-22 15:40:08.256,-2.952051124249266
2025-03-22 15:40:08.256,-1.699544430082164
2025-03-22 15:40:08.256,1.5667411512063378
2025-03-22 15:40:08.257,2.8695526996409417
2025-03-22 15:40:08.266,0.44694939430775493
2025-03-22 15:40:08.266,-2.8037780943735586
2025-03-22 15:40:08.266,-2.6578579646918086
2025-03-22 15:40:08.266,1.1057002623219776
2025-03-22 15:40:08.266,4.115475985425397
2025-03-22 15:40:08.276,2.550307512728444
2025-03-22 15:40:08.276,-2.2415880978389042
2025-03-22 15:40:08.276,-5.155303890240029
2025-03-22 15:40:08.276,-2.9227944540182706
2025-03-22 15:40:08.276,2.4410736215795517
2025-03-22 15:40:08.285,5.751982749526906
2025-03-22 15:40:08.286,3.8344514112561594
2025-03-22 15:40:08.286,-1.4743316733533294
2025-03-22 15:40:08.286,-5.317052917960478
2025-03-22 15:40:08.286,-4.587304826024914
2025-03-22 15:40:08.296,-0.5360817923014979
2025-03-22 15:40:08.296,3.1460604097283276
2025-03-22 15:40:08.296,4.099836573794679
2025-03-22 15:40:08.296,2.716298693656005
2025-03-22 15:40:08.296,0.4802491913566185
2025-03-22 15:40:08.306,-1.8155635368106475
2025-03-22 15:40:08.306,-3.7438078105596317
2025-03-22 15:40:08.306,-4.110846999873391
2025-03-22 15:40:08.306,-1.609151341697855
2025-03-22 15:40:08.306,2.9542338931451
2025-03-22 15:40:08.315,6.084190910024931
2025-03-22 15:40:08.316,4.560065430950201
2025-03-22 15:40:08.316,-0.8647768787195129
2025-03-22 15:40:08.316,-5.622219511800155
2025-03-22 15:40:08.316,-5.686393739210235
2025-03-22 15:40:08.325,-1.351015002456256
2025-03-22 15:40:08.326,3.482117046873165
2025-03-22 15:40:08.326,5.0594258152468505
2025-03-22 15:40:08.326,2.595853033165315
2025-03-22 15:40:08.326,-1.5763106840434082
2025-03-22 15:40:08.335,-3.8858225363658816
2025-03-22 15:40:08.336,-2.3837954859107877
2025-03-22 15:40:08.336,1.2468116301784988
2025-03-22 15:40:08.336,3.043794237895387
2025-03-22 15:40:08.336,1.0701625474382443
2025-03-22 15:40:08.344,-2.1252000278063834
2025-03-22 15:40:08.344,-2.467306078688905
2025-03-22 15:40:08.344,0.558726272281003
2025-03-22 15:40:08.345,3.1827596971461163
2025-03-22 15:40:08.345,1.9812117907914844
2025-03-22 15:40:08.354,-1.9359687754751749
2025-03-22 15:40:08.354,-4.144364898533162
2025-03-22 15:40:08.354,-1.867071491608674
2025-03-22 15:40:08.355,2.8965510855528813
2025-03-22 15:40:08.364,5.259494110908323
2025-03-22 15:40:08.364,2.394391901117185
2025-03-22 15:40:08.364,-3.3472069465329817
2025-03-22 15:40:08.364,-6.404073582228648
2025-03-22 15:40:08.365,-3.4351030012078
2025-03-22 15:40:08.374,3.102947139177941
2025-03-22 15:40:08.374,7.040240970726512
2025-03-22 15:40:08.374,4.477841296722219
2025-03-22 15:40:08.374,-2.207585727898201
2025-03-22 15:40:08.374,-6.590904113779683
2025-03-22 15:40:08.384,-4.693304173925091
2025-03-22 15:40:08.384,1.0337206217758328
2025-03-22 15:40:08.384,4.693662240776525
2025-03-22 15:40:08.384,3.460063465679408
2025-03-22 15:40:08.384,-0.03793987839879809
2025-03-22 15:40:08.394,-1.7933534888713898
2025-03-22 15:40:08.394,-1.1557164359974195
2025-03-22 15:40:08.394,-0.3798127406469293
2025-03-22 15:40:08.394,-0.7158895776964346
2025-03-22 15:40:08.394,-0.9471161933569152
2025-03-22 15:40:08.404,0.16101538104241805
2025-03-22 15:40:08.404,1.7065500754417162
2025-03-22 15:40:08.404,1.851416447413853
2025-03-22 15:40:08.404,0.2761711102105606
2025-03-22 15:40:08.404,-1.4739915185798702
2025-03-22 15:40:08.414,-1.739548511386744
2025-03-22 15:40:08.414,-0.32704721316372265
2025-03-22 15:40:08.414,1.3324067288067312
2025-03-22 15:40:08.414,1.392487092374441
2025-03-22 15:40:08.414,-0.4620834898202968
2025-03-22 15:40:08.424,-2.142999974190807
2025-03-22 15:40:08.424,-1.1893693252583417
2025-03-22 15:40:08.424,1.893683483775357
2025-03-22 15:40:08.424,3.487107633112177
2025-03-22 15:40:08.424,1.1069899164115564
2025-03-22 15:40:08.434,-3.0314272530775206
2025-03-22 15:40:08.434,-4.2363993959947805
2025-03-22 15:40:08.434,-1.0067978827997452
2025-03-22 15:40:08.434,3.085687404833334
2025-03-22 15:40:08.434,3.728442477219077
2025-03-22 15:40:08.442,0.7817296317024458
2025-03-22 15:40:08.442,-2.2009793431736195
2025-03-22 15:40:08.442,-2.4814126260125193
2025-03-22 15:40:08.443,-0.6660859230466729
2025-03-22 15:40:08.452,1.0815424682329338
2025-03-22 15:40:08.452,1.6814628499639568
2025-03-22 15:40:08.452,1.2416419516559203
2025-03-22 15:40:08.453,-0.1354637881462727
2025-03-22 15:40:08.453,-2.036157467982687
2025-03-22 15:40:08.462,-2.7175521784774284
2025-03-22 15:40:08.462,-0.48427393367217775
2025-03-22 15:40:08.462,3.2558518942064767
2025-03-22 15:40:08.462,4.241374860102315
2025-03-22 15:40:08.463,0.42586419554736665
2025-03-22 15:40:08.472,-4.390840276788435
2025-03-22 15:40:08.472,-4.464183155240658
2025-03-22 15:40:08.472,0.5035457948234712
2025-03-22 15:40:08.472,4.545060018111354
2025-03-22 15:40:08.473,2.96039218419565
2025-03-22 15:40:08.482,-1.7624096468787196
2025-03-22 15:40:08.482,-3.565639612447822
2025-03-22 15:40:08.482,-0.7215177222374245
2025-03-22 15:40:08.482,2.5835822966038697
2025-03-22 15:40:08.482,2.2094432037119067
2025-03-22 15:40:08.492,-0.9609983811292874
2025-03-22 15:40:08.492,-2.854837830553372
2025-03-22 15:40:08.492,-1.376930929844643
2025-03-22 15:40:08.492,1.6009843133423667
2025-03-22 15:40:08.492,2.851862720241872
2025-03-22 15:40:08.502,1.2632960530637938
2025-03-22 15:40:08.502,-1.4009844763674704
2025-03-22 15:40:08.502,-2.552524174142836
2025-03-22 15:40:08.502,-1.3027595854975225
2025-03-22 15:40:08.502,0.8339451344946323
2025-03-22 15:40:08.512,1.6604170381732324
2025-03-22 15:40:08.512,0.7348841851772321
2025-03-22 15:40:08.512,-0.3006919730854819
2025-03-22 15:40:08.512,-0.10928860199909059
2025-03-22 15:40:08.512,0.44514303184783666
2025-03-22 15:40:08.522,-0.16488724119136194
2025-03-22 15:40:08.522,-1.3852359181119216
2025-03-22 15:40:08.522,-1.183382528706143
2025-03-22 15:40:08.522,0.5941067080166941
2025-03-22 15:40:08.522,1.5879486179942957
2025-03-22 15:40:08.530,0.497908386395004
2025-03-22 15:40:08.530,-0.7391753697692157
2025-03-22 15:40:08.531,-0.008321560839464233
2025-03-22 15:40:08.531,1.3481011249533132
2025-03-22 15:40:08.531,0.41488353150890855
2025-03-22 15:40:08.540,-2.406218637627325
2025-03-22 15:40:08.540,-3.199742751223225
2025-03-22 15:40:08.541,0.059457956299977854
2025-03-22 15:40:08.541,4.149260333987065
2025-03-22 15:40:08.541,4.264606302687393
2025-03-22 15:40:08.550,-0.09466633447549541
2025-03-22 15:40:08.550,-4.516469352210411
2025-03-22 15:40:08.550,-4.613263857499122
2025-03-22 15:40:08.551,-0.40572236144279084
2025-03-22 15:40:08.560,4.068579220560548
2025-03-22 15:40:08.560,4.648215212501793
2025-03-22 15:40:08.560,0.7609132507254267
2025-03-22 15:40:08.560,-3.892294696026579
2025-03-22 15:40:08.561,-4.567854164966537
2025-03-22 15:40:08.570,-0.33680923794917594
2025-03-22 15:40:08.570,4.400708146992287
2025-03-22 15:40:08.570,4.342568647571074
2025-03-22 15:40:08.570,-0.6337144516884392
2025-03-22 15:40:08.570,-5.012255804877394
2025-03-22 15:40:08.580,-3.878470027878223
2025-03-22 15:40:08.580,1.4281337793809867
2025-03-22 15:40:08.580,5.022785221515812
2025-03-22 15:40:08.580,3.2542517142634724
2025-03-22 15:40:08.580,-1.615915572456335
2025-03-22 15:40:08.590,-4.500630291577367
2025-03-22 15:40:08.590,-2.886896327954401
2025-03-22 15:40:08.590,1.3077328252829212
2025-03-22 15:40:08.590,4.1232271020114695
2025-03-22 15:40:08.590,3.062136345215602
2025-03-22 15:40:08.600,-0.9275329590918965
2025-03-22 15:40:08.600,-4.149473501585704
2025-03-22 15:40:08.600,-3.4271620612462312
2025-03-22 15:40:08.600,0.6116343906659252
2025-03-22 15:40:08.600,3.971582523736398
2025-03-22 15:40:08.610,3.5055650874224287
2025-03-22 15:40:08.610,0.08614748164090918
2025-03-22 15:40:08.610,-2.9057362755775995
2025-03-22 15:40:08.610,-3.3236027857499972
2025-03-22 15:40:08.610,-1.5511724514837186
2025-03-22 15:40:08.620,1.0171492225389223
2025-03-22 15:40:08.620,3.1128079249155656
2025-03-22 15:40:08.620,3.3705478579162826
2025-03-22 15:40:08.620,0.9064369481773138
2025-03-22 15:40:08.620,-2.911654752414172
2025-03-22 15:40:08.630,-4.575607785623487
2025-03-22 15:40:08.630,-1.9317068202531136
2025-03-22 15:40:08.630,2.718553092599875
2025-03-22 15:40:08.630,4.533949055557451
2025-03-22 15:40:08.630,1.614534379680653
2025-03-22 15:40:08.640,-2.6001240365914176
2025-03-22 15:40:08.640,-3.3688532046971598
2025-03-22 15:40:08.640,-0.2983533684632371
2025-03-22 15:40:08.640,2.487535931642814
2025-03-22 15:40:08.640,1.7128460573021407
2025-03-22 15:40:08.650,-1.171470164066538
2025-03-22 15:40:08.650,-2.2869622474177684
2025-03-22 15:40:08.650,-0.32127422545324874
2025-03-22 15:40:08.650,2.169103875684429
2025-03-22 15:40:08.650,2.1698753091796985
2025-03-22 15:40:08.660,-0.3103740412980135
2025-03-22 15:40:08.660,-2.5617700383631705
2025-03-22 15:40:08.660,-2.3088630738918567
2025-03-22 15:40:08.660,0.06233497859979681
2025-03-22 15:40:08.660,2.262000715076831
2025-03-22 15:40:08.668,2.526097463845591
2025-03-22 15:40:08.668,0.9795414860263415
2025-03-22 15:40:08.668,-1.0795764730927675
2025-03-22 15:40:08.669,-2.480323448330729
2025-03-22 15:40:08.678,-2.50889277378034
2025-03-22 15:40:08.678,-0.8066502355698516
2025-03-22 15:40:08.678,2.0069337587545677
2025-03-22 15:40:08.679,3.8485868122861624
2025-03-22 15:40:08.679,2.6219154720923963
2025-03-22 15:40:08.679,-1.2180220370068804
2025-03-22 15:40:08.688,-4.306699236122111
2025-03-22 15:40:08.688,-3.5058764925669204
2025-03-22 15:40:08.688,0.596222192241386
2025-03-22 15:40:08.689,3.9268733078452
2025-03-22 15:40:08.698,3.096891421854245
2025-03-22 15:40:08.698,-0.8300445990916014
2025-03-22 15:40:08.698,-3.3685930737688055
2025-03-22 15:40:08.698,-1.721496283903336
2025-03-22 15:40:08.699,1.8914637152005298
2025-03-22 15:40:08.708,2.9667032907229647
2025-03-22 15:40:08.708,0.30244652680077677
2025-03-22 15:40:08.708,-2.6604618219432528
2025-03-22 15:40:08.708,-2.377269703162555
2025-03-22 15:40:08.709,0.43429793572553976
2025-03-22 15:40:08.718,2.135096186014733
2025-03-22 15:40:08.718,1.0257725768292656
2025-03-22 15:40:08.718,-0.7874484854252056
2025-03-22 15:40:08.719,-0.6163287352412702
2025-03-22 15:40:08.719,1.1140414721493752
2025-03-22 15:40:08.719,1.5408544572519443
2025-03-22 15:40:08.728,-0.6622337679542255
2025-03-22 15:40:08.728,-3.210441803918287
2025-03-22 15:40:08.728,-2.748696336062873
2025-03-22 15:40:08.729,0.9390370621403343
2025-03-22 15:40:08.738,4.1867078220826555
2025-03-22 15:40:08.738,3.442384166034258
2025-03-22 15:40:08.738,-0.5183105366991345
2025-03-22 15:40:08.738,-3.425453999408059
2025-03-22 15:40:08.738,-2.607917497518528
2025-03-22 15:40:08.748,0.061696154051202184
2025-03-22 15:40:08.748,1.1298576040014043
2025-03-22 15:40:08.748,0.24554730879977746
2025-03-22 15:40:08.748,0.04993429507676647
2025-03-22 15:40:08.749,1.6424598461211108
2025-03-22 15:40:08.758,2.4880681362391233
2025-03-22 15:40:08.758,0.16386335268802193
2025-03-22 15:40:08.758,-3.436520781892261
2025-03-22 15:40:08.758,-3.9724596398648044
2025-03-22 15:40:08.758,-0.4225769151371053
2025-03-22 15:40:08.768,3.3369575995420018
2025-03-22 15:40:08.768,3.403497059986507
2025-03-22 15:40:08.768,0.4366365036415636
2025-03-22 15:40:08.768,-1.8744514500739125
2025-03-22 15:40:08.768,-1.5776681376637331
2025-03-22 15:40:08.778,-0.009590733099705095
2025-03-22 15:40:08.778,0.7479808148431796
2025-03-22 15:40:08.778,0.16388056204154575
2025-03-22 15:40:08.778,-0.9473783504441785
2025-03-22 15:40:08.779,-1.3493061737514793
2025-03-22 15:40:08.788,-0.018393712693636176
2025-03-22 15:40:08.788,2.509085988660656
2025-03-22 15:40:08.788,3.381831818639768
2025-03-22 15:40:08.788,0.2604302176998832
2025-03-22 15:40:08.788,-4.491002713952793
2025-03-22 15:40:08.798,-5.1026267654375035
2025-03-22 15:40:08.798,0.340072544413908
2025-03-22 15:40:08.798,6.133121401228
2025-03-22 15:40:08.798,5.220084538225195
2025-03-22 15:40:08.798,-1.7391892732523784
2025-03-22 15:40:08.808,-6.625867820792588
2025-03-22 15:40:08.808,-3.730309420324888
2025-03-22 15:40:08.808,3.2099643442351096
2025-03-22 15:40:08.808,5.7518418483256095
2025-03-22 15:40:08.808,1.2068621847693242
2025-03-22 15:40:08.818,-4.338172234179882
2025-03-22 15:40:08.818,-3.9691965884855325
2025-03-22 15:40:08.818,1.4515066193371027
2025-03-22 15:40:08.818,4.818231913991519
2025-03-22 15:40:08.818,2.040987644487842
2025-03-22 15:40:08.827,-3.066180649996326
2025-03-22 15:40:08.828,-4.169586672404084
2025-03-22 15:40:08.828,-0.4860546370723744
2025-03-22 15:40:08.828,2.9281154051897653
2025-03-22 15:40:08.828,2.233404880993733
2025-03-22 15:40:08.838,-0.6438545276242081
2025-03-22 15:40:08.838,-1.479523233785898
2025-03-22 15:40:08.838,0.3350552682017812
2025-03-22 15:40:08.838,1.515861841244586
2025-03-22 15:40:08.838,-0.07665650679421404
2025-03-22 15:40:08.846,-2.401661714155208
2025-03-22 15:40:08.846,-2.115556164648347
2025-03-22 15:40:08.847,0.8656381425995985
2025-03-22 15:40:08.847,3.1812978223203228
2025-03-22 15:40:08.847,2.2022829527359655
2025-03-22 15:40:08.856,-0.8953699526964555
2025-03-22 15:40:08.856,-2.755648888769768
2025-03-22 15:40:08.856,-1.7307548083455464
2025-03-22 15:40:08.857,0.7032584691714395
2025-03-22 15:40:08.866,2.02655639613398
2025-03-22 15:40:08.866,1.1857842457807888
2025-03-22 15:40:08.866,-0.8909808190416392
2025-03-22 15:40:08.866,-2.2333695559336633
2025-03-22 15:40:08.867,-1.1975965020935668
2025-03-22 15:40:08.876,1.8519451501711635
2025-03-22 15:40:08.876,3.8970402624049196
2025-03-22 15:40:08.876,1.8464701683619418
2025-03-22 15:40:08.876,-3.2745555307554675
2025-03-22 15:40:08.877,-6.137233224521245
2025-03-22 15:40:08.886,-2.7798227143098813
2025-03-22 15:40:08.886,4.158087091616376
2025-03-22 15:40:08.886,7.611228987377138
2025-03-22 15:40:08.886,3.7382063722651067
2025-03-22 15:40:08.886,-3.782253461652961
2025-03-22 15:40:08.896,-7.665759180400902
2025-03-22 15:40:08.896,-4.525871432146129
2025-03-22 15:40:08.896,2.208061364226155
2025-03-22 15:40:08.897,6.369677415819634
2025-03-22 15:40:08.897,4.973902343350734
2025-03-22 15:40:08.906,0.018343649319380817
2025-03-22 15:40:08.906,-4.284168929422664
2025-03-22 15:40:08.906,-5.036603246307529
2025-03-22 15:40:08.906,-2.15966967924924
2025-03-22 15:40:08.906,2.078021987069295
2025-03-22 15:40:08.916,4.621847018533789
2025-03-22 15:40:08.916,3.656985343836096
2025-03-22 15:40:08.916,-0.04513936301212104
2025-03-22 15:40:08.916,-3.661782816018156
2025-03-22 15:40:08.917,-4.41764803437784
2025-03-22 15:40:08.926,-1.6384554768436956
2025-03-22 15:40:08.926,2.557354803869583
2025-03-22 15:40:08.926,4.560538447719503
2025-03-22 15:40:08.926,2.348170631630993
2025-03-22 15:40:08.926,-2.026636938969473
2025-03-22 15:40:08.936,-3.973285640744205
2025-03-22 15:40:08.936,-1.4612636235047354
2025-03-22 15:40:08.936,2.2660393998867123
2025-03-22 15:40:08.936,2.5646611822905694
2025-03-22 15:40:08.937,-0.6146226761424519
2025-03-22 15:40:08.946,-2.695405022235349
2025-03-22 15:40:08.946,-0.7364403951459761
2025-03-22 15:40:08.946,2.522851155975146
2025-03-22 15:40:08.946,2.4745686530854463
2025-03-22 15:40:08.946,-0.9454805551394915
2025-03-22 15:40:08.956,-3.1409216121361
2025-03-22 15:40:08.956,-1.1675478742885188
2025-03-22 15:40:08.956,2.2513350696412715
2025-03-22 15:40:08.956,2.458596667930802
2025-03-22 15:40:08.956,-0.8178951537721675
2025-03-22 15:40:08.966,-3.1035931303684565
2025-03-22 15:40:08.966,-1.2032419318056966
2025-03-22 15:40:08.966,2.4757956804255388
2025-03-22 15:40:08.966,3.1025474933170916
2025-03-22 15:40:08.966,-0.12043426790830333
2025-03-22 15:40:08.976,-2.9181159700726473
2025-03-22 15:40:08.976,-1.7514428335244083
2025-03-22 15:40:08.976,1.4464891863908922
2025-03-22 15:40:08.976,2.0588807708568155
2025-03-22 15:40:08.976,-0.7810309135962491
2025-03-22 15:40:08.984,-2.900416662777929
2025-03-22 15:40:08.984,-0.7161407089823798
2025-03-22 15:40:08.985,3.63958779616165
2025-03-22 15:40:08.985,4.517479726694391
2025-03-22 15:40:08.985,-0.19333902799305056
2025-03-22 15:40:08.994,-5.857888316984368
2025-03-22 15:40:08.994,-5.980618039636745
2025-03-22 15:40:08.995,0.3067918146457711
2025-03-22 15:40:08.995,6.857227624492267
2025-03-22 15:40:08.995,6.9005134968362
2025-03-22 15:40:09.004,0.19908941263730856
2025-03-22 15:40:09.004,-6.657463099942747
2025-03-22 15:40:09.005,-7.004784235334921
2025-03-22 15:40:09.005,-0.8210081758058903
2025-03-22 15:40:09.014,5.518525875158679
2025-03-22 15:40:09.014,6.0287714747660335
2025-03-22 15:40:09.014,1.0706598188019694
2025-03-22 15:40:09.015,-3.766142950586792
2025-03-22 15:40:09.015,-4.0390870041096
2025-03-22 15:40:09.024,-0.7017044956113465
2025-03-22 15:40:09.024,1.9904852668014286
2025-03-22 15:40:09.024,1.6430156692022444
2025-03-22 15:40:09.024,-0.18948291231976624
2025-03-22 15:40:09.025,-0.7567042365014217
2025-03-22 15:40:09.034,0.31869769151576055
2025-03-22 15:40:09.034,1.0680870189468041
2025-03-22 15:40:09.034,0.21240529770237188
2025-03-22 15:40:09.035,-1.1559590253708485
2025-03-22 15:40:09.035,-1.3171647660408903
2025-03-22 15:40:09.044,-0.2559833403633698
2025-03-22 15:40:09.044,0.7097862651195515
2025-03-22 15:40:09.044,0.9370672882586475
2025-03-22 15:40:09.044,0.8235633744647584
2025-03-22 15:40:09.045,0.4616838239486591
2025-03-22 15:40:09.054,-0.5684158875235584
2025-03-22 15:40:09.054,-1.7720424660746819
2025-03-22 15:40:09.054,-1.5448461298286489
2025-03-22 15:40:09.055,0.6543608037351369
2025-03-22 15:40:09.055,2.795481231759972
2025-03-22 15:40:09.064,2.179421748147693
2025-03-22 15:40:09.064,-1.1397053406684503
2025-03-22 15:40:09.064,-3.749680619276007
2025-03-22 15:40:09.064,-2.3986197702662477
2025-03-22 15:40:09.065,1.9918768569365812
2025-03-22 15:40:09.074,4.680158972436171
2025-03-22 15:40:09.074,2.2396817023724087
2025-03-22 15:40:09.074,-3.0696887787281035
2025-03-22 15:40:09.074,-5.3618531693613924
2025-03-22 15:40:09.074,-1.8845705465960403
2025-03-22 15:40:09.084,3.5896688406858575
2025-03-22 15:40:09.084,5.143155572671534
2025-03-22 15:40:09.084,1.5412555124678826
2025-03-22 15:40:09.084,-2.821711232094672
2025-03-22 15:40:09.084,-3.5172181209236593
2025-03-22 15:40:09.094,-0.9095020485874614
2025-03-22 15:40:09.094,1.2640423975549022
2025-03-22 15:40:09.094,0.861356199729219
2025-03-22 15:40:09.094,-0.5217971234519854
2025-03-22 15:40:09.095,-0.2391435911759932
2025-03-22 15:40:09.104,1.7451676707407398
2025-03-22 15:40:09.104,2.6635132341473913
2025-03-22 15:40:09.104,0.3780140022803674
2025-03-22 15:40:09.104,-3.501888958528188
2025-03-22 15:40:09.104,-4.707021128541055
2025-03-22 15:40:09.114,-1.0865409141209121
2025-03-22 15:40:09.114,4.19277036614084
2025-03-22 15:40:09.114,5.543747776369494
2025-03-22 15:40:09.114,1.391058356760183
2025-03-22 15:40:09.114,-3.702445639550407
2025-03-22 15:40:09.124,-4.412836716587545
2025-03-22 15:40:09.124,-0.9247906417623875
2025-03-22 15:40:09.124,2.018713256052802
2025-03-22 15:40:09.124,1.6534767903200516
2025-03-22 15:40:09.124,0.14765303083749023
2025-03-22 15:40:09.132,0.3628799929030699
2025-03-22 15:40:09.133,1.3214370429071387
2025-03-22 15:40:09.133,0.21773228712802972
2025-03-22 15:40:09.133,-2.493089016555201
2025-03-22 15:40:09.133,-3.1324633605821117
2025-03-22 15:40:09.142,-0.12974039585716016
2025-03-22 15:40:09.142,3.3950105095793
2025-03-22 15:40:09.143,3.5802094679061476
2025-03-22 15:40:09.143,0.45619562687773085
2025-03-22 15:40:09.143,-2.762284235314965
2025-03-22 15:40:09.152,-3.549689757266395
2025-03-22 15:40:09.152,-1.7471437597190258
2025-03-22 15:40:09.153,1.357279141172135
2025-03-22 15:40:09.153,3.748840384840938
2025-03-22 15:40:09.153,3.2662603149680347
2025-03-22 15:40:09.162,-0.34466988811382204
2025-03-22 15:40:09.162,-3.9364543913065124
2025-03-22 15:40:09.163,-3.625895733787281
2025-03-22 15:40:09.163,0.3503707703679225
2025-03-22 15:40:09.172,3.325276740265454
2025-03-22 15:40:09.172,2.000739838704904
2025-03-22 15:40:09.173,-1.1592442990739573
2025-03-22 15:40:09.173,-1.4648498173373905
2025-03-22 15:40:09.173,1.1639769629982917
2025-03-22 15:40:09.182,2.0178556646970502
2025-03-22 15:40:09.182,-1.230776520358
2025-03-22 15:40:09.182,-4.376479921330618
2025-03-22 15:40:09.183,-2.2022362989230166
2025-03-22 15:40:09.183,3.6791652228671157
2025-03-22 15:40:09.192,6.080098295864898
2025-03-22 15:40:09.192,1.5440306601880085
2025-03-22 15:40:09.192,-4.849180688211948
2025-03-22 15:40:09.192,-5.75322411041144
2025-03-22 15:40:09.193,-0.5133937425477073
2025-03-22 15:40:09.202,4.611765394704614
2025-03-22 15:40:09.202,4.305145901623303
2025-03-22 15:40:09.202,-0.24392162312748777
2025-03-22 15:40:09.202,-3.8304657699272413
2025-03-22 15:40:09.202,-3.2135049977764694
2025-03-22 15:40:09.212,0.37399454596368326
2025-03-22 15:40:09.212,3.3700573597148007
2025-03-22 15:40:09.212,3.221241011743789
2025-03-22 15:40:09.212,0.11506090023037555
2025-03-22 15:40:09.213,-3.334224304513584
2025-03-22 15:40:09.222,-4.021116701464195
2025-03-22 15:40:09.222,-0.987613246987509
2025-03-22 15:40:09.222,3.3041424106898436
2025-03-22 15:40:09.222,4.8628352689306285
2025-03-22 15:40:09.223,1.9896602661199145
2025-03-22 15:40:09.232,-2.8305236821587383
2025-03-22 15:40:09.232,-5.194191988523391
2025-03-22 15:40:09.232,-2.9782906446771684
2025-03-22 15:40:09.233,1.758556051990283
2025-03-22 15:40:09.233,4.846383970515629
2025-03-22 15:40:09.242,3.789645472765087
2025-03-22 15:40:09.242,-0.2614024726300628
2025-03-22 15:40:09.242,-3.83110466915917
2025-03-22 15:40:09.242,-4.190942053698138
2025-03-22 15:40:09.242,-1.386487559653833
2025-03-22 15:40:09.252,2.2171257190646854
2025-03-22 15:40:09.252,3.9793303615863818
2025-03-22 15:40:09.252,2.8062588597860745
2025-03-22 15:40:09.252,-0.28232227118308545
2025-03-22 15:40:09.252,-2.9636911488785675
2025-03-22 15:40:09.262,-3.363364806852888
2025-03-22 15:40:09.262,-1.4837625300764348
2025-03-22 15:40:09.262,1.076065361856064
2025-03-22 15:40:09.262,2.7061867445681638
2025-03-22 15:40:09.263,2.729514606760307
2025-03-22 15:40:09.272,1.1344469108932882
2025-03-22 15:40:09.272,-1.4635256892089974
2025-03-22 15:40:09.272,-3.337896307054014
2025-03-22 15:40:09.272,-2.519254944248923
2025-03-22 15:40:09.273,0.7444478271740747
2025-03-22 15:40:09.280,3.2799424644055293
2025-03-22 15:40:09.280,2.255634358100008
2025-03-22 15:40:09.281,-1.0929432342255097
2025-03-22 15:40:09.281,-2.628576246440283
2025-03-22 15:40:09.281,-0.5537996803287337
2025-03-22 15:40:09.290,2.1461589347695886
2025-03-22 15:40:09.290,1.6412684834188598
2025-03-22 15:40:09.291,-1.5496075647321983
2025-03-22 15:40:09.291,-3.1272193977068095
2025-03-22 15:40:09.291,-0.6528045413861008
2025-03-22 15:40:09.300,3.1251274250380834
2025-03-22 15:40:09.300,3.541693709157642
2025-03-22 15:40:09.301,-0.22208042328815805
2025-03-22 15:40:09.301,-3.9717603270593194
2025-03-22 15:40:09.301,-3.352985543270214
2025-03-22 15:40:09.310,1.0252736546376608
2025-03-22 15:40:09.310,4.230656808897469
2025-03-22 15:40:09.310,2.6828277675775745
2025-03-22 15:40:09.311,-1.7335032772895613
2025-03-22 15:40:09.320,-3.9191393954932052
2025-03-22 15:40:09.320,-1.5539740853010815
2025-03-22 15:40:09.320,2.2823442389684443
2025-03-22 15:40:09.320,3.0242831985131042
2025-03-22 15:40:09.321,0.17526968953665506
2025-03-22 15:40:09.330,-2.4640113289014085
2025-03-22 15:40:09.330,-1.8546678024348644
2025-03-22 15:40:09.330,0.7839003102991602
2025-03-22 15:40:09.330,2.1656435336526236
2025-03-22 15:40:09.331,1.080440338919348
2025-03-22 15:40:09.340,-0.8902316590849388
2025-03-22 15:40:09.340,-1.8214134114769343
2025-03-22 15:40:09.340,-1.1828603441404488
2025-03-22 15:40:09.340,0.4421972364164091
2025-03-22 15:40:09.341,1.9763760166881814
2025-03-22 15:40:09.350,2.1061936238428207
2025-03-22 15:40:09.350,0.1707421534624719
2025-03-22 15:40:09.350,-2.5774743304720835
2025-03-22 15:40:09.350,-3.4156596105852812
2025-03-22 15:40:09.351,-0.8754704930288941
2025-03-22 15:40:09.360,3.0680637351387614
2025-03-22 15:40:09.360,4.455134858369964
2025-03-22 15:40:09.360,1.5093059665188915
2025-03-22 15:40:09.360,-3.061431544632655
2025-03-22 15:40:09.360,-4.623812809746726
2025-03-22 15:40:09.370,-1.5918028918832845
2025-03-22 15:40:09.370,2.718533349754909
2025-03-22 15:40:09.370,3.7166354573825693
2025-03-22 15:40:09.370,0.7346086280774116
2025-03-22 15:40:09.370,-2.3229763524539764
2025-03-22 15:40:09.380,-1.8750265254161746
2025-03-22 15:40:09.380,0.876183236447202
2025-03-22 15:40:09.380,1.7687023654477165
2025-03-22 15:40:09.380,-0.49174753931726645
2025-03-22 15:40:09.380,-2.4802674530337616
2025-03-22 15:40:09.388,-0.9181400926859766
2025-03-22 15:40:09.388,2.511133630907163
2025-03-22 15:40:09.388,3.276835183940953
2025-03-22 15:40:09.389,0.14535739661678587
2025-03-22 15:40:09.389,-3.177755423299396
2025-03-22 15:40:09.398,-2.9562528565277244
2025-03-22 15:40:09.399,0.045365456290856865
2025-03-22 15:40:09.399,2.2011839588839917
2025-03-22 15:40:09.399,1.8164751286380265
2025-03-22 15:40:09.399,0.40890720752365617
2025-03-22 15:40:09.408,-0.3110569884236679
2025-03-22 15:40:09.408,-0.5948313244607358
2025-03-22 15:40:09.408,-1.1674859139964746
2025-03-22 15:40:09.409,-1.339237118586551
2025-03-22 15:40:09.418,-0.08879621783665251
2025-03-22 15:40:09.418,1.7659191571110358
2025-03-22 15:40:09.418,2.088324370325329
2025-03-22 15:40:09.419,0.19992089185266654
2025-03-22 15:40:09.419,-1.9962708326732708
2025-03-22 15:40:09.428,-2.112995183958346
2025-03-22 15:40:09.428,0.06793683573750117
2025-03-22 15:40:09.428,2.336036181286792
2025-03-22 15:40:09.428,2.1668806851376283
2025-03-22 15:40:09.429,-0.768133191844934
2025-03-22 15:40:09.438,-3.7248095740457887
2025-03-22 15:40:09.438,-3.006896540023805
2025-03-22 15:40:09.438,1.8450465423425009
2025-03-22 15:40:09.438,6.215113832033533
2025-03-22 15:40:09.439,4.613034630492583
2025-03-22 15:40:09.448,-2.579607873989064
2025-03-22 15:40:09.448,-8.270500668297359
2025-03-22 15:40:09.448,-6.092122939047761
2025-03-22 15:40:09.448,2.2035089234516523
2025-03-22 15:40:09.449,8.385343430017715
2025-03-22 15:40:09.458,6.569627676994148
2025-03-22 15:40:09.458,-0.9323943734930926
2025-03-22 15:40:09.458,-6.714908908224497
2025-03-22 15:40:09.458,-5.963290628849321
2025-03-22 15:40:09.459,-0.39618613792477403
2025-03-22 15:40:09.468,4.486990035119764
2025-03-22 15:40:09.468,4.827237845283807
2025-03-22 15:40:09.468,1.2068328985749635
2025-03-22 15:40:09.468,-2.713309863040914
2025-03-22 15:40:09.468,-3.6390597591753258
2025-03-22 15:40:09.478,-1.2485531893081308
2025-03-22 15:40:09.478,1.830521626069474
2025-03-22 15:40:09.478,2.560972613521851
2025-03-22 15:40:09.478,0.4542526602407444
2025-03-22 15:40:09.478,-1.9072659467199498
2025-03-22 15:40:09.486,-1.6779998652773418
2025-03-22 15:40:09.486,0.8927575886918832
2025-03-22 15:40:09.487,2.5882087759263324
2025-03-22 15:40:09.487,1.0973264401926561
2025-03-22 15:40:09.487,-2.003093020287892
2025-03-22 15:40:09.498,-3.0888808641753442
2025-03-22 15:40:09.498,-0.9287638986808939
2025-03-22 15:40:09.498,1.978765578985134
2025-03-22 15:40:09.498,2.7032079882555484
2025-03-22 15:40:09.499,1.2028870190706478
2025-03-22 15:40:09.506,-0.5074015671465204
2025-03-22 15:40:09.506,-1.3803899005441038
2025-03-22 15:40:09.507,-1.868157704022655
2025-03-22 15:40:09.507,-1.8356524484355614
2025-03-22 15:40:09.516,-0.15293568812755096
2025-03-22 15:40:09.516,2.762244278850965
2025-03-22 15:40:09.516,3.887616203136202
2025-03-22 15:40:09.516,1.0391270475843868
2025-03-22 15:40:09.517,-3.4422045311154874
2025-03-22 15:40:09.526,-4.666967903838615
2025-03-22 15:40:09.526,-1.1071820974628537
2025-03-22 15:40:09.526,3.333198536319894
2025-03-22 15:40:09.526,4.006116657703973
2025-03-22 15:40:09.526,0.8333214699051505
2025-03-22 15:40:09.536,-2.3206939217986817
2025-03-22 15:40:09.536,-2.5748633314903913
2025-03-22 15:40:09.536,-0.6720304293930512
2025-03-22 15:40:09.536,1.0188002988266112
2025-03-22 15:40:09.537,1.377537937453174
2025-03-22 15:40:09.546,0.7799266909087884
2025-03-22 15:40:09.546,-0.22109628605093323
2025-03-22 15:40:09.546,-1.1707468515345054
2025-03-22 15:40:09.546,-1.1913576689728267
2025-03-22 15:40:09.547,0.30976485648567015
2025-03-22 15:40:09.556,2.131357131949371
2025-03-22 15:40:09.556,1.843602772199771
2025-03-22 15:40:09.556,-1.1255022900753642
2025-03-22 15:40:09.556,-3.80862386264333
2025-03-22 15:40:09.556,-2.5907255434811107
2025-03-22 15:40:09.566,2.130703307441116
2025-03-22 15:40:09.566,5.480799638763806
2025-03-22 15:40:09.566,3.259536236845242
2025-03-22 15:40:09.566,-2.880380728473579
2025-03-22 15:40:09.566,-6.585672730142822
2025-03-22 15:40:09.576,-3.624991931204494
2025-03-22 15:40:09.576,3.205419114485872
2025-03-22 15:40:09.576,6.915210341115841
2025-03-22 15:40:09.576,3.777947084833929
2025-03-22 15:40:09.576,-2.959944390732292
2025-03-22 15:40:09.586,-6.759644260798375
2025-03-22 15:40:09.586,-4.266313460231906
2025-03-22 15:40:09.586,1.9943553954708215
2025-03-22 15:40:09.586,6.421011742713897
2025-03-22 15:40:09.587,5.315632528228065
2025-03-22 15:40:09.594,-0.23595038865811968
2025-03-22 15:40:09.594,-5.528063492601732
2025-03-22 15:40:09.595,-6.237990583427565
2025-03-22 15:40:09.595,-1.9785657436128425
2025-03-22 15:40:09.604,3.5463799622081242
2025-03-22 15:40:09.604,5.885754202657393
2025-03-22 15:40:09.605,3.632691438386103
2025-03-22 15:40:09.605,-0.7795409038236935
2025-03-22 15:40:09.605,-3.7376362218470467
2025-03-22 15:40:09.614,-3.663300304476797
2025-03-22 15:40:09.614,-1.6608136052303675
2025-03-22 15:40:09.614,0.4568291537925367
2025-03-22 15:40:09.615,1.9665747318624924
2025-03-22 15:40:09.615,2.8298129305985453
2025-03-22 15:40:09.624,2.4583654424966763
2025-03-22 15:40:09.624,0.2535951211176329
2025-03-22 15:40:09.624,-2.595102057913676
2025-03-22 15:40:09.624,-3.410359642505611
2025-03-22 15:40:09.625,-1.1855000390513286
2025-03-22 15:40:09.634,1.5640546132992696
2025-03-22 15:40:09.634,1.6755872578323388
2025-03-22 15:40:09.634,-0.3330564179622991
2025-03-22 15:40:09.635,-0.7826506133009172
2025-03-22 15:40:09.635,1.7853029757644818
2025-03-22 15:40:09.635,3.801112460624129
2025-03-22 15:40:09.644,1.1543252034729325
2025-03-22 15:40:09.644,-4.564053845319957
2025-03-22 15:40:09.645,-6.974349269130061
2025-03-22 15:40:09.645,-2.614133268704323
2025-03-22 15:40:09.654,4.464675237653389
2025-03-22 15:40:09.654,7.326306029451289
2025-03-22 15:40:09.654,3.9634921223540363
2025-03-22 15:40:09.654,-1.4587040513794909
2025-03-22 15:40:09.655,-4.296907818832924
2025-03-22 15:40:09.664,-3.8507965803792796
2025-03-22 15:40:09.664,-1.9779309477567826
2025-03-22 15:40:09.664,0.03747993968356039
2025-03-22 15:40:09.665,1.8185954478003972
2025-03-22 15:40:09.665,2.81187937938824
2025-03-22 15:40:09.674,2.565121940632302
2025-03-22 15:40:09.674,1.3736534295547593
2025-03-22 15:40:09.674,-0.32487943622042026
2025-03-22 15:40:09.675,-2.3681766429252127
2025-03-22 15:40:09.675,-3.9032147787525
2025-03-22 15:40:09.684,-3.184005607840261
2025-03-22 15:40:09.684,0.28985325976486553
2025-03-22 15:40:09.684,4.079144602040642
2025-03-22 15:40:09.684,4.782163165095178
2025-03-22 15:40:09.685,1.7998263717828258
2025-03-22 15:40:09.694,-1.9637640449456057
2025-03-22 15:40:09.694,-3.411875903071681
2025-03-22 15:40:09.695,-2.3119989387387054
2025-03-22 15:40:09.695,-0.6094855343222682
2025-03-22 15:40:09.695,0.34700204327593165
2025-03-22 15:40:09.704,0.893016624213016
2025-03-22 15:40:09.704,1.690356969764796
2025-03-22 15:40:09.704,2.2978195147634266
2025-03-22 15:40:09.704,1.5404479929424004
2025-03-22 15:40:09.705,-0.8661335161242896
2025-03-22 15:40:09.714,-3.3509771051785284
2025-03-22 15:40:09.714,-3.5534801452866662
2025-03-22 15:40:09.714,-0.7518248244075195
2025-03-22 15:40:09.715,2.904877996661162
2025-03-22 15:40:09.715,4.163094798395395
2025-03-22 15:40:09.724,1.8985739517161637
2025-03-22 15:40:09.724,-1.7145937890097058
2025-03-22 15:40:09.724,-3.4399946370687564
2025-03-22 15:40:09.724,-2.106403393303092
2025-03-22 15:40:09.724,0.6493054485791536
2025-03-22 15:40:09.734,2.328736576611065
2025-03-22 15:40:09.734,1.796233007329274
2025-03-22 15:40:09.734,-0.16482844181640216
2025-03-22 15:40:09.735,-1.8072713400875497
2025-03-22 15:40:09.735,-1.7723263996848628
2025-03-22 15:40:09.744,-0.04991519543162265
2025-03-22 15:40:09.744,1.939194156154637
2025-03-22 15:40:09.744,2.3815058846325945
2025-03-22 15:40:09.744,0.6582170220728903
2025-03-22 15:40:09.744,-1.9043287141206497
2025-03-22 15:40:09.754,-3.0679839270915528
2025-03-22 15:40:09.754,-1.7322844269779591
2025-03-22 15:40:09.754,1.010687489419918
2025-03-22 15:40:09.755,2.9240850004951864
2025-03-22 15:40:09.755,2.6345896938823823
2025-03-22 15:40:09.762,0.5761914041955223
2025-03-22 15:40:09.763,-1.6964964639506281
2025-03-22 15:40:09.763,-2.7426203151309196
2025-03-22 15:40:09.763,-2.0059537834843244
2025-03-22 15:40:09.763,-0.007525477610001621
2025-03-22 15:40:09.774,1.9385812923846044
2025-03-22 15:40:09.774,2.5157778793090015
2025-03-22 15:40:09.774,1.3502359453330375
2025-03-22 15:40:09.774,-0.6640618931815887
2025-03-22 15:40:09.774,-2.039196510829547
2025-03-22 15:40:09.782,-1.8439700780228114
2025-03-22 15:40:09.782,-0.3932254546647673
2025-03-22 15:40:09.783,1.073925859384845
2025-03-22 15:40:09.783,1.47997654153419
2025-03-22 15:40:09.783,0.8066821126668494
2025-03-22 15:40:09.792,-0.10522757147563278
2025-03-22 15:40:09.792,-0.5940082706110951
2025-03-22 15:40:09.792,-0.70269556003701
2025-03-22 15:40:09.793,-0.623171110393324
2025-03-22 15:40:09.802,-0.21359043783520565
2025-03-22 15:40:09.802,0.5058736963127903
2025-03-22 15:40:09.803,0.9177560585208134
2025-03-22 15:40:09.803,0.5155273851855436
2025-03-22 15:40:09.803,-0.314124846866344
2025-03-22 15:40:09.812,-0.810391398497468
2025-03-22 15:40:09.812,-0.7275397920727842
2025-03-22 15:40:09.813,-0.14233973916599144
2025-03-22 15:40:09.813,0.9162367114549056
2025-03-22 15:40:09.813,1.7526914187116538
2025-03-22 15:40:09.822,0.8495714909375562
2025-03-22 15:40:09.822,-1.944921623246883
2025-03-22 15:40:09.822,-3.7039101798363165
2025-03-22 15:40:09.823,-1.2940867965947533
2025-03-22 15:40:09.823,3.6898684514524356
2025-03-22 15:40:09.832,5.448230774650006
2025-03-22 15:40:09.832,1.0309929157640592
2025-03-22 15:40:09.833,-5.054954491818226
2025-03-22 15:40:09.833,-5.74875996114772
2025-03-22 15:40:09.833,-0.17286572528289051
2025-03-22 15:40:09.842,5.210992106827402
2025-03-22 15:40:09.842,4.579448155043152
2025-03-22 15:40:09.842,-0.5740265849488599
2025-03-22 15:40:09.843,-4.18604447640613
2025-03-22 15:40:09.843,-3.144390111786641
2025-03-22 15:40:09.852,0.2900454644510267
2025-03-22 15:40:09.852,2.6069226565178534
2025-03-22 15:40:09.852,2.70084990409819
2025-03-22 15:40:09.853,1.160335330021863
2025-03-22 15:40:09.853,-1.3048550351048434
2025-03-22 15:40:09.862,-3.331647232435291
2025-03-22 15:40:09.862,-2.807543233445359
2025-03-22 15:40:09.862,0.6766976557339806
2025-03-22 15:40:09.863,4.140821915926304
2025-03-22 15:40:09.863,3.833446967272917
2025-03-22 15:40:09.872,-0.4009663109972159
2025-03-22 15:40:09.872,-4.5019394667356085
2025-03-22 15:40:09.872,-4.315258910637631
2025-03-22 15:40:09.872,0.07677198224624976
2025-03-22 15:40:09.873,4.382134461553335
2025-03-22 15:40:09.882,4.421720885706336
2025-03-22 15:40:09.882,0.34537958740391655
2025-03-22 15:40:09.882,-3.675114345776842
2025-03-22 15:40:09.882,-3.9552002821675107
2025-03-22 15:40:09.882,-0.916825056790076
2025-03-22 15:40:09.892,2.1147319042588455
2025-03-22 15:40:09.892,2.8441551035040216
2025-03-22 15:40:09.892,1.6878306721596372
2025-03-22 15:40:09.893,0.08253530524984926
2025-03-22 15:40:09.893,-1.2836295340292234
2025-03-22 15:40:09.902,-2.178843238049931
2025-03-22 15:40:09.902,-2.0488438466825447
2025-03-22 15:40:09.902,-0.5312290184844157
2025-03-22 15:40:09.902,1.6356568316391633
2025-03-22 15:40:09.903,2.924616434519221
2025-03-22 15:40:09.910,2.2757861051796953
2025-03-22 15:40:09.910,-0.059712423689102456
2025-03-22 15:40:09.911,-2.594517775350305
2025-03-22 15:40:09.911,-3.3936182790134017
2025-03-22 15:40:09.920,-1.4791706370024758
2025-03-22 15:40:09.920,1.8506037365280728
2025-03-22 15:40:09.920,3.539781736475743
2025-03-22 15:40:09.921,1.715625628177436
2025-03-22 15:40:09.921,-1.7591235807809324
2025-03-22 15:40:09.930,-2.854943238219469
2025-03-22 15:40:09.930,-0.20773195701160735
2025-03-22 15:40:09.931,2.718166196051341
2025-03-22 15:40:09.931,1.746915871319769
2025-03-22 15:40:09.931,-2.319652003584506
2025-03-22 15:40:09.940,-4.201040424529728
2025-03-22 15:40:09.940,-0.824753018857739
2025-03-22 15:40:09.941,4.382953995916447
2025-03-22 15:40:09.941,5.362805465262937
2025-03-22 15:40:09.941,0.6345962692135131
2025-03-22 15:40:09.950,-4.946641164911523
2025-03-22 15:40:09.950,-5.616864663982441
2025-03-22 15:40:09.950,-0.8395742838213057
2025-03-22 15:40:09.951,4.352979628717538
2025-03-22 15:40:09.951,4.7694360353302905
2025-03-22 15:40:09.960,0.4322620065615989
2025-03-22 15:40:09.960,-3.674454929447128
2025-03-22 15:40:09.961,-3.190626949041855
2025-03-22 15:40:09.961,0.8674031223833314
2025-03-22 15:40:09.961,3.5463315217606968
2025-03-22 15:40:09.970,1.7937776736831976
2025-03-22 15:40:09.970,-2.200917896894403
2025-03-22 15:40:09.970,-3.8333647812416225
2025-03-22 15:40:09.971,-1.3569019690021669
2025-03-22 15:40:09.971,2.527262296720072
2025-03-22 15:40:09.980,3.968991704336163
2025-03-22 15:40:09.980,1.866907254209503
2025-03-22 15:40:09.980,-1.6196460136512298
2025-03-22 15:40:09.981,-3.5381556832180836
2025-03-22 15:40:09.981,-2.608632919003511
2025-03-22 15:40:09.990,0.17272328097912226
2025-03-22 15:40:09.990,2.5923074845537437
2025-03-22 15:40:09.990,2.887251332377282
2025-03-22 15:40:09.990,0.9755666528088474
2025-03-22 15:40:09.991,-1.5282940827865152
2025-03-22 15:40:10.000,-2.5982092512296466
2025-03-22 15:40:10.000,-1.468957194957247
2025-03-22 15:40:10.000,0.7211160678295616
2025-03-22 15:40:10.001,2.0022978123774684
2025-03-22 15:40:10.001,1.422988005223226
2025-03-22 15:40:10.008,-0.16807861315739003
2025-03-22 15:40:10.009,-1.2019661849512278
2025-03-22 15:40:10.009,-1.0652824723133312
2025-03-22 15:40:10.009,-0.42797745389825737
2025-03-22 15:40:10.009,0.008574411507088741
2025-03-22 15:40:10.020,0.4649916516482448
2025-03-22 15:40:10.020,1.286055089140091
2025-03-22 15:40:10.020,1.6755877681464564
2025-03-22 15:40:10.020,0.34830544417219506
2025-03-22 15:40:10.021,-2.2627369522293423
2025-03-22 15:40:10.030,-3.5056070232526144
2025-03-22 15:40:10.030,-1.281675499563323
2025-03-22 15:40:10.030,2.9251259338635056
2025-03-22 15:40:10.030,4.890231409926616
2025-03-22 15:40:10.030,2.1046382922753137
2025-03-22 15:40:10.038,-3.0501882639847646
2025-03-22 15:40:10.039,-5.379707588512481
2025-03-22 15:40:10.039,-2.371925987896842
2025-03-22 15:40:10.039,2.8995531519836226
2025-03-22 15:40:10.039,4.9501131492529655
2025-03-22 15:40:10.048,1.8271367733316448
2025-03-22 15:40:10.048,-2.83010759128893
2025-03-22 15:40:10.049,-3.982249064263513
2025-03-22 15:40:10.049,-0.7976761654473006
2025-03-22 15:40:10.058,2.7748785787310504
2025-03-22 15:40:10.058,2.856388697639315
2025-03-22 15:40:10.059,-0.08468636232704002
2025-03-22 15:40:10.059,-2.3802558330305303
2025-03-22 15:40:10.059,-1.7317396472990443
2025-03-22 15:40:10.068,0.5086365625929514
2025-03-22 15:40:10.068,1.5460708377253662
2025-03-22 15:40:10.068,0.5664385228905316
2025-03-22 15:40:10.069,-0.7081225255782433
2025-03-22 15:40:10.069,-0.5125247422022438
2025-03-22 15:40:10.078,0.7303078256379698
2025-03-22 15:40:10.078,1.0868444169943536
2025-03-22 15:40:10.078,-0.29042047194092524
2025-03-22 15:40:10.079,-1.9315851228843004
2025-03-22 15:40:10.079,-1.7539972127109469
2025-03-22 15:40:10.088,0.3804023950133998
2025-03-22 15:40:10.088,2.400919722597232
2025-03-22 15:40:10.088,2.3286450320660106
2025-03-22 15:40:10.089,0.3358624150525506
2025-03-22 15:40:10.089,-1.6751490119096655
2025-03-22 15:40:10.098,-2.1418384904510206
2025-03-22 15:40:10.098,-1.1589537377220296
2025-03-22 15:40:10.098,0.08600929904472038
2025-03-22 15:40:10.099,0.7866985371851611
2025-03-22 15:40:10.099,1.1200155077550438
2025-03-22 15:40:10.106,1.383017108236839
2025-03-22 15:40:10.107,1.131871553539967
2025-03-22 15:40:10.107,-0.10235578478944624
2025-03-22 15:40:10.107,-1.5744289209034386
2025-03-22 15:40:10.107,-1.9225868895923122
2025-03-22 15:40:10.118,-1.051878063936367
2025-03-22 15:40:10.118,-0.17036751879573828
2025-03-22 15:40:10.118,0.32413238543102185
2025-03-22 15:40:10.118,1.4276630432060398
2025-03-22 15:40:10.119,3.117261787046398
2025-03-22 15:40:10.126,2.9910759046042603
2025-03-22 15:40:10.126,-0.7087132140905901
2025-03-22 15:40:10.127,-5.400209969847519
2025-03-22 15:40:10.127,-5.9252004885906455
2025-03-22 15:40:10.136,-0.7267767505763837
2025-03-22 15:40:10.137,5.514292189194598
2025-03-22 15:40:10.137,6.7853649743693
2025-03-22 15:40:10.137,2.2890157571634258
2025-03-22 15:40:10.137,-3.311841279571609
2025-03-22 15:40:10.146,-5.450507660978127
2025-03-22 15:40:10.146,-3.6478392777905104
2025-03-22 15:40:10.147,-0.14622078785954068
2025-03-22 15:40:10.147,3.074077084796688
2025-03-22 15:40:10.147,4.6730286206751135
2025-03-22 15:40:10.156,3.2470070401605415
2025-03-22 15:40:10.156,-1.1588616235844436
2025-03-22 15:40:10.156,-5.176244055143943
2025-03-22 15:40:10.157,-4.521187525995088
2025-03-22 15:40:10.157,0.6251748167491126
2025-03-22 15:40:10.166,4.757860992479605
2025-03-22 15:40:10.166,3.398753551375573
2025-03-22 15:40:10.166,-1.1899602741698938
2025-03-22 15:40:10.167,-3.055916737028235
2025-03-22 15:40:10.167,-0.5427831203183927
2025-03-22 15:40:10.176,1.861801542554627
2025-03-22 15:40:10.176,0.32530594164173
2025-03-22 15:40:10.177,-2.711904444942974
2025-03-22 15:40:10.177,-2.124271806579661
2025-03-22 15:40:10.177,2.3309523995222383
2025-03-22 15:40:10.186,5.192326034131871
2025-03-22 15:40:10.186,2.318806800558325
2025-03-22 15:40:10.186,-3.6644717099010506
2025-03-22 15:40:10.187,-6.312271280280576
2025-03-22 15:40:10.187,-2.7293599818762155
2025-03-22 15:40:10.196,3.3513406743501166
2025-03-22 15:40:10.196,5.859140921143978
2025-03-22 15:40:10.196,2.8555841006650664
2025-03-22 15:40:10.196,-1.947718577367177
2025-03-22 15:40:10.197,-3.8336675457727356
2025-03-22 15:40:10.204,-2.0920758267224038
2025-03-22 15:40:10.205,0.2728738835088784
2025-03-22 15:40:10.205,0.8779531585306305
2025-03-22 15:40:10.205,0.42390227126559876
2025-03-22 15:40:10.214,0.7116781238126768
2025-03-22 15:40:10.215,1.686692815634569
2025-03-22 15:40:10.215,1.5997749553503746
2025-03-22 15:40:10.215,-0.33814857990161135
2025-03-22 15:40:10.215,-2.6037492295988276
2025-03-22 15:40:10.224,-3.006795490027554
2025-03-22 15:40:10.225,-1.1026670828909102
2025-03-22 15:40:10.225,1.5050719704472324
2025-03-22 15:40:10.225,2.947271679912967
2025-03-22 15:40:10.225,2.5907622740533784
2025-03-22 15:40:10.225,0.8819751630847237
2025-03-22 15:40:10.234,-1.422879527134172
2025-03-22 15:40:10.235,-3.300514655053054
2025-03-22 15:40:10.235,-3.347447680093985
2025-03-22 15:40:10.235,-0.7935425620046378
2025-03-22 15:40:10.244,3.035386598157148
2025-03-22 15:40:10.244,5.042794709291804
2025-03-22 15:40:10.245,3.0016387066033294
2025-03-22 15:40:10.245,-1.956025255349075
2025-03-22 15:40:10.245,-5.789747507569933
2025-03-22 15:40:10.254,-4.927340596966466
2025-03-22 15:40:10.254,0.3451610270418002
2025-03-22 15:40:10.254,5.684498141630188
2025-03-22 15:40:10.255,6.286559809275639
2025-03-22 15:40:10.255,1.3578394711268742
2025-03-22 15:40:10.264,-4.791186714795837
2025-03-22 15:40:10.264,-6.566877150943922
2025-03-22 15:40:10.265,-2.487326103801987
2025-03-22 15:40:10.265,3.326601444327153
2025-03-22 15:40:10.265,5.386480266448064
2025-03-22 15:40:10.274,2.4085262834494934
2025-03-22 15:40:10.274,-1.829952083885601
2025-03-22 15:40:10.275,-3.059101192093521
2025-03-22 15:40:10.275,-1.0335819068366705
2025-03-22 15:40:10.275,1.0108930443002044
2025-03-22 15:40:10.284,0.670560791844566
2025-03-22 15:40:10.284,-0.9977236138202211
2025-03-22 15:40:10.284,-1.2870546288014832
2025-03-22 15:40:10.285,0.6393108369553269
2025-03-22 15:40:10.285,2.7416473024717467
2025-03-22 15:40:10.294,2.4347321695739383
2025-03-22 15:40:10.294,-0.517491007521143
2025-03-22 15:40:10.295,-3.5402373245244907
2025-03-22 15:40:10.295,-3.670057618149076
2025-03-22 15:40:10.295,-0.5254902347433682
2025-03-22 15:40:10.304,3.1791505740766834
2025-03-22 15:40:10.304,4.202193881454485
2025-03-22 15:40:10.304,1.788350960154633
2025-03-22 15:40:10.305,-1.880155096686316
2025-03-22 15:40:10.305,-3.856245025166805
2025-03-22 15:40:10.314,-2.7990378427499856
2025-03-22 15:40:10.314,0.3106800790369229
2025-03-22 15:40:10.314,3.057117323686545
2025-03-22 15:40:10.315,3.2643937243330585
2025-03-22 15:40:10.315,0.6907683063229548
2025-03-22 15:40:10.324,-2.4361738253948246
2025-03-22 15:40:10.324,-3.133488494330274
2025-03-22 15:40:10.324,-0.6493425288160417
2025-03-22 15:40:10.325,2.4323406654431587
2025-03-22 15:40:10.325,2.7542295154925247
2025-03-22 15:40:10.334,-0.08551083076164256
2025-03-22 15:40:10.334,-2.9537149239473286
2025-03-22 15:40:10.334,-2.615612237991546
2025-03-22 15:40:10.335,0.6585687876448338
2025-03-22 15:40:10.335,3.4118864040906383
2025-03-22 15:40:10.342,2.815135124855092
2025-03-22 15:40:10.343,-0.42730644580185984
2025-03-22 15:40:10.343,-3.169281874426607
2025-03-22 15:40:10.343,-3.1657240741314223
2025-03-22 15:40:10.343,-0.7803406564177815
2025-03-22 15:40:10.354,2.0440193651271787
2025-03-22 15:40:10.354,3.4871018856804286
2025-03-22 15:40:10.354,2.6245779561193388
2025-03-22 15:40:10.354,-0.27469356496878594
2025-03-22 15:40:10.354,-3.4667223376278424
2025-03-22 15:40:10.364,-4.3741556912780055
2025-03-22 15:40:10.364,-1.6918674295927105
2025-03-22 15:40:10.364,2.7879779926312693
2025-03-22 15:40:10.364,5.193265879570772
2025-03-22 15:40:10.364,3.2004391930193057
2025-03-22 15:40:10.372,-1.4485943056568178
2025-03-22 15:40:10.373,-4.578301528152471
2025-03-22 15:40:10.373,-3.7031317265365447
2025-03-22 15:40:10.373,-0.1368495502486993
2025-03-22 15:40:10.373,2.8182806838962264
2025-03-22 15:40:10.382,3.10176949090744
2025-03-22 15:40:10.382,1.232705633279119
2025-03-22 15:40:10.383,-0.8257218995378328
2025-03-22 15:40:10.383,-1.5959666887102162
2025-03-22 15:40:10.392,-1.1446916343766445
2025-03-22 15:40:10.392,-0.5857641220977156
2025-03-22 15:40:10.393,-0.5179501144784044
2025-03-22 15:40:10.393,-0.18677655879922633
2025-03-22 15:40:10.393,1.2079465680103643
2025-03-22 15:40:10.402,2.6107502717518383
2025-03-22 15:40:10.402,1.8331593503460988
2025-03-22 15:40:10.403,-1.2843370669200667
2025-03-22 15:40:10.403,-3.7176035068819333
2025-03-22 15:40:10.403,-2.5518190478968052
2025-03-22 15:40:10.412,1.1684283060400336
2025-03-22 15:40:10.412,3.347282699980511
2025-03-22 15:40:10.413,1.754338642885106
2025-03-22 15:40:10.413,-1.245103960689495
2025-03-22 15:40:10.413,-1.7824095121402115
2025-03-22 15:40:10.422,0.4298424628881254
2025-03-22 15:40:10.422,1.7105073356908018
2025-03-22 15:40:10.422,-0.4504235477575655
2025-03-22 15:40:10.423,-3.4356940604978514
2025-03-22 15:40:10.423,-2.4941354777328915
2025-03-22 15:40:10.432,2.6474894634802304
2025-03-22 15:40:10.432,6.3455286760500655
2025-03-22 15:40:10.432,3.477136993922584
2025-03-22 15:40:10.433,-3.8588306787887414
2025-03-22 15:40:10.433,-8.02541205101395
2025-03-22 15:40:10.442,-4.401045119176407
2025-03-22 15:40:10.442,3.3729222444215705
2025-03-22 15:40:10.442,7.608787516753132
2025-03-22 15:40:10.443,4.863278218912523
2025-03-22 15:40:10.443,-1.3192581206407166
2025-03-22 15:40:10.452,-5.176901465790224
2025-03-22 15:40:10.452,-4.43567182059549
2025-03-22 15:40:10.452,-1.1210320994884844
2025-03-22 15:40:10.453,1.6759096464598886
2025-03-22 15:40:10.453,2.676527958367876
2025-03-22 15:40:10.462,2.457752847928026
2025-03-22 15:40:10.462,1.6920592871623894
2025-03-22 15:40:10.462,0.1886578984939093
2025-03-22 15:40:10.462,-2.0810869585579566
2025-03-22 15:40:10.462,-3.710580847795042
2025-03-22 15:40:10.472,-2.7917516163483462
2025-03-22 15:40:10.472,0.5696110796429164
2025-03-22 15:40:10.472,3.618067323804715
2025-03-22 15:40:10.473,3.6509835550957077
2025-03-22 15:40:10.473,0.9540602232734304
2025-03-22 15:40:10.480,-1.7342172748125129
2025-03-22 15:40:10.480,-2.432178324272471
2025-03-22 15:40:10.481,-1.6309493520956027
2025-03-22 15:40:10.481,-0.7377407712477178
2025-03-22 15:40:10.490,0.01330021376375394
2025-03-22 15:40:10.490,1.2159236300646483
2025-03-22 15:40:10.491,2.4965329927585374
2025-03-22 15:40:10.491,2.3434554875545666
2025-03-22 15:40:10.491,0.05661974861802553
2025-03-22 15:40:10.500,-2.8430601843642678
2025-03-22 15:40:10.500,-3.7555544132238796
2025-03-22 15:40:10.501,-1.5666159859144229
2025-03-22 15:40:10.501,2.041287240543307
2025-03-22 15:40:10.501,3.9206555633931024
2025-03-22 15:40:10.510,2.379274759931253
2025-03-22 15:40:10.510,-1.0402889770599382
2025-03-22 15:40:10.511,-2.998836055060224
2025-03-22 15:40:10.511,-1.8530084946783558
2025-03-22 15:40:10.511,0.6556588203498454
2025-03-22 15:40:10.520,1.5982159550906743
2025-03-22 15:40:10.520,0.30274608726782265
2025-03-22 15:40:10.521,-1.1252163320047752
2025-03-22 15:40:10.521,-0.6160069874559689
2025-03-22 15:40:10.521,1.3096867792687719
2025-03-22 15:40:10.530,2.1940788868930308
2025-03-22 15:40:10.530,0.5705085954125018
2025-03-22 15:40:10.530,-2.184711683369032
2025-03-22 15:40:10.530,-3.1594913331979773
2025-03-22 15:40:10.531,-1.0798600150822935
2025-03-22 15:40:10.540,2.0973565322810197
2025-03-22 15:40:10.540,3.166192952255435
2025-03-22 15:40:10.540,1.2171347561397146
2025-03-22 15:40:10.541,-1.3873868922587054
2025-03-22 15:40:10.541,-1.9016469975885655
2025-03-22 15:40:10.548,-0.41510896100885725
2025-03-22 15:40:10.549,0.6613314111187286
2025-03-22 15:40:10.549,0.00373228183715249
2025-03-22 15:40:10.549,-0.9971478357250042
2025-03-22 15:40:10.558,-0.4450945866793317
2025-03-22 15:40:10.558,1.3103989435725207
2025-03-22 15:40:10.559,2.1504351241869513
2025-03-22 15:40:10.559,0.9457265467898902
2025-03-22 15:40:10.559,-1.198669300048994
2025-03-22 15:40:10.568,-2.4123429981054985
2025-03-22 15:40:10.568,-1.9032737675319606
2025-03-22 15:40:10.569,-0.18415901858354797
2025-03-22 15:40:10.569,1.7167178360160995
2025-03-22 15:40:10.569,2.745661942250143
2025-03-22 15:40:10.578,2.050652912566966
2025-03-22 15:40:10.578,-0.3834789370931585
2025-03-22 15:40:10.578,-3.0685400349919094
2025-03-22 15:40:10.579,-3.6248089651549225
2025-03-22 15:40:10.579,-0.9676384554712085
2025-03-22 15:40:10.588,2.939145496452853
2025-03-22 15:40:10.588,4.3434798113111
2025-03-22 15:40:10.588,1.552297472462393
2025-03-22 15:40:10.589,-2.7517172370357135
2025-03-22 15:40:10.589,-4.0281996821471235
2025-03-22 15:40:10.598,-0.9648393722129469
2025-03-22 15:40:10.598,2.84702493586148
2025-03-22 15:40:10.599,3.02645462063052
2025-03-22 15:40:10.599,-0.4224912642235561
2025-03-22 15:40:10.599,-3.180906513852452
2025-03-22 15:40:10.608,-1.893480870031441
2025-03-22 15:40:10.608,1.8015172838234115
2025-03-22 15:40:10.608,3.375436417980321
2025-03-22 15:40:10.609,0.9496905932599264
2025-03-22 15:40:10.609,-2.5574759748241864
2025-03-22 15:40:10.618,-3.123423446367699
2025-03-22 15:40:10.618,-0.3494566187477404
2025-03-22 15:40:10.619,2.490881299385442
2025-03-22 15:40:10.619,2.5642163583654423
2025-03-22 15:40:10.619,0.32973330590817196
2025-03-22 15:40:10.628,-1.782741426859223
2025-03-22 15:40:10.628,-2.203081130115327
2025-03-22 15:40:10.629,-1.022499540113881
2025-03-22 15:40:10.629,0.9241385186001028
2025-03-22 15:40:10.629,2.462888961476208
2025-03-22 15:40:10.638,2.1234309790671633
2025-03-22 15:40:10.638,-0.5191815657850357
2025-03-22 15:40:10.639,-3.298450670433491
2025-03-22 15:40:10.639,-2.9394573312222714
2025-03-22 15:40:10.639,0.8574123330628354
2025-03-22 15:40:10.648,4.081659292426775
2025-03-22 15:40:10.648,2.815359235696411
2025-03-22 15:40:10.648,-1.608658294426709
2025-03-22 15:40:10.649,-3.860433020822405
2025-03-22 15:40:10.649,-1.369347217542222
2025-03-22 15:40:10.658,2.2256871916908287
2025-03-22 15:40:10.658,1.9625999427925396
2025-03-22 15:40:10.658,-1.4904073172084764
2025-03-22 15:40:10.659,-2.5418387925859935
2025-03-22 15:40:10.659,1.318204707332262
2025-03-22 15:40:10.668,5.147755723858935
2025-03-22 15:40:10.668,2.677781139442138
2025-03-22 15:40:10.668,-4.610723024945477
2025-03-22 15:40:10.669,-8.110066562757076
2025-03-22 15:40:10.669,-2.6758809536765407
2025-03-22 15:40:10.678,6.322367550683614
2025-03-22 15:40:10.678,8.991274915705999
2025-03-22 15:40:10.678,2.562526536843157
2025-03-22 15:40:10.679,-5.7713026645780054
2025-03-22 15:40:10.679,-7.63004710482711
2025-03-22 15:40:10.688,-2.4274335508343956
2025-03-22 15:40:10.688,3.5507372411031626
2025-03-22 15:40:10.688,5.008294373211477
2025-03-22 15:40:10.689,2.3323836487756195
2025-03-22 15:40:10.689,-0.8799585666584298
2025-03-22 15:40:10.696,-2.377313715860551
2025-03-22 15:40:10.697,-2.305748563136074
2025-03-22 15:40:10.697,-1.3312212543706017
2025-03-22 15:40:10.697,0.39991645529478975
2025-03-22 15:40:10.697,2.3879779793862626
2025-03-22 15:40:10.706,3.0907536934124007
2025-03-22 15:40:10.706,1.0900244815287117
2025-03-22 15:40:10.707,-2.7840711976667896
2025-03-22 15:40:10.707,-5.026834873041778
2025-03-22 15:40:10.716,-2.449947103913064
2025-03-22 15:40:10.716,3.601424899892061
2025-03-22 15:40:10.717,7.14526781963582
2025-03-22 15:40:10.717,3.582337411279215
2025-03-22 15:40:10.717,-4.266525220586592
2025-03-22 15:40:10.726,-8.252803187522044
2025-03-22 15:40:10.726,-3.9680823506357163
2025-03-22 15:40:10.727,3.9538886991680133
2025-03-22 15:40:10.727,7.166305582205572
2025-03-22 15:40:10.727,3.149174170850998
2025-03-22 15:40:10.736,-2.6596814862428233
2025-03-22 15:40:10.736,-4.094192054532557
2025-03-22 15:40:10.737,-1.2453433844316821
2025-03-22 15:40:10.737,1.1123342954012787
2025-03-22 15:40:10.737,0.43718985285858214
2025-03-22 15:40:10.746,-0.8658423210990627
2025-03-22 15:40:10.746,0.12890069830016665
2025-03-22 15:40:10.746,2.2604329646074692
2025-03-22 15:40:10.747,2.070402446817719
2025-03-22 15:40:10.747,-0.9212908137637824
2025-03-22 15:40:10.756,-3.187722185081315
2025-03-22 15:40:10.756,-1.855787547532132
2025-03-22 15:40:10.756,1.4383091776126555
2025-03-22 15:40:10.757,2.6552553857831844
2025-03-22 15:40:10.757,0.5099548953238843
2025-03-22 15:40:10.766,-2.015377943347892
2025-03-22 15:40:10.766,-1.5847188935020415
2025-03-22 15:40:10.766,1.2345607547798754
2025-03-22 15:40:10.767,2.7079222454319907
2025-03-22 15:40:10.767,0.6654418153531234
2025-03-22 15:40:10.776,-2.668549666810589
2025-03-22 15:40:10.776,-3.238897416829901
2025-03-22 15:40:10.776,-0.06296729817925997
2025-03-22 15:40:10.777,3.419292639564787
2025-03-22 15:40:10.777,3.282425016759621
2025-03-22 15:40:10.786,-0.29146693119168354
2025-03-22 15:40:10.786,-3.3082969566710014
2025-03-22 15:40:10.786,-2.6932883765975513
2025-03-22 15:40:10.787,0.4301630919465138
2025-03-22 15:40:10.787,2.5583874905534985
2025-03-22 15:40:10.796,1.8170395889396078
2025-03-22 15:40:10.796,-0.5977132174640726
2025-03-22 15:40:10.796,-2.149155075402188
2025-03-22 15:40:10.797,-1.2687866377244563
2025-03-22 15:40:10.797,1.364083089958164
2025-03-22 15:40:10.804,2.99995908567125
2025-03-22 15:40:10.805,1.152445136840922
2025-03-22 15:40:10.805,-3.056290122731371
2025-03-22 15:40:10.805,-4.8520785354664016
2025-03-22 15:40:10.805,-1.0492508961748443
2025-03-22 15:40:10.814,5.059246853965183
2025-03-22 15:40:10.815,6.47417805754192
2025-03-22 15:40:10.815,0.8471273737686882
2025-03-22 15:40:10.815,-6.040927768818337
2025-03-22 15:40:10.815,-6.729386351841924
2025-03-22 15:40:10.824,-0.7387419600202354
2025-03-22 15:40:10.825,5.1770657297454425
2025-03-22 15:40:10.825,5.142909996924741
2025-03-22 15:40:10.825,0.5079203982539874
2025-03-22 15:40:10.834,-2.8262094229958454
2025-03-22 15:40:10.834,-1.9595192015264185
2025-03-22 15:40:10.835,0.23211060935459393
2025-03-22 15:40:10.835,0.011794261145516384
2025-03-22 15:40:10.835,-1.7822941457212633
2025-03-22 15:40:10.844,-1.2649398964881704
2025-03-22 15:40:10.844,2.310965286673289
2025-03-22 15:40:10.845,4.6473760766292544
2025-03-22 15:40:10.845,1.9123716062596257
2025-03-22 15:40:10.845,-3.6366451620925657
2025-03-22 15:40:10.854,-5.800411666864226
2025-03-22 15:40:10.854,-1.9083553202823627
2025-03-22 15:40:10.855,3.9182970716011485
2025-03-22 15:40:10.855,5.6010542000078685
2025-03-22 15:40:10.855,1.7576097135238964
2025-03-22 15:40:10.864,-3.4224541598825913
2025-03-22 15:40:10.864,-5.013994550144224
2025-03-22 15:40:10.865,-2.0008320792535517
2025-03-22 15:40:10.865,2.471948471208914
2025-03-22 15:40:10.865,4.437403418331141
2025-03-22 15:40:10.874,2.541936968788492
2025-03-22 15:40:10.874,-1.198194019668898
2025-03-22 15:40:10.875,-3.5361712284227136
2025-03-22 15:40:10.875,-2.85865199183601
2025-03-22 15:40:10.875,-0.22415332602757676
2025-03-22 15:40:10.884,2.031346161930259
2025-03-22 15:40:10.884,2.445611903258386
2025-03-22 15:40:10.884,1.310521106222431
2025-03-22 15:40:10.885,-0.1441008677696103
2025-03-22 15:40:10.885,-1.0680056576558346
2025-03-22 15:40:10.894,-1.4616539349949498
2025-03-22 15:40:10.894,-1.5636120169582153
2025-03-22 15:40:10.895,-1.1179931564204773
2025-03-22 15:40:10.895,0.3659279363026445
2025-03-22 15:40:10.895,2.4871521874726223
2025-03-22 15:40:10.904,3.49609312045376
2025-03-22 15:40:10.904,1.701428896460416
2025-03-22 15:40:10.904,-2.2945863398057456
2025-03-22 15:40:10.905,-5.21227778804434
2025-03-22 15:40:10.905,-3.8688411662465616
2025-03-22 15:40:10.914,1.215556278637056
2025-03-22 15:40:10.914,5.584223005669082
2025-03-22 15:40:10.915,5.089797910029185
2025-03-22 15:40:10.915,0.26501765176953235
2025-03-22 15:40:10.915,-4.316606737426341
2025-03-22 15:40:10.924,-4.908887183188493
2025-03-22 15:40:10.924,-1.8624668120897725
2025-03-22 15:40:10.924,1.816890318512678
2025-03-22 15:40:10.925,3.678336505201899
2025-03-22 15:40:10.925,3.087738846254024
2025-03-22 15:40:10.934,0.7309472588525197
2025-03-22 15:40:10.934,-1.9015555774764348
2025-03-22 15:40:10.934,-3.124035754177176
2025-03-22 15:40:10.935,-2.220486740254828
2025-03-22 15:40:10.935,-0.031177234383680738
2025-03-22 15:40:10.944,1.9070678026651284
2025-03-22 15:40:10.944,2.52195389824732
2025-03-22 15:40:10.944,1.5196282048513319
2025-03-22 15:40:10.945,-0.5818330800712813
2025-03-22 15:40:10.945,-2.306395478185826
2025-03-22 15:40:10.954,-2.0282373534073788
2025-03-22 15:40:10.954,0.2005453465095003
2025-03-22 15:40:10.954,2.162908627407627
2025-03-22 15:40:10.955,1.7423806469388796
2025-03-22 15:40:10.955,-0.5482242367255004
2025-03-22 15:40:10.964,-2.1318229978254006
2025-03-22 15:40:10.964,-1.3918924810653595
2025-03-22 15:40:10.964,0.6768517125465534
2025-03-22 15:40:10.965,1.9548436378644733
2025-03-22 15:40:10.965,1.5054464962655763
2025-03-22 15:40:10.972,-0.015246353108753274
2025-03-22 15:40:10.973,-1.4915377031099628
2025-03-22 15:40:10.973,-2.071608963656101
2025-03-22 15:40:10.973,-1.2087266726505155
2025-03-22 15:40:10.982,0.8774512195808151
2025-03-22 15:40:10.982,2.6406353965639497
2025-03-22 15:40:10.983,2.193352546816338
2025-03-22 15:40:10.983,-0.4503201647260383
2025-03-22 15:40:10.983,-2.7660113279003187
2025-03-22 15:40:10.992,-2.2587609678751077
2025-03-22 15:40:10.992,0.5560459174449066
2025-03-22 15:40:10.993,2.544346569484316
2025-03-22 15:40:10.993,1.5176831888677857
2025-03-22 15:40:10.993,-1.2359010756442943
2025-03-22 15:40:11.002,-2.4650223011211922
2025-03-22 15:40:11.002,-0.7124443160669164
2025-03-22 15:40:11.003,2.031398991156805
2025-03-22 15:40:11.003,2.630273889193982
2025-03-22 15:40:11.003,0.39453082571724757
2025-03-22 15:40:11.012,-2.1907960775768225
2025-03-22 15:40:11.012,-2.4416074428608208
2025-03-22 15:40:11.012,-0.5120137627959971
2025-03-22 15:40:11.013,1.2145577541699837
2025-03-22 15:40:11.013,1.3015245685932664
2025-03-22 15:40:11.022,0.640236138111887
2025-03-22 15:40:11.022,0.5221762157539755
2025-03-22 15:40:11.022,0.6127635724262119
2025-03-22 15:40:11.023,-0.24430136275577363
2025-03-22 15:40:11.023,-1.8618203112468017
2025-03-22 15:40:11.032,-2.4831858283432338
2025-03-22 15:40:11.032,-0.8843665325372556
2025-03-22 15:40:11.033,1.911973864213301
2025-03-22 15:40:11.033,3.4229449302668
2025-03-22 15:40:11.033,2.1521745570332196
2025-03-22 15:40:11.042,-0.8692457316046448
2025-03-22 15:40:11.042,-3.0142744714128717
2025-03-22 15:40:11.042,-2.5555904183848126
2025-03-22 15:40:11.043,-0.2375207019226461
2025-03-22 15:40:11.043,1.6562754347971684
2025-03-22 15:40:11.052,1.6871979703266455
2025-03-22 15:40:11.052,0.4996052156027373
2025-03-22 15:40:11.052,-0.3014515372666688
2025-03-22 15:40:11.053,-0.11580191345124284
2025-03-22 15:40:11.053,0.1929504770955372
2025-03-22 15:40:11.060,-0.28167750131639957
2025-03-22 15:40:11.061,-1.1391457905220954
2025-03-22 15:40:11.061,-1.1728327233553324
2025-03-22 15:40:11.061,-0.026456781525825326
2025-03-22 15:40:11.061,1.2685989258619166
2025-03-22 15:40:11.070,1.5782285950385637
2025-03-22 15:40:11.071,0.8850118586825458
2025-03-22 15:40:11.071,-0.15344211289674778
2025-03-22 15:40:11.071,-1.1732411332611283
2025-03-22 15:40:11.080,-1.8689521129937439
2025-03-22 15:40:11.081,-1.4238451084708965
2025-03-22 15:40:11.081,0.5284461594817119
2025-03-22 15:40:11.081,2.5063214660863333
2025-03-22 15:40:11.081,2.2511478159038787
2025-03-22 15:40:11.090,-0.29150814518081936
2025-03-22 15:40:11.091,-2.354204821166613
2025-03-22 15:40:11.091,-1.6546163057502068
2025-03-22 15:40:11.091,0.636456110869311
2025-03-22 15:40:11.091,1.4915452075890179
2025-03-22 15:40:11.100,0.07249160901859258
2025-03-22 15:40:11.101,-1.3369153415836315
2025-03-22 15:40:11.101,-0.6371345463795262
2025-03-22 15:40:11.101,1.2637936327184738
2025-03-22 15:40:11.101,1.8728598666622498
2025-03-22 15:40:11.110,0.49045925847618477
2025-03-22 15:40:11.111,-1.1840922488630043
2025-03-22 15:40:11.111,-1.6206536659300577
2025-03-22 15:40:11.111,-1.1453168783260577
2025-03-22 15:40:11.111,-0.5879191804661082
2025-03-22 15:40:11.120,0.333858425314597
2025-03-22 15:40:11.121,2.0013113518930057
2025-03-22 15:40:11.121,3.0896970459035256
2025-03-22 15:40:11.121,1.5703884806147923
2025-03-22 15:40:11.121,-2.19426023960655
2025-03-22 15:40:11.130,-4.776337479037489
2025-03-22 15:40:11.130,-3.1852869738688216
2025-03-22 15:40:11.131,1.430348699226467
2025-03-22 15:40:11.131,4.662944317348516
2025-03-22 15:40:11.131,3.5943481888103537
2025-03-22 15:40:11.140,-0.18222936768941397
2025-03-22 15:40:11.140,-2.787686057270683
2025-03-22 15:40:11.140,-2.504732403970659
2025-03-22 15:40:11.141,-0.9148908002724787
2025-03-22 15:40:11.141,0.03322464227158733
2025-03-22 15:40:11.150,0.4731617593672982
2025-03-22 15:40:11.150,1.434936484178863
2025-03-22 15:40:11.151,2.405778742253764
2025-03-22 15:40:11.151,1.5942398960930175
2025-03-22 15:40:11.151,-1.3128355999782235
2025-03-22 15:40:11.160,-3.8263200673885422
2025-03-22 15:40:11.160,-3.014884651654989
2025-03-22 15:40:11.161,0.9198354050424704
2025-03-22 15:40:11.161,4.227073872894884
2025-03-22 15:40:11.161,3.4140318591206364
2025-03-22 15:40:11.170,-0.7084197091678075
2025-03-22 15:40:11.170,-3.676915652327394
2025-03-22 15:40:11.171,-2.5183330044060437
2025-03-22 15:40:11.171,0.7226346186391082
2025-03-22 15:40:11.171,1.873113483340112
2025-03-22 15:40:11.180,0.34897102616007614
2025-03-22 15:40:11.180,-0.39819154776734944
2025-03-22 15:40:11.181,1.3447455952254699
2025-03-22 15:40:11.181,2.2760473400242165
2025-03-22 15:40:11.181,-0.9098011498192277
2025-03-22 15:40:11.190,-5.227236614722865
2025-03-22 15:40:11.190,-4.1761866254904145
2025-03-22 15:40:11.191,2.913178560035091
2025-03-22 15:40:11.191,8.261076794614764
2025-03-22 15:40:11.191,4.808228487148011
2025-03-22 15:40:11.200,-4.346483056885936
2025-03-22 15:40:11.200,-9.057570690838906
2025-03-22 15:40:11.201,-4.249288800795124
2025-03-22 15:40:11.201,4.261158536997268
2025-03-22 15:40:11.201,7.178325336890167
2025-03-22 15:40:11.210,2.588964179871411
2025-03-22 15:40:11.210,-2.9624301493048564
2025-03-22 15:40:11.211,-3.3779973347369783
2025-03-22 15:40:11.211,-0.026259308544002435
2025-03-22 15:40:11.211,1.4238766284286457
2025-03-22 15:40:11.220,-0.8365846416245553
2025-03-22 15:40:11.220,-2.672586385161025
2025-03-22 15:40:11.221,-0.3209785868835354
2025-03-22 15:40:11.221,3.908469721290157
2025-03-22 15:40:11.221,4.4262753265201376
2025-03-22 15:40:11.230,-0.16145217632605924
2025-03-22 15:40:11.230,-4.928744802625208
2025-03-22 15:40:11.231,-4.583622339669328
2025-03-22 15:40:11.231,0.24249872250222387
2025-03-22 15:40:11.231,4.066161454199935
2025-03-22 15:40:11.240,3.171547334084007
2025-03-22 15:40:11.240,-0.4523878231520269
2025-03-22 15:40:11.240,-2.198710660898151
2025-03-22 15:40:11.241,-0.6634382507840818
2025-03-22 15:40:11.241,1.0951760084317976
2025-03-22 15:40:11.250,0.16546889560948755
2025-03-22 15:40:11.250,-2.0535797908326754
2025-03-22 15:40:11.250,-1.848200896825837
2025-03-22 15:40:11.251,1.3748669873885193
2025-03-22 15:40:11.251,3.8334877212044596
2025-03-22 15:40:11.259,2.2083847868781907
2025-03-22 15:40:11.259,-1.9327270561969436
2025-03-22 15:40:11.259,-3.9946540119698595
2025-03-22 15:40:11.259,-1.9252369276797534
2025-03-22 15:40:11.259,1.6032190377693447
2025-03-22 15:40:11.268,2.729894048210958
2025-03-22 15:40:11.269,0.9055989930193825
2025-03-22 15:40:11.269,-1.0239675488964632
2025-03-22 15:40:11.269,-0.7544931619872667
2025-03-22 15:40:11.278,0.6972253934516814
2025-03-22 15:40:11.279,0.7414534186931122
2025-03-22 15:40:11.279,-1.0461259376721201
2025-03-22 15:40:11.279,-2.2528046311041487
2025-03-22 15:40:11.279,-0.9168097173344967
2025-03-22 15:40:11.288,1.734141884540123
2025-03-22 15:40:11.288,2.844386023647864
2025-03-22 15:40:11.289,1.5186528341586725
2025-03-22 15:40:11.289,-0.558560905956863
2025-03-22 15:40:11.289,-1.8467150241041206
2025-03-22 15:40:11.298,-2.467282531239834
2025-03-22 15:40:11.299,-2.4640711445630092
2025-03-22 15:40:11.299,-0.5830261088882114
2025-03-22 15:40:11.299,3.351824586921306
2025-03-22 15:40:11.299,6.044002845744179
2025-03-22 15:40:11.308,3.4826852610153556
2025-03-22 15:40:11.308,-3.3867193844945733
2025-03-22 15:40:11.309,-8.085114606017164
2025-03-22 15:40:11.309,-5.445419569723402
2025-03-22 15:40:11.309,2.122910673569706
2025-03-22 15:40:11.318,7.146780215535445
2025-03-22 15:40:11.318,5.439495809579128
2025-03-22 15:40:11.319,-0.02559971793308119
2025-03-22 15:40:11.319,-3.681313559712235
2025-03-22 15:40:11.319,-3.575576908050831
2025-03-22 15:40:11.328,-1.790006067585047
2025-03-22 15:40:11.328,-0.36464652935013625
2025-03-22 15:40:11.329,0.8635295638576275
2025-03-22 15:40:11.329,2.4059564149708215
2025-03-22 15:40:11.329,3.1577582266605373
2025-03-22 15:40:11.338,1.5992944643075926
2025-03-22 15:40:11.338,-1.7015725510771627
2025-03-22 15:40:11.338,-4.03268699494781
2025-03-22 15:40:11.339,-3.2026708248260616
2025-03-22 15:40:11.339,0.23839059016223368
2025-03-22 15:40:11.348,3.496787280291733
2025-03-22 15:40:11.348,3.9294231881031663
2025-03-22 15:40:11.348,1.166748061022984
2025-03-22 15:40:11.348,-2.5178586604106625
2025-03-22 15:40:11.349,-3.958359946615897
2025-03-22 15:40:11.358,-1.8992890316665627
2025-03-22 15:40:11.358,1.658243215276478
2025-03-22 15:40:11.358,3.336062775673624
2025-03-22 15:40:11.359,1.8315417223010013
2025-03-22 15:40:11.359,-0.909812322357161
2025-03-22 15:40:11.367,-2.142718427019335
2025-03-22 15:40:11.367,-1.2864913037271035
2025-03-22 15:40:11.367,0.11356887182746318
2025-03-22 15:40:11.367,0.757150561621558
2025-03-22 15:40:11.367,0.7920757630925348
2025-03-22 15:40:11.376,0.6977439670882344
2025-03-22 15:40:11.377,0.26736297379745405
2025-03-22 15:40:11.377,-0.6089338845541074
2025-03-22 15:40:11.377,-1.1043767240087095
2025-03-22 15:40:11.377,-0.49655227040719757
2025-03-22 15:40:11.386,0.46474946632058073
2025-03-22 15:40:11.387,0.4724300918558474
2025-03-22 15:40:11.387,-0.23647299696475596
2025-03-22 15:40:11.387,-0.1000873787781656
2025-03-22 15:40:11.396,1.168784393343113
2025-03-22 15:40:11.396,1.6509082967167423
2025-03-22 15:40:11.397,-0.15174916315069545
2025-03-22 15:40:11.397,-2.730721478758485
2025-03-22 15:40:11.397,-2.992278862370402
2025-03-22 15:40:11.406,-0.12631404935320056
2025-03-22 15:40:11.406,3.1098981235790415
2025-03-22 15:40:11.406,3.427728467340307
2025-03-22 15:40:11.407,0.6747233879315524
2025-03-22 15:40:11.407,-2.18271631584944
2025-03-22 15:40:11.416,-2.523616107728937
2025-03-22 15:40:11.417,-0.7733796407865308
2025-03-22 15:40:11.417,0.6555873135995548
2025-03-22 15:40:11.417,0.5225954412617071
2025-03-22 15:40:11.417,-0.015591068419150617
2025-03-22 15:40:11.426,0.5534209137692357
2025-03-22 15:40:11.426,1.7043113859480656
2025-03-22 15:40:11.427,1.431769900820512
2025-03-22 15:40:11.427,-0.8942509969476629
2025-03-22 15:40:11.427,-3.1846354788672695
2025-03-22 15:40:11.436,-2.780392047591318
2025-03-22 15:40:11.437,0.400509317914898
2025-03-22 15:40:11.437,3.5126133063609237
2025-03-22 15:40:11.437,3.619234882742364
2025-03-22 15:40:11.437,0.5490094923180081
2025-03-22 15:40:11.446,-3.0114550880256767
2025-03-22 15:40:11.446,-3.950350337881859
2025-03-22 15:40:11.447,-1.4209183716752696
2025-03-22 15:40:11.447,2.3457878636912657
2025-03-22 15:40:11.447,3.869483466269379
2025-03-22 15:40:11.456,1.6590556134361287
2025-03-22 15:40:11.456,-2.0763333088491973
2025-03-22 15:40:11.457,-3.4402181151176685
2025-03-22 15:40:11.457,-1.0260393843919953
2025-03-22 15:40:11.457,2.3389448726209814
2025-03-22 15:40:11.466,2.745278074159493
2025-03-22 15:40:11.466,-0.1357525210815154
2025-03-22 15:40:11.467,-2.652366529294683
2025-03-22 15:40:11.467,-1.7914841943904976
2025-03-22 15:40:11.467,1.0552325672589034
2025-03-22 15:40:11.476,2.168016628444889
2025-03-22 15:40:11.477,0.5213322709334203
2025-03-22 15:40:11.477,-1.1815699756013476
2025-03-22 15:40:11.477,-0.6227033728348104
2025-03-22 15:40:11.477,0.955997246639041
2025-03-22 15:40:11.486,0.8525115744114788
2025-03-22 15:40:11.486,-1.0855032152516628
2025-03-22 15:40:11.487,-2.221941554359761
2025-03-22 15:40:11.487,-0.73473000270859
2025-03-22 15:40:11.487,1.8980210581875585
2025-03-22 15:40:11.496,2.6538158611582823
2025-03-22 15:40:11.496,0.6607104636942265
2025-03-22 15:40:11.497,-1.7386371701261256
2025-03-22 15:40:11.497,-1.8837342807331765
2025-03-22 15:40:11.497,-0.048368810653145355
2025-03-22 15:40:11.506,1.1471848537097045
2025-03-22 15:40:11.506,0.3581304123092097
2025-03-22 15:40:11.507,-0.8333664015943398
2025-03-22 15:40:11.507,-0.4787210867102846
2025-03-22 15:40:11.507,0.8360371679652683
2025-03-22 15:40:11.516,1.0486617877218916
2025-03-22 15:40:11.516,-0.12504966795192368
2025-03-22 15:40:11.516,-0.834505330952276
2025-03-22 15:40:11.517,-0.13043278821830945
2025-03-22 15:40:11.517,0.4860678081325689
2025-03-22 15:40:11.526,-0.42758084591421297
2025-03-22 15:40:11.526,-1.5798321996240048
2025-03-22 15:40:11.527,-0.5499320290467187
2025-03-22 15:40:11.527,2.2940842720746764
2025-03-22 15:40:11.527,3.4175740980573925
2025-03-22 15:40:11.536,0.5333143669377349
2025-03-22 15:40:11.537,-3.8294002407516103
2025-03-22 15:40:11.537,-4.724885333549386
2025-03-22 15:40:11.537,-0.6475292862401665
2025-03-22 15:40:11.537,4.365767434265154
2025-03-22 15:40:11.545,5.095614596812206
2025-03-22 15:40:11.545,0.8472508221304609
2025-03-22 15:40:11.545,-3.9666397351905647
2025-03-22 15:40:11.545,-4.667884317111952
2025-03-22 15:40:11.545,-0.9979442193940671
2025-03-22 15:40:11.554,3.1480786720907274
2025-03-22 15:40:11.555,3.99642713736806
2025-03-22 15:40:11.555,1.2984549339946005
2025-03-22 15:40:11.555,-2.188859192441233
2025-03-22 15:40:11.555,-3.6050359323068806
2025-03-22 15:40:11.564,-2.0688896295587664
2025-03-22 15:40:11.565,1.1429765122790079
2025-03-22 15:40:11.565,3.551470755000782
2025-03-22 15:40:11.565,3.0782645407644784
2025-03-22 15:40:11.565,-0.1475658137508072
2025-03-22 15:40:11.575,-3.404445300344041
2025-03-22 15:40:11.575,-3.651322066667611
2025-03-22 15:40:11.575,-0.6477911342335467
2025-03-22 15:40:11.575,2.6714025130272905
2025-03-22 15:40:11.575,3.3009091649433002
2025-03-22 15:40:11.584,1.1779505446680842
2025-03-22 15:40:11.585,-1.293891379961313
2025-03-22 15:40:11.585,-2.118366674736123
2025-03-22 15:40:11.585,-1.326363990761484
2025-03-22 15:40:11.594,-0.08620038435013132
2025-03-22 15:40:11.595,0.758144116800653
2025-03-22 15:40:11.595,1.0070011544413464
2025-03-22 15:40:11.595,0.6952220040015491
2025-03-22 15:40:11.595,-0.010510354095123152
2025-03-22 15:40:11.604,-0.6139113501284564
2025-03-22 15:40:11.604,-0.5141476256917059
2025-03-22 15:40:11.605,0.24375160366686555
2025-03-22 15:40:11.605,0.7111308174747666
2025-03-22 15:40:11.605,0.09125251966434321
2025-03-22 15:40:11.614,-0.9879362447667911
2025-03-22 15:40:11.615,-1.0274433507225724
2025-03-22 15:40:11.615,0.24646933182146286
2025-03-22 15:40:11.615,1.2461033085902085
2025-03-22 15:40:11.615,0.6884238117769744
2025-03-22 15:40:11.623,-0.473316899213659
2025-03-22 15:40:11.623,-0.4909041957933255
2025-03-22 15:40:11.623,0.4167183951820362
2025-03-22 15:40:11.623,0.4283967299609513
2025-03-22 15:40:11.623,-0.8071404019300512
2025-03-22 15:40:11.634,-1.3708195642086551
2025-03-22 15:40:11.634,-0.03179016853195921
2025-03-22 15:40:11.634,1.6459354914104154
2025-03-22 15:40:11.635,1.4304541530192718
2025-03-22 15:40:11.635,-0.3782360552977089
2025-03-22 15:40:11.642,-1.3996884267238554
2025-03-22 15:40:11.643,-0.5395633340589077
2025-03-22 15:40:11.643,0.5872347395467442
2025-03-22 15:40:11.643,0.15088120455066673
2025-03-22 15:40:11.652,-1.0788572486088537
2025-03-22 15:40:11.653,-0.751215944493957
2025-03-22 15:40:11.653,1.4433610946316644
2025-03-22 15:40:11.653,2.7741852929126267
2025-03-22 15:40:11.653,0.9581275209850214
2025-03-22 15:40:11.662,-2.433961545161144
2025-03-22 15:40:11.663,-3.529826103775434
2025-03-22 15:40:11.663,-0.94268737933002
2025-03-22 15:40:11.663,2.400851651761168
2025-03-22 15:40:11.663,2.8125072859800584
2025-03-22 15:40:11.672,0.2628760028410686
2025-03-22 15:40:11.673,-1.855114429983012
2025-03-22 15:40:11.673,-1.1114691542310617
2025-03-22 15:40:11.673,1.0877120994788159
2025-03-22 15:40:11.673,1.5838128461394028
2025-03-22 15:40:11.682,-0.4220990814829829
2025-03-22 15:40:11.682,-2.4408698078249786
2025-03-22 15:40:11.683,-1.873794992265635
2025-03-22 15:40:11.683,0.841651686682767
2025-03-22 15:40:11.683,2.8876373535180435
2025-03-22 15:40:11.690,2.369199579922177
2025-03-22 15:40:11.691,0.07587957214387628
2025-03-22 15:40:11.691,-1.960247423274698
2025-03-22 15:40:11.691,-2.5848176013420097
2025-03-22 15:40:11.691,-1.7800771355829195
2025-03-22 15:40:11.702,0.11078405577120624
2025-03-22 15:40:11.702,2.3071327954813365
2025-03-22 15:40:11.702,3.237238046292507
2025-03-22 15:40:11.703,1.6488517005540608
2025-03-22 15:40:11.703,-1.5665110274127618
2025-03-22 15:40:11.712,-3.6004072620334826
2025-03-22 15:40:11.712,-2.5104491727707408
2025-03-22 15:40:11.713,0.5894169693984189
2025-03-22 15:40:11.713,2.7221425448774608
2025-03-22 15:40:11.713,2.235525158467015
2025-03-22 15:40:11.720,0.2199015577952776
2025-03-22 15:40:11.721,-1.1670879172604631
2025-03-22 15:40:11.721,-1.0824960264601202
2025-03-22 15:40:11.721,-0.40059102101023275
2025-03-22 15:40:11.731,-0.20666892693469283
2025-03-22 15:40:11.731,-0.457172978239603
2025-03-22 15:40:11.731,-0.24564851136325194
2025-03-22 15:40:11.731,0.8152099833294587
2025-03-22 15:40:11.731,1.786029186787035
2025-03-22 15:40:11.740,1.3124535451171528
2025-03-22 15:40:11.741,-0.5958822468062626
2025-03-22 15:40:11.741,-2.1965429685650535
2025-03-22 15:40:11.741,-1.9043465088931586
2025-03-22 15:40:11.741,-0.18148344884256662
2025-03-22 15:40:11.750,1.170605862565221
2025-03-22 15:40:11.751,1.331013368558683
2025-03-22 15:40:11.751,1.0520101831215594
2025-03-22 15:40:11.751,0.9227968792602084
2025-03-22 15:40:11.751,0.3138073653321137
2025-03-22 15:40:11.760,-1.2794018678422636
2025-03-22 15:40:11.760,-2.753357490000334
2025-03-22 15:40:11.761,-2.3091151947979904
2025-03-22 15:40:11.761,0.3039047322747924
2025-03-22 15:40:11.761,3.1404894127942447
2025-03-22 15:40:11.770,3.787548089889259
2025-03-22 15:40:11.771,1.5421955307658215
2025-03-22 15:40:11.771,-1.9802948925825414
2025-03-22 15:40:11.771,-4.1088495764460005
2025-03-22 15:40:11.771,-3.176380493098357
2025-03-22 15:40:11.780,0.10380904190181925
2025-03-22 15:40:11.781,3.110552315957589
2025-03-22 15:40:11.781,3.5243712012436106
2025-03-22 15:40:11.781,1.3692909348223588
2025-03-22 15:40:11.781,-1.2250542297500264
2025-03-22 15:40:11.790,-2.2784448444662893
2025-03-22 15:40:11.790,-1.668984045005416
2025-03-22 15:40:11.791,-0.5830646992494644
2025-03-22 15:40:11.791,0.16937179115917855
2025-03-22 15:40:11.791,0.7695753403894446
2025-03-22 15:40:11.800,1.465627446672897
2025-03-22 15:40:11.800,1.6806748755998904
2025-03-22 15:40:11.801,0.5916729461653817
2025-03-22 15:40:11.801,-1.4319886846799692
2025-03-22 15:40:11.801,-2.586105592877673
2025-03-22 15:40:11.810,-1.4326172150117746
2025-03-22 15:40:11.811,1.16180274040048
2025-03-22 15:40:11.811,2.578981214904901
2025-03-22 15:40:11.811,1.2965771546563425
2025-03-22 15:40:11.811,-1.2583671067240312
2025-03-22 15:40:11.820,-2.2377134589686674
2025-03-22 15:40:11.820,-0.5916537884133405
2025-03-22 15:40:11.821,1.77361050488505
2025-03-22 15:40:11.821,2.1574881995773847
2025-03-22 15:40:11.821,0.05088667110849082
2025-03-22 15:40:11.830,-2.282375760735675
2025-03-22 15:40:11.831,-2.2524469217540384
2025-03-22 15:40:11.831,0.14239255922755711
2025-03-22 15:40:11.831,2.2391584597696292
2025-03-22 15:40:11.831,1.8038409179731805
2025-03-22 15:40:11.840,-0.3317488075487226
2025-03-22 15:40:11.840,-1.4611169735703398
2025-03-22 15:40:11.840,-0.48935342988691766
2025-03-22 15:40:11.841,0.8593532582312892
2025-03-22 15:40:11.841,0.525566887002515
2025-03-22 15:40:11.849,-1.1432073932095206
2025-03-22 15:40:11.849,-1.8538423093074705
2025-03-22 15:40:11.849,-0.27457855765170863
2025-03-22 15:40:11.849,2.210162984754568
2025-03-22 15:40:11.849,2.940920201056415
2025-03-22 15:40:11.858,0.9286367541307372
2025-03-22 15:40:11.859,-2.0457560429119686
2025-03-22 15:40:11.859,-3.317714416427421
2025-03-22 15:40:11.859,-1.950890644788537
2025-03-22 15:40:11.868,0.6938596429511732
2025-03-22 15:40:11.869,2.5408905659640935
2025-03-22 15:40:11.869,2.499607846073569
2025-03-22 15:40:11.869,0.902265026631669
2025-03-22 15:40:11.869,-1.038706865279306
2025-03-22 15:40:11.879,-2.062695050950625
2025-03-22 15:40:11.879,-1.6470631966273985
2025-03-22 15:40:11.879,-0.3244727631421477
2025-03-22 15:40:11.879,0.8600010743019597
2025-03-22 15:40:11.879,1.2858402468830639
2025-03-22 15:40:11.888,1.0579480108638535
2025-03-22 15:40:11.889,0.4774540619513078
2025-03-22 15:40:11.889,-0.37650271965228177
2025-03-22 15:40:11.889,-1.298928235861439
2025-03-22 15:40:11.889,-1.5413685992297115
2025-03-22 15:40:11.898,-0.4154185452922086
2025-03-22 15:40:11.899,1.4683930625020831
2025-03-22 15:40:11.899,2.2155582822606115
2025-03-22 15:40:11.899,0.6755233855241949
2025-03-22 15:40:11.899,-1.771631102348446
2025-03-22 15:40:11.908,-2.416376550526965
2025-03-22 15:40:11.909,-0.43185534405406456
2025-03-22 15:40:11.909,1.9789012112379487
2025-03-22 15:40:11.909,2.192149646710139
2025-03-22 15:40:11.909,0.23505738762766734
2025-03-22 15:40:11.918,-1.5880536393822153
2025-03-22 15:40:11.919,-1.7104719970195765
2025-03-22 15:40:11.919,-0.7504456269873305
2025-03-22 15:40:11.919,0.14611081883164492
2025-03-22 15:40:11.919,0.9882720683372597
2025-03-22 15:40:11.928,2.012299392881871
2025-03-22 15:40:11.929,2.1373600587414225
2025-03-22 15:40:11.929,0.05873845693403582
2025-03-22 15:40:11.929,-3.1414705305420716
2025-03-22 15:40:11.929,-4.145884761145304
2025-03-22 15:40:11.938,-1.1792446527453702
2025-03-22 15:40:11.938,3.2136885333525673
2025-03-22 15:40:11.939,4.555875651389428
2025-03-22 15:40:11.939,1.6178728598619982
2025-03-22 15:40:11.939,-2.1125990556126166
2025-03-22 15:40:11.947,-2.7919373446149365
2025-03-22 15:40:11.947,-0.8193727485189546
2025-03-22 15:40:11.947,0.39398946209068103
2025-03-22 15:40:11.947,-0.4485772978753541
2025-03-22 15:40:11.947,-0.8937061086112539
2025-03-22 15:40:11.957,1.1179587394538588
2025-03-22 15:40:11.957,3.531725957630996
2025-03-22 15:40:11.957,2.6114328371155167
2025-03-22 15:40:11.957,-1.6635184841117128
2025-03-22 15:40:11.957,-4.913812548464964
2025-03-22 15:40:11.967,-3.583278424923153
2025-03-22 15:40:11.967,0.8712938339553515
2025-03-22 15:40:11.967,4.051324347150489
2025-03-22 15:40:11.967,3.6325921324128174
2025-03-22 15:40:11.967,0.9565627824474762
2025-03-22 15:40:11.977,-1.5675409271057896
2025-03-22 15:40:11.977,-2.867349989870172
2025-03-22 15:40:11.977,-2.8718197451039638
2025-03-22 15:40:11.977,-1.3861975979126142
2025-03-22 15:40:11.986,1.4298510496565986
2025-03-22 15:40:11.987,3.912950632166098
2025-03-22 15:40:11.987,3.6785754370865833
2025-03-22 15:40:11.987,0.28212033151504246
2025-03-22 15:40:11.987,-3.5822621611193335
2025-03-22 15:40:11.996,-4.475146645803645
2025-03-22 15:40:11.997,-1.725978484870712
2025-03-22 15:40:11.997,2.017808002576912
2025-03-22 15:40:11.997,3.6350808310816514
2025-03-22 15:40:11.997,2.370370372589957
2025-03-22 15:40:12.006,-0.08231862040084681
2025-03-22 15:40:12.006,-1.6553226830599521
2025-03-22 15:40:12.007,-1.7280131375928587
2025-03-22 15:40:12.007,-1.128543967681731
2025-03-22 15:40:12.007,-0.704934696861884
2025-03-22 15:40:12.016,-0.22228269685534843
2025-03-22 15:40:12.016,1.0195218270719284
2025-03-22 15:40:12.017,2.57911347727381
2025-03-22 15:40:12.017,2.6613883034526373
2025-03-22 15:40:12.017,0.2078265938951835
2025-03-22 15:40:12.026,-3.15289176759969
2025-03-22 15:40:12.026,-4.2459690071860585
2025-03-22 15:40:12.027,-1.7557586067930602
2025-03-22 15:40:12.027,2.147340589480952
2025-03-22 15:40:12.027,4.046434030438889
2025-03-22 15:40:12.036,2.7282589768803045
2025-03-22 15:40:12.036,-0.1297449493054848
2025-03-22 15:40:12.036,-2.27500297040689
2025-03-22 15:40:12.037,-2.825656864050989
2025-03-22 15:40:12.037,-1.8892403992264466
2025-03-22 15:40:12.045,0.24801663703303342
2025-03-22 15:40:12.045,2.5334458787871528
2025-03-22 15:40:12.045,2.9422767391704907
2025-03-22 15:40:12.045,0.5889056854094791
2025-03-22 15:40:12.045,-2.3509017222981994
2025-03-22 15:40:12.055,-2.603873079465548
2025-03-22 15:40:12.055,0.07953469871270263
2025-03-22 15:40:12.055,2.3320298715110637
2025-03-22 15:40:12.055,1.4015912259190673
2025-03-22 15:40:12.055,-1.3320104208219494
2025-03-22 15:40:12.065,-2.2966546571244724
2025-03-22 15:40:12.065,-0.3832679232719834
2025-03-22 15:40:12.065,1.9221854941483014
2025-03-22 15:40:12.065,1.998486138056799
2025-03-22 15:40:12.074,0.1678691074767033
2025-03-22 15:40:12.075,-1.2811186458974582
2025-03-22 15:40:12.075,-1.1239829529418814
2025-03-22 15:40:12.075,-0.2997805352209595
2025-03-22 15:40:12.075,-0.19712268591030233
2025-03-22 15:40:12.084,-0.6119133001218429
2025-03-22 15:40:12.085,-0.0491638675658106
2025-03-22 15:40:12.085,1.806772086563486
2025-03-22 15:40:12.085,2.7903479558014443
2025-03-22 15:40:12.085,0.7087058707656606
2025-03-22 15:40:12.094,-3.048963075841521
2025-03-22 15:40:12.095,-4.179059375679952
2025-03-22 15:40:12.095,-0.7294119352744338
2025-03-22 15:40:12.095,3.733321614302147
2025-03-22 15:40:12.095,3.994328606929961
2025-03-22 15:40:12.104,-0.30179417192970853
2025-03-22 15:40:12.105,-3.9888083899190767
2025-03-22 15:40:12.105,-2.690168247243408
2025-03-22 15:40:12.105,1.8429484192752248
2025-03-22 15:40:12.105,4.021329910946145
2025-03-22 15:40:12.114,1.2809109153545148
2025-03-22 15:40:12.115,-2.99942664973538
2025-03-22 15:40:12.115,-3.7927522342563647
2025-03-22 15:40:12.115,-0.3728812377432461
2025-03-22 15:40:12.115,3.1898144429828577
2025-03-22 15:40:12.124,3.0764362213554732
2025-03-22 15:40:12.124,-0.08495564563275948
2025-03-22 15:40:12.125,-2.5192145787731555
2025-03-22 15:40:12.125,-1.836913138507179
2025-03-22 15:40:12.125,0.6345386597792997
2025-03-22 15:40:12.134,1.7898031078864949
2025-03-22 15:40:12.135,0.31887441079202494
2025-03-22 15:40:12.135,-1.8749683723534962
2025-03-22 15:40:12.135,-1.812688305034857
2025-03-22 15:40:12.135,1.009671152925992
2025-03-22 15:40:12.143,3.604899896427301
2025-03-22 15:40:12.143,2.6324601316532283
2025-03-22 15:40:12.143,-1.5530109531229694
2025-03-22 15:40:12.143,-4.803864012713175
2025-03-22 15:40:12.143,-3.5360172236937104
2025-03-22 15:40:12.154,1.2639093085366273
2025-03-22 15:40:12.154,4.890198663770985
2025-03-22 15:40:12.154,3.738995391678177
2025-03-22 15:40:12.155,-0.9607274168934019
2025-03-22 15:40:12.155,-4.35830784019311
2025-03-22 15:40:12.164,-3.0275971566724436
2025-03-22 15:40:12.164,1.3251155896028142
2025-03-22 15:40:12.164,3.746769725449633
2025-03-22 15:40:12.165,1.7439883899119644
2025-03-22 15:40:12.165,-1.9019272965561451
2025-03-22 15:40:12.174,-2.798413580244314
2025-03-22 15:40:12.174,-0.3876632050729707
2025-03-22 15:40:12.175,1.8288239103987214
2025-03-22 15:40:12.175,1.1688997713923552
2025-03-22 15:40:12.175,-0.9250236823272732
2025-03-22 15:40:12.183,-1.170993586125596
2025-03-22 15:40:12.183,1.0155815992384702
2025-03-22 15:40:12.183,2.5479942919294296
2025-03-22 15:40:12.183,0.5695143246508926
2025-03-22 15:40:12.183,-3.3695965660912237
2025-03-22 15:40:12.194,-4.371321276316341
2025-03-22 15:40:12.194,-0.14756678824209388
2025-03-22 15:40:12.195,5.221737747544959
2025-03-22 15:40:12.195,5.391806939946395
2025-03-22 15:40:12.195,-0.41707754829333527
2025-03-22 15:40:12.204,-5.844917863079659
2025-03-22 15:40:12.204,-4.793095731900753
2025-03-22 15:40:12.205,1.2373282240758199
2025-03-22 15:40:12.205,5.154610504933156
2025-03-22 15:40:12.205,2.915633874796459
2025-03-22 15:40:12.214,-2.1054120558308895
2025-03-22 15:40:12.214,-3.857571377722603
2025-03-22 15:40:12.215,-0.8631576122715732
2025-03-22 15:40:12.215,2.7498947909617324
2025-03-22 15:40:12.215,2.738419875457084
2025-03-22 15:40:12.223,-0.44304301106186555
2025-03-22 15:40:12.223,-2.855086351109916
2025-03-22 15:40:12.223,-2.0109984843570756
2025-03-22 15:40:12.223,0.662277671727697
2025-03-22 15:40:12.232,2.1877364372056727
2025-03-22 15:40:12.233,1.5415356601469958
2025-03-22 15:40:12.233,0.027652409837721062
2025-03-22 15:40:12.233,-0.9740313005516125
2025-03-22 15:40:12.233,-1.2955047718025856
2025-03-22 15:40:12.242,-1.102292764229489
2025-03-22 15:40:12.243,-0.14899570659934477
2025-03-22 15:40:12.243,1.3212102963725476
2025-03-22 15:40:12.243,1.900776451228269
2025-03-22 15:40:12.243,0.5287125652967368
2025-03-22 15:40:12.252,-1.5959365615012922
2025-03-22 15:40:12.252,-1.972735590461157
2025-03-22 15:40:12.253,0.005419373627078658
2025-03-22 15:40:12.253,1.9805425898991178
2025-03-22 15:40:12.253,1.495646584304838
2025-03-22 15:40:12.262,-0.8764492308088561
2025-03-22 15:40:12.263,-2.256293364879739
2025-03-22 15:40:12.263,-0.9987243281486422
2025-03-22 15:40:12.263,1.429833542779549
2025-03-22 15:40:12.263,2.2868674549699466
2025-03-22 15:40:12.272,0.6697678877238429
2025-03-22 15:40:12.272,-1.6232481951709925
2025-03-22 15:40:12.273,-2.1869151352759877
2025-03-22 15:40:12.273,-0.5471339764800924
2025-03-22 15:40:12.273,1.582090510030834
2025-03-22 15:40:12.282,2.264451013280321
2025-03-22 15:40:12.282,1.0628113557859127
2025-03-22 15:40:12.283,-1.068115324350302
2025-03-22 15:40:12.283,-2.736669842410966
2025-03-22 15:40:12.283,-2.636680299060155
2025-03-22 15:40:12.292,-0.1793525512914525
2025-03-22 15:40:12.292,3.326170196911115
2025-03-22 15:40:12.292,4.764396341814872
2025-03-22 15:40:12.293,2.0017426826995655
2025-03-22 15:40:12.293,-3.1728366676687227
2025-03-22 15:40:12.302,-6.035120761803519
2025-03-22 15:40:12.302,-3.6346440104845064
2025-03-22 15:40:12.303,1.8642995053749303
2025-03-22 15:40:12.303,5.255616981562716
2025-03-22 15:40:12.303,3.7434541004425275
2025-03-22 15:40:12.311,-0.33424531645735245
2025-03-22 15:40:12.311,-2.6021834838601947
2025-03-22 15:40:12.311,-1.696974541421065
2025-03-22 15:40:12.311,-0.10918955361706423
2025-03-22 15:40:12.311,-0.247612372118224
2025-03-22 15:40:12.321,-1.2723249218677777
2025-03-22 15:40:12.321,-0.726017262446856
2025-03-22 15:40:12.321,1.6700536794957639
2025-03-22 15:40:12.321,3.2994165977658234
2025-03-22 15:40:12.321,1.86721379229275
2025-03-22 15:40:12.331,-1.6197050344111692
2025-03-22 15:40:12.331,-3.7293345627126913
2025-03-22 15:40:12.331,-2.285443891179668
2025-03-22 15:40:12.331,1.2236011593513219
2025-03-22 15:40:12.340,3.1322414136473347
2025-03-22 15:40:12.341,1.554037647170041
2025-03-22 15:40:12.341,-1.4459227361505604
2025-03-22 15:40:12.341,-2.2120674489146883
2025-03-22 15:40:12.341,0.053244741343998564
2025-03-22 15:40:12.350,2.262310150011192
2025-03-22 15:40:12.351,1.4048646434771417
2025-03-22 15:40:12.351,-1.545200827488047
2025-03-22 15:40:12.351,-2.921181766457155
2025-03-22 15:40:12.351,-1.0354934001068714
2025-03-22 15:40:12.360,1.9171185384754776
2025-03-22 15:40:12.361,2.79882812090931
2025-03-22 15:40:12.361,1.107077904814258
2025-03-22 15:40:12.361,-1.060732152441996
2025-03-22 15:40:12.361,-1.7863786557840682
2025-03-22 15:40:12.370,-1.114264972966728
2025-03-22 15:40:12.371,-0.26961355774230006
2025-03-22 15:40:12.371,0.0862532244925878
2025-03-22 15:40:12.371,0.438348549668254
2025-03-22 15:40:12.371,1.3222034621831182
2025-03-22 15:40:12.380,1.9789368537406886
2025-03-22 15:40:12.380,0.8839406048874392
2025-03-22 15:40:12.381,-1.8787930429432396
2025-03-22 15:40:12.381,-3.675166902644179
2025-03-22 15:40:12.381,-2.097708816937646
2025-03-22 15:40:12.390,1.6855085721211558
2025-03-22 15:40:12.390,3.911636248746254
2025-03-22 15:40:12.391,2.6291598009247745
2025-03-22 15:40:12.391,-0.3606314318700181
2025-03-22 15:40:12.391,-2.2637731632451565
2025-03-22 15:40:12.400,-2.387137992095741
2025-03-22 15:40:12.400,-1.6156931426690606
2025-03-22 15:40:12.401,-0.3039165863130939
2025-03-22 15:40:12.401,1.5729848709375516
2025-03-22 15:40:12.401,2.839654834895671
2025-03-22 15:40:12.409,1.8562312625514947
2025-03-22 15:40:12.409,-0.761545540105532
2025-03-22 15:40:12.409,-2.1152517587963047
2025-03-22 15:40:12.409,-0.8762204597823798
2025-03-22 15:40:12.409,0.5115258555209844
2025-03-22 15:40:12.419,-0.5909755791954064
2025-03-22 15:40:12.419,-2.4392837861429477
2025-03-22 15:40:12.419,-0.8560260091080929
2025-03-22 15:40:12.419,4.03141114231878
2025-03-22 15:40:12.419,6.270195385255137
2025-03-22 15:40:12.429,1.4787397771956523
2025-03-22 15:40:12.429,-6.320113699687869
2025-03-22 15:40:12.429,-8.49839107556128
2025-03-22 15:40:12.429,-2.1709552195108106
2025-03-22 15:40:12.438,6.163717109389004
2025-03-22 15:40:12.439,8.17929325721813
2025-03-22 15:40:12.439,2.760936359035828
2025-03-22 15:40:12.439,-3.903112622269156
2025-03-22 15:40:12.439,-5.791566646670925
2025-03-22 15:40:12.449,-2.715192080488832
2025-03-22 15:40:12.449,1.1207531647732174
2025-03-22 15:40:12.449,2.37739651460837
2025-03-22 15:40:12.449,1.4449726166311132
2025-03-22 15:40:12.449,0.6663838538915713
2025-03-22 15:40:12.458,0.9227325823594282
2025-03-22 15:40:12.459,0.806684140552671
2025-03-22 15:40:12.459,-0.8960639149741196
2025-03-22 15:40:12.459,-2.92011186700025
2025-03-22 15:40:12.459,-2.750153350430561
2025-03-22 15:40:12.468,0.044786429984750256
2025-03-22 15:40:12.469,2.8938123636406767
2025-03-22 15:40:12.469,3.1272408743257234
2025-03-22 15:40:12.469,0.9319349932008398
2025-03-22 15:40:12.469,-1.2983310214557
2025-03-22 15:40:12.479,-1.9007725396971218
2025-03-22 15:40:12.479,-1.2647908070720255
2025-03-22 15:40:12.479,-0.4891456156673528
2025-03-22 15:40:12.479,0.13985589462356968
2025-03-22 15:40:12.479,0.8685270794838647
2025-03-22 15:40:12.488,1.3943417353450354
2025-03-22 15:40:12.489,0.9679791487681316
2025-03-22 15:40:12.489,-0.37682877544629423
2025-03-22 15:40:12.489,-1.3957150956101496
2025-03-22 15:40:12.489,-0.9492063306338827
2025-03-22 15:40:12.498,0.47804342860519256
2025-03-22 15:40:12.498,1.15320909263679
2025-03-22 15:40:12.499,0.18772838402307485
2025-03-22 15:40:12.499,-1.2050052887146971
2025-03-22 15:40:12.499,-1.1246354507157592
2025-03-22 15:40:12.508,0.5107325683176329
2025-03-22 15:40:12.509,1.7466398240918097
2025-03-22 15:40:12.509,1.155106102744107
2025-03-22 15:40:12.509,-0.3609644062006804
2025-03-22 15:40:12.509,-1.089948445528019
2025-03-22 15:40:12.518,-0.9288921843844407
2025-03-22 15:40:12.519,-0.9350060975898764
2025-03-22 15:40:12.519,-0.954297835387787
2025-03-22 15:40:12.519,0.40462032537642184
2025-03-22 15:40:12.519,2.9008101667355604
2025-03-22 15:40:12.527,3.574334900134703
2025-03-22 15:40:12.527,0.2534566128948498
2025-03-22 15:40:12.527,-4.5837754607976375
2025-03-22 15:40:12.527,-5.588211921444592
2025-03-22 15:40:12.527,-0.8216002829818468
2025-03-22 15:40:12.537,5.2123874885925705
2025-03-22 15:40:12.537,6.1653545882721295
2025-03-22 15:40:12.537,0.9958455426622786
2025-03-22 15:40:12.537,-4.78331260051715
2025-03-22 15:40:12.537,-5.255098606538344
2025-03-22 15:40:12.547,-0.4969833354713021
2025-03-22 15:40:12.547,3.9444548246816846
2025-03-22 15:40:12.547,3.502781348708983
2025-03-22 15:40:12.547,-0.5827360153987173
2025-03-22 15:40:12.556,-3.2691518922571055
2025-03-22 15:40:12.557,-1.7356791731132326
2025-03-22 15:40:12.557,1.6967951256098623
2025-03-22 15:40:12.557,2.802281303070107
2025-03-22 15:40:12.557,0.5164331551614187
2025-03-22 15:40:12.567,-2.244952543992304
2025-03-22 15:40:12.567,-2.408569378253741
2025-03-22 15:40:12.567,-0.09929135577806605
2025-03-22 15:40:12.567,2.105824628085398
2025-03-22 15:40:12.567,2.2170691424522033
2025-03-22 15:40:12.576,0.43758498907232046
2025-03-22 15:40:12.577,-1.5932330192553021
2025-03-22 15:40:12.577,-2.3053410326183683
2025-03-22 15:40:12.577,-1.1848451195224698
2025-03-22 15:40:12.577,0.9318039434380003
2025-03-22 15:40:12.586,2.355628162854034
2025-03-22 15:40:12.587,1.8506214247584636
2025-03-22 15:40:12.587,-0.16839785557004847
2025-03-22 15:40:12.587,-1.9085710155946156
2025-03-22 15:40:12.587,-1.941269763331194
2025-03-22 15:40:12.597,-0.5569553437090317
2025-03-22 15:40:12.597,0.8060583619866915
2025-03-22 15:40:12.597,1.2040486181220271
2025-03-22 15:40:12.597,0.8675892578306955
2025-03-22 15:40:12.597,0.4544106472904551
2025-03-22 15:40:12.606,0.16982755000311583
2025-03-22 15:40:12.607,-0.26685052516564883
2025-03-22 15:40:12.607,-1.0326913929155594
2025-03-22 15:40:12.607,-1.6668353292351004
2025-03-22 15:40:12.607,-1.2312699550902266
2025-03-22 15:40:12.616,0.6134342821599222
2025-03-22 15:40:12.617,2.6237941648369727
2025-03-22 15:40:12.617,2.7280825666445705
2025-03-22 15:40:12.617,0.33043985399932196
2025-03-22 15:40:12.617,-2.5557020634997722
2025-03-22 15:40:12.626,-3.2222938931787315
2025-03-22 15:40:12.627,-1.1741437698928063
2025-03-22 15:40:12.627,1.5497242781168732
2025-03-22 15:40:12.627,2.7624024458629832
2025-03-22 15:40:12.627,1.9405574307707196
2025-03-22 15:40:12.636,-0.1805297379155326
2025-03-22 15:40:12.637,-2.41946497162224
2025-03-22 15:40:12.637,-3.140635594743608
2025-03-22 15:40:12.637,-1.0163829044044108
2025-03-22 15:40:12.637,2.866738897648144
2025-03-22 15:40:12.646,4.717847434112094
2025-03-22 15:40:12.647,1.8244706886177968
2025-03-22 15:40:12.647,-3.4726218710364747
2025-03-22 15:40:12.647,-5.577912549512179
2025-03-22 15:40:12.647,-2.1217413400141276
2025-03-22 15:40:12.656,3.058548253663227
2025-03-22 15:40:12.656,4.616597755913403
2025-03-22 15:40:12.657,1.895112658077931
2025-03-22 15:40:12.657,-1.3164383740905534
2025-03-22 15:40:12.657,-2.134509944918895
2025-03-22 15:40:12.665,-1.3221951179093903
2025-03-22 15:40:12.665,-0.7478652095655965
2025-03-22 15:40:12.665,-0.4699938671258982
2025-03-22 15:40:12.665,0.49946862509754675
2025-03-22 15:40:12.674,1.8891035369982485
2025-03-22 15:40:12.675,2.146341186464823
2025-03-22 15:40:12.675,0.5184477923659094
2025-03-22 15:40:12.675,-1.7896946614476812
2025-03-22 15:40:12.675,-2.732517746268476
2025-03-22 15:40:12.684,-1.3954006842826359
2025-03-22 15:40:12.685,1.1107488080837522
2025-03-22 15:40:12.685,2.567328174601808
2025-03-22 15:40:12.685,1.6771012832082084
2025-03-22 15:40:12.685,-0.6159104442454069
2025-03-22 15:40:12.695,-2.037314166858361
2025-03-22 15:40:12.695,-1.3545054457027552
2025-03-22 15:40:12.695,0.4268562030712889
2025-03-22 15:40:12.695,1.3775777022312932
2025-03-22 15:40:12.695,0.7999603411548029
2025-03-22 15:40:12.704,-0.28500367989570324
2025-03-22 15:40:12.705,-0.6293385846873917
2025-03-22 15:40:12.705,-0.2083934426371874
2025-03-22 15:40:12.705,0.09058028586663744
2025-03-22 15:40:12.705,-0.13927606141901966
2025-03-22 15:40:12.714,-0.3534592527330059
2025-03-22 15:40:12.715,-0.0020362228514942747
2025-03-22 15:40:12.715,0.628334837922211
2025-03-22 15:40:12.715,0.7923937104879035
2025-03-22 15:40:12.715,0.18034686241429654
2025-03-22 15:40:12.724,-0.7609214251293476
2025-03-22 15:40:12.725,-1.1740390855950202
2025-03-22 15:40:12.725,-0.46606469286524405
2025-03-22 15:40:12.725,0.9525441273799552
2025-03-22 15:40:12.725,1.6300738997779909
2025-03-22 15:40:12.734,0.4770105037790675
2025-03-22 15:40:12.735,-1.5529779025911328
2025-03-22 15:40:12.735,-2.041331781474793
2025-03-22 15:40:12.735,-0.03694998079059335
2025-03-22 15:40:12.735,2.315740209813053
2025-03-22 15:40:12.743,2.134302160956308
2025-03-22 15:40:12.743,-0.5474565561470628
2025-03-22 15:40:12.743,-2.6667711855844107
2025-03-22 15:40:12.743,-1.842042611502682
2025-03-22 15:40:12.754,0.8242770545759457
2025-03-22 15:40:12.754,2.283052972637777
2025-03-22 15:40:12.755,1.2640310223494264
2025-03-22 15:40:12.755,-0.5480086753938551
2025-03-22 15:40:12.755,-1.1131910689330937
2025-03-22 15:40:12.755,-0.6172213741298082
2025-03-22 15:40:12.763,-0.4768163907051779
2025-03-22 15:40:12.763,-0.6493594744950909
2025-03-22 15:40:12.763,0.23636621401199065
2025-03-22 15:40:12.763,2.033226053225279
2025-03-22 15:40:12.763,2.384863818129235
2025-03-22 15:40:12.773,-0.06340307761189337
2025-03-22 15:40:12.773,-3.167530927828002
2025-03-22 15:40:12.773,-3.482415704434569
2025-03-22 15:40:12.773,-0.3999353247210832
2025-03-22 15:40:12.782,3.1265184569643742
2025-03-22 15:40:12.783,3.846735309196218
2025-03-22 15:40:12.783,1.3358394030890097
2025-03-22 15:40:12.783,-2.069114915678834
2025-03-22 15:40:12.783,-3.642950489504595
2025-03-22 15:40:12.793,-2.398546418861397
2025-03-22 15:40:12.793,0.5055743483206518
2025-03-22 15:40:12.793,2.9005778401476587
2025-03-22 15:40:12.793,3.184673647312723
2025-03-22 15:40:12.793,1.2492397011449277
2025-03-22 15:40:12.803,-1.6031954923097709
2025-03-22 15:40:12.803,-3.4436749214294524
2025-03-22 15:40:12.803,-2.852928911223937
2025-03-22 15:40:12.803,-0.02426362148578612
2025-03-22 15:40:12.803,3.006107700648008
2025-03-22 15:40:12.812,3.7342477877383864
2025-03-22 15:40:12.813,1.4339111705082996
2025-03-22 15:40:12.813,-1.9209960049521484
2025-03-22 15:40:12.813,-3.410677520079684
2025-03-22 15:40:12.813,-2.019007471623068
2025-03-22 15:40:12.822,0.5630683349628653
2025-03-22 15:40:12.823,2.0117697893239055
2025-03-22 15:40:12.823,1.6709022138654837
2025-03-22 15:40:12.823,0.5130368051037564
2025-03-22 15:40:12.823,-0.4595039211484691
2025-03-22 15:40:12.832,-0.9652771544267377
2025-03-22 15:40:12.833,-0.9198253890913053
2025-03-22 15:40:12.833,-0.19173358009271263
2025-03-22 15:40:12.833,0.7772486392388097
2025-03-22 15:40:12.833,0.8656618685921704
2025-03-22 15:40:12.842,-0.39996852213323725
2025-03-22 15:40:12.843,-1.6747162172220824
2025-03-22 15:40:12.843,-0.985769180080416
2025-03-22 15:40:12.843,1.585138683241297
2025-03-22 15:40:12.843,3.3138361535993273
2025-03-22 15:40:12.853,1.741798093578647
2025-03-22 15:40:12.853,-2.184396478016793
2025-03-22 15:40:12.853,-4.680731608940356
2025-03-22 15:40:12.853,-2.993483359062963
2025-03-22 15:40:12.853,1.6235594557068858
2025-03-22 15:40:12.862,4.968406558653015
2025-03-22 15:40:12.863,3.9256762649770343
2025-03-22 15:40:12.863,-0.4876395118642922
2025-03-22 15:40:12.863,-4.074041774014837
2025-03-22 15:40:12.863,-3.5959399985930998
2025-03-22 15:40:12.872,-0.028700556787742942
2025-03-22 15:40:12.873,2.5914345501941805
2025-03-22 15:40:12.873,1.7193910723735961
2025-03-22 15:40:12.873,-0.8607988063528427
2025-03-22 15:40:12.873,-1.4337739673282437
2025-03-22 15:40:12.882,0.8455491522179565
2025-03-22 15:40:12.882,2.8158613200296196
2025-03-22 15:40:12.883,1.3298056913306657
2025-03-22 15:40:12.883,-2.6259251312290863
2025-03-22 15:40:12.883,-4.756679816632841
2025-03-22 15:40:12.892,-2.2340981922702134
2025-03-22 15:40:12.892,2.9523118124580607
2025-03-22 15:40:12.893,5.742332302393709
2025-03-22 15:40:12.893,3.1941838602138053
2025-03-22 15:40:12.893,-2.283829534390681
2025-03-22 15:40:12.902,-5.3477025290197195
2025-03-22 15:40:12.903,-3.3402472900604923
2025-03-22 15:40:12.903,1.1751657721395246
2025-03-22 15:40:12.903,3.684598029710886
2025-03-22 15:40:12.903,2.605612430993297
2025-03-22 15:40:12.911,0.12308164854136017
2025-03-22 15:40:12.911,-1.1957886652773606
2025-03-22 15:40:12.911,-1.214547222277326
2025-03-22 15:40:12.911,-1.2621661242900313
2025-03-22 15:40:12.921,-1.4985002426045044
2025-03-22 15:40:12.921,-0.6209797824936224
2025-03-22 15:40:12.921,1.7380539401868444
2025-03-22 15:40:12.921,3.5771349991184027
2025-03-22 15:40:12.921,2.5068194686979646
2025-03-22 15:40:12.922,-1.1804751261166806
2025-03-22 15:40:12.931,-4.354413280146616
2025-03-22 15:40:12.931,-4.09275135290747
2025-03-22 15:40:12.931,-0.4320069104722777
2025-03-22 15:40:12.931,3.7646857370744575
2025-03-22 15:40:12.931,5.152246956042401
2025-03-22 15:40:12.941,2.478265817264715
2025-03-22 15:40:12.941,-2.2387438002098903
2025-03-22 15:40:12.941,-5.113788027823376
2025-03-22 15:40:12.941,-3.828123572175818
2025-03-22 15:40:12.951,0.17155822253050917
2025-03-22 15:40:12.951,3.368847335918713
2025-03-22 15:40:12.951,3.7766387418069214
2025-03-22 15:40:12.951,2.0870812983573406
2025-03-22 15:40:12.951,-0.24773166111899486
2025-03-22 15:40:12.960,-2.4868742412110625
2025-03-22 15:40:12.961,-3.8409995649467614
2025-03-22 15:40:12.961,-2.9390782702608913
2025-03-22 15:40:12.961,0.5123619325851523
2025-03-22 15:40:12.961,4.196727284331922
2025-03-22 15:40:12.970,4.816135318612879
2025-03-22 15:40:12.971,1.5350095376826507
2025-03-22 15:40:12.971,-2.92186356378528
2025-03-22 15:40:12.971,-4.853958955814981
2025-03-22 15:40:12.971,-2.950740623095741
2025-03-22 15:40:12.981,0.8631660249542065
2025-03-22 15:40:12.981,3.4727059934342543
2025-03-22 15:40:12.981,3.2582067275819493
2025-03-22 15:40:12.981,0.9933828433293775
2025-03-22 15:40:12.981,-1.4347039327440991
2025-03-22 15:40:12.991,-2.6896611523761247
2025-03-22 15:40:12.991,-2.375059178764925
2025-03-22 15:40:12.991,-0.6145847524881887
2025-03-22 15:40:12.991,1.8405307685779566
2025-03-22 15:40:12.991,3.306128913618447
2025-03-22 15:40:13.000,2.1753866812242615
2025-03-22 15:40:13.001,-1.0726569425215347
2025-03-22 15:40:13.001,-3.5488763061669784
2025-03-22 15:40:13.001,-2.7116353626154996
2025-03-22 15:40:13.001,0.5683472532509367
2025-03-22 15:40:13.011,2.7379728449849052
2025-03-22 15:40:13.011,1.7640729187485173
2025-03-22 15:40:13.011,-0.44909320053511226
2025-03-22 15:40:13.011,-0.8395369383558008
2025-03-22 15:40:13.011,0.4916558538271283
2025-03-22 15:40:13.019,0.5857296479086771
2025-03-22 15:40:13.019,-1.6309345510559448
2025-03-22 15:40:13.019,-3.056591692135776
2025-03-22 15:40:13.019,-0.5308737681161209
2025-03-22 15:40:13.020,3.941293333175302
2025-03-22 15:40:13.029,4.710979437367537
2025-03-22 15:40:13.029,-0.17905561483584623
2025-03-22 15:40:13.029,-5.496436603151553
2025-03-22 15:40:13.029,-4.747739582642514
2025-03-22 15:40:13.038,1.4738874996376183
2025-03-22 15:40:13.039,5.815943107123353
2025-03-22 15:40:13.039,3.266481306317414
2025-03-22 15:40:13.039,-2.662990403269484
2025-03-22 15:40:13.039,-4.691512278853131
2025-03-22 15:40:13.049,-1.0157776972348973
2025-03-22 15:40:13.049,3.04528007637316
2025-03-22 15:40:13.049,2.5313817676442514
2025-03-22 15:40:13.049,-1.0036899286902168
2025-03-22 15:40:13.049,-2.4390738467888453
2025-03-22 15:40:13.059,-0.2346277413498581
2025-03-22 15:40:13.059,2.072989188331846
2025-03-22 15:40:13.059,1.2618617683924824
2025-03-22 15:40:13.059,-1.3196682647193065
2025-03-22 15:40:13.059,-2.111774550105382
2025-03-22 15:40:13.069,-0.2763632412873305
2025-03-22 15:40:13.069,1.6524285565507686
2025-03-22 15:40:13.069,1.5144125140443887
2025-03-22 15:40:13.069,0.005021109007198515
2025-03-22 15:40:13.069,-0.9468556457693915
2025-03-22 15:40:13.079,-0.7587590636623992
2025-03-22 15:40:13.079,-0.23507983676397953
2025-03-22 15:40:13.079,0.023581095803716
2025-03-22 15:40:13.079,0.1423694248181727
2025-03-22 15:40:13.079,0.2773141858000456
2025-03-22 15:40:13.088,0.33978515923429164
2025-03-22 15:40:13.089,0.34347739325999893
2025-03-22 15:40:13.089,0.322091482948994
2025-03-22 15:40:13.089,-0.03646957230247863
2025-03-22 15:40:13.089,-0.9208430593653718
2025-03-22 15:40:13.099,-1.5123157483542833
2025-03-22 15:40:13.099,-0.5427177656048268
2025-03-22 15:40:13.099,1.7121443907180969
2025-03-22 15:40:13.099,2.8689096810922043
2025-03-22 15:40:13.099,1.0139598656619329
2025-03-22 15:40:13.108,-2.4351924042850404
2025-03-22 15:40:13.109,-3.772274020732607
2025-03-22 15:40:13.109,-1.2993365981210836
2025-03-22 15:40:13.109,2.4827319607581386
2025-03-22 15:40:13.109,3.7347596687282527
2025-03-22 15:40:13.118,1.5671997330811012
2025-03-22 15:40:13.119,-1.4842463530317034
2025-03-22 15:40:13.119,-2.739321805008644
2025-03-22 15:40:13.119,-1.8748374774681555
2025-03-22 15:40:13.119,-0.1750930991438271
2025-03-22 15:40:13.128,1.314351417045532
2025-03-22 15:40:13.129,2.0872717522654756
2025-03-22 15:40:13.129,1.5872782591482015
2025-03-22 15:40:13.129,-0.2918263548211194
2025-03-22 15:40:13.129,-2.18991408156681
2025-03-22 15:40:13.138,-2.1022864628157345
2025-03-22 15:40:13.139,0.15875639817118273
2025-03-22 15:40:13.139,2.2270778400716744
2025-03-22 15:40:13.139,1.8031351784303975
2025-03-22 15:40:13.139,-0.5104861809463828
2025-03-22 15:40:13.147,-1.995652058723405
2025-03-22 15:40:13.147,-1.2223277545433184
2025-03-22 15:40:13.147,0.4729759551639908
2025-03-22 15:40:13.147,1.1472840887848188
2025-03-22 15:40:13.148,0.725477827616147
2025-03-22 15:40:13.157,0.4092485476281574
2025-03-22 15:40:13.157,0.391369694148849
2025-03-22 15:40:13.157,-0.33642121789682655
2025-03-22 15:40:13.157,-1.792586428134496
2025-03-22 15:40:13.158,-2.1525100188206796
2025-03-22 15:40:13.167,-0.10723288316448674
2025-03-22 15:40:13.167,2.782931448110705
2025-03-22 15:40:13.167,3.4259482784279536
2025-03-22 15:40:13.167,0.8188706967267084
2025-03-22 15:40:13.168,-2.655295219564587
2025-03-22 15:40:13.177,-3.7727887012322485
2025-03-22 15:40:13.177,-1.7018566234918753
2025-03-22 15:40:13.177,1.4936402424070738
2025-03-22 15:40:13.177,3.0848911521736904
2025-03-22 15:40:13.178,2.1283457373085306
2025-03-22 15:40:13.187,-0.05011939559055441
2025-03-22 15:40:13.187,-1.4940820099625156
2025-03-22 15:40:13.187,-1.5399759854384771
2025-03-22 15:40:13.187,-0.9539497984633708
2025-03-22 15:40:13.197,-0.4226814060321443
2025-03-22 15:40:13.197,0.27964465142213035
2025-03-22 15:40:13.197,1.2814641828738753
2025-03-22 15:40:13.197,1.673901799897993
2025-03-22 15:40:13.197,0.5993778957400621
2025-03-22 15:40:13.207,-1.1109203488537513
2025-03-22 15:40:13.207,-1.6023474348618425
2025-03-22 15:40:13.207,-0.44468934356591666
2025-03-22 15:40:13.207,0.7079897033928394
2025-03-22 15:40:13.207,0.45535151430006665
2025-03-22 15:40:13.217,-0.3704708630618635
2025-03-22 15:40:13.217,-0.12747548437493172
2025-03-22 15:40:13.217,0.9336493701406966
2025-03-22 15:40:13.217,0.952605358109766
2025-03-22 15:40:13.217,-0.5824573063003389
2025-03-22 15:40:13.227,-1.798691465357489
2025-03-22 15:40:13.227,-0.992361280946884
2025-03-22 15:40:13.227,1.0377157060871427
2025-03-22 15:40:13.227,2.087543325499665
2025-03-22 15:40:13.227,1.1486284986342816
2025-03-22 15:40:13.237,-0.8733977202057858
2025-03-22 15:40:13.237,-2.3659237564876605
2025-03-22 15:40:13.237,-2.143554944836035
2025-03-22 15:40:13.237,0.024756839751342047
2025-03-22 15:40:13.237,2.909950847944533
2025-03-22 15:40:13.246,3.968611876092783
2025-03-22 15:40:13.247,1.344164515986887
2025-03-22 15:40:13.247,-3.4693693147257245
2025-03-22 15:40:13.247,-5.88518645303866
2025-03-22 15:40:13.247,-2.688319681706094
2025-03-22 15:40:13.256,3.685228016010244
2025-03-22 15:40:13.257,6.838237542082799
2025-03-22 15:40:13.257,3.2798464704292964
2025-03-22 15:40:13.257,-3.3564435793106506
2025-03-22 15:40:13.257,-6.199885488670821
2025-03-22 15:40:13.267,-2.8000787274337036
2025-03-22 15:40:13.267,2.5455651069992644
2025-03-22 15:40:13.267,4.24806833068615
2025-03-22 15:40:13.267,1.6158316670482562
2025-03-22 15:40:13.267,-1.4692088042211342
2025-03-22 15:40:13.276,-1.906033212179935
2025-03-22 15:40:13.277,-0.4951864714597463
2025-03-22 15:40:13.277,0.3378957730971429
2025-03-22 15:40:13.277,0.057388082394808936
2025-03-22 15:40:13.277,-0.014983757978059675
2025-03-22 15:40:13.285,0.662718809466242
2025-03-22 15:40:13.285,0.9388859080386431
2025-03-22 15:40:13.285,-0.06026600966074615
