timestamp,bandpass_and_notch
2025-03-23 14:52:49.259,-0.19581398954427665
2025-03-23 14:52:49.260,5.714751270329739
2025-03-23 14:52:49.260,5.751395445497782
2025-03-23 14:52:49.260,-4.811490338452016
2025-03-23 14:52:49.268,-18.53176520788811
2025-03-23 14:52:49.269,-15.120293570119154
2025-03-23 14:52:49.269,13.29523303260093
2025-03-23 14:52:49.269,40.8730582910794
2025-03-23 14:52:49.269,30.427852202588785
2025-03-23 14:52:49.277,-18.49166579760327
2025-03-23 14:52:49.277,-59.09089058929344
2025-03-23 14:52:49.277,-46.267234556352065
2025-03-23 14:52:49.277,11.028077190349084
2025-03-23 14:52:49.285,57.846810311434474
2025-03-23 14:52:49.285,51.97918585761289
2025-03-23 14:52:49.285,4.914459492469636
2025-03-23 14:52:49.286,-36.877453555766174
2025-03-23 14:52:49.295,-41.609279240424755
2025-03-23 14:52:49.295,-16.65344574979943
2025-03-23 14:52:49.295,9.914847832684405
2025-03-23 14:52:49.295,20.36423668706294
2025-03-23 14:52:49.295,17.008531623901938
2025-03-23 14:52:49.303,9.44340061819922
2025-03-23 14:52:49.303,1.6951857799772534
2025-03-23 14:52:49.303,-6.836666760914859
2025-03-23 14:52:49.304,-13.988653398547694
2025-03-23 14:52:49.313,-14.152073925153992
2025-03-23 14:52:49.313,-5.179867173063252
2025-03-23 14:52:49.313,7.201356044272576
2025-03-23 14:52:49.313,13.825196184975109
2025-03-23 14:52:49.313,10.450952761960885
2025-03-23 14:52:49.323,1.0154344956310446
2025-03-23 14:52:49.323,-6.80414800743109
2025-03-23 14:52:49.323,-8.292870491256132
2025-03-23 14:52:49.323,-4.374433497642252
2025-03-23 14:52:49.323,0.736644255299572
2025-03-23 14:52:49.333,3.452771640227718
2025-03-23 14:52:49.333,2.9875796535992785
2025-03-23 14:52:49.333,0.9602209007717404
2025-03-23 14:52:49.333,-0.5645270989210571
2025-03-23 14:52:49.333,-0.8150101273793486
2025-03-23 14:52:49.343,-0.3736219965588363
2025-03-23 14:52:49.343,0.09019731526713948
2025-03-23 14:52:49.343,0.5273095974120334
2025-03-23 14:52:49.343,0.8420554884620748
2025-03-23 14:52:49.343,0.34880163630215005
2025-03-23 14:52:49.353,-1.2523285512091973
2025-03-23 14:52:49.353,-2.635231384990715
2025-03-23 14:52:49.353,-1.7436136198306933
2025-03-23 14:52:49.353,1.4932030561806493
2025-03-23 14:52:49.353,4.136415965393361
2025-03-23 14:52:49.361,3.064114325907995
2025-03-23 14:52:49.361,-1.1963683394360023
2025-03-23 14:52:49.361,-4.4563120869709945
2025-03-23 14:52:49.362,-3.234374292609512
2025-03-23 14:52:49.371,1.2912834913099807
2025-03-23 14:52:49.371,4.342892944820591
2025-03-23 14:52:49.371,2.6543887568670197
2025-03-23 14:52:49.371,-1.954813952468035
2025-03-23 14:52:49.371,-4.5763433286775035
2025-03-23 14:52:49.372,-2.540629457171866
2025-03-23 14:52:49.381,1.9457494066837486
2025-03-23 14:52:49.381,4.513475946776841
2025-03-23 14:52:49.381,3.1311463318898554
2025-03-23 14:52:49.382,-0.5182483550560972
2025-03-23 14:52:49.382,-3.3452151146877274
2025-03-23 14:52:49.391,-3.5812311402488497
2025-03-23 14:52:49.391,-1.4811164624306785
2025-03-23 14:52:49.391,1.4652873841838856
2025-03-23 14:52:49.392,3.3774632849606796
2025-03-23 14:52:49.392,2.7988264049464155
2025-03-23 14:52:49.401,-0.11663433528339966
2025-03-23 14:52:49.401,-3.062599071990997
2025-03-23 14:52:49.401,-3.1960373536930584
2025-03-23 14:52:49.401,-0.062220463994162534
2025-03-23 14:52:49.411,3.3931664176911904
2025-03-23 14:52:49.411,3.5009316758222435
2025-03-23 14:52:49.411,-0.19345605673585928
2025-03-23 14:52:49.411,-4.096681116688798
2025-03-23 14:52:49.412,-4.147444170942049
2025-03-23 14:52:49.421,-0.13793498849765606
2025-03-23 14:52:49.421,4.022230797605134
2025-03-23 14:52:49.421,4.437574579897201
2025-03-23 14:52:49.421,1.1074880667825044
2025-03-23 14:52:49.422,-2.5739936557086107
2025-03-23 14:52:49.431,-3.599067343944247
2025-03-23 14:52:49.431,-1.9205644858562165
2025-03-23 14:52:49.431,0.4603197997616982
2025-03-23 14:52:49.431,1.8709782791621339
2025-03-23 14:52:49.431,1.9316630951948695
2025-03-23 14:52:49.440,0.9909320761374121
2025-03-23 14:52:49.441,-0.34076262766154863
2025-03-23 14:52:49.441,-1.2279631236375785
2025-03-23 14:52:49.441,-1.0748192451187597
2025-03-23 14:52:49.441,-0.19326957963099972
2025-03-23 14:52:49.451,0.45389900118347665
2025-03-23 14:52:49.451,0.3167445140167703
2025-03-23 14:52:49.451,-0.21731948829171785
2025-03-23 14:52:49.451,-0.36468190909287124
2025-03-23 14:52:49.451,0.2317315275337453
2025-03-23 14:52:49.460,1.1441162871925479
2025-03-23 14:52:49.461,1.3776510493826435
2025-03-23 14:52:49.461,0.13648669159153154
2025-03-23 14:52:49.461,-2.122458256724927
2025-03-23 14:52:49.461,-3.3972013439623456
2025-03-23 14:52:49.471,-1.674553578482836
2025-03-23 14:52:49.471,2.563898696681795
2025-03-23 14:52:49.471,5.7386529287915575
2025-03-23 14:52:49.471,4.164249671752986
2025-03-23 14:52:49.471,-1.802023204736669
2025-03-23 14:52:49.481,-7.145716707613138
2025-03-23 14:52:49.481,-6.648725383576938
2025-03-23 14:52:49.481,-0.2571061899049682
2025-03-23 14:52:49.481,6.457714441952575
2025-03-23 14:52:49.481,7.620649549567106
2025-03-23 14:52:49.489,2.642165522420137
2025-03-23 14:52:49.489,-3.7152104838737023
2025-03-23 14:52:49.489,-6.301217202769539
2025-03-23 14:52:49.490,-3.96811050038943
2025-03-23 14:52:49.499,0.4884533116351689
2025-03-23 14:52:49.499,3.514136196822355
2025-03-23 14:52:49.499,3.5372113524794253
2025-03-23 14:52:49.499,1.4365065516347668
2025-03-23 14:52:49.500,-0.7730892754778295
2025-03-23 14:52:49.509,-1.7001599583032814
2025-03-23 14:52:49.509,-1.4880096915302732
2025-03-23 14:52:49.509,-1.1016478386834623
2025-03-23 14:52:49.509,-0.7510794481119887
2025-03-23 14:52:49.510,0.3527802905846458
2025-03-23 14:52:49.519,2.194792994165847
2025-03-23 14:52:49.519,2.8749819825366383
2025-03-23 14:52:49.519,0.7880228577749869
2025-03-23 14:52:49.519,-2.5129112763692776
2025-03-23 14:52:49.520,-3.489821819559714
2025-03-23 14:52:49.529,-1.043465404137232
2025-03-23 14:52:49.529,1.877587822944303
2025-03-23 14:52:49.529,2.0066845266687054
2025-03-23 14:52:49.529,-0.10395691712149066
2025-03-23 14:52:49.530,-1.0352967137339504
2025-03-23 14:52:49.539,0.7904116147949426
2025-03-23 14:52:49.539,2.785186965083396
2025-03-23 14:52:49.539,1.335728895446422
2025-03-23 14:52:49.539,-3.2575846715952483
2025-03-23 14:52:49.539,-6.152611974950847
2025-03-23 14:52:49.549,-3.083737741818938
2025-03-23 14:52:49.549,4.1567394153156005
2025-03-23 14:52:49.549,8.546642055171093
2025-03-23 14:52:49.549,5.059221270796884
2025-03-23 14:52:49.549,-3.4227656807318394
2025-03-23 14:52:49.559,-8.664119165266696
2025-03-23 14:52:49.559,-5.7504613010399925
2025-03-23 14:52:49.559,1.872734695201979
2025-03-23 14:52:49.559,6.5537312763644096
2025-03-23 14:52:49.559,4.627003921579572
2025-03-23 14:52:49.567,-0.5920628792203908
2025-03-23 14:52:49.567,-3.4862869109795227
2025-03-23 14:52:49.567,-2.277008825711444
2025-03-23 14:52:49.568,0.20703001824223607
2025-03-23 14:52:49.579,0.8760215085034346
2025-03-23 14:52:49.579,-0.11509997091867324
2025-03-23 14:52:49.579,-0.5195729403187387
2025-03-23 14:52:49.579,0.5923806469362145
2025-03-23 14:52:49.579,1.7133853184671621
2025-03-23 14:52:49.580,1.0236067498309114
2025-03-23 14:52:49.587,-1.1569607477528197
2025-03-23 14:52:49.587,-2.4994951106802974
2025-03-23 14:52:49.588,-1.298766697228573
2025-03-23 14:52:49.588,1.3367551039770285
2025-03-23 14:52:49.588,2.538957054764342
2025-03-23 14:52:49.599,1.0698777311389251
2025-03-23 14:52:49.599,-1.1598364100748668
2025-03-23 14:52:49.599,-1.6164540750989633
2025-03-23 14:52:49.599,-0.3922301052630738
2025-03-23 14:52:49.599,0.35077726003638454
2025-03-23 14:52:49.607,-0.17692294996400987
2025-03-23 14:52:49.607,-0.3217588667591784
2025-03-23 14:52:49.607,1.0416403891357566
2025-03-23 14:52:49.608,2.1772681901059805
2025-03-23 14:52:49.608,0.7275174730327547
2025-03-23 14:52:49.619,-2.483011065589996
2025-03-23 14:52:49.619,-3.7352727567467
2025-03-23 14:52:49.619,-0.8977818333963961
2025-03-23 14:52:49.619,3.5171527144428096
2025-03-23 14:52:49.619,4.7090976126765955
2025-03-23 14:52:49.627,0.9230329172570175
2025-03-23 14:52:49.627,-4.20326594121355
2025-03-23 14:52:49.627,-5.194138655211047
2025-03-23 14:52:49.628,-0.6887466763135868
2025-03-23 14:52:49.637,4.728283501027962
2025-03-23 14:52:49.637,5.236454478322981
2025-03-23 14:52:49.637,0.1830880707920507
2025-03-23 14:52:49.637,-4.9974395906940545
2025-03-23 14:52:49.638,-4.723166674157999
2025-03-23 14:52:49.647,0.4810546658079293
2025-03-23 14:52:49.647,4.697720713137333
2025-03-23 14:52:49.647,3.5188785745765516
2025-03-23 14:52:49.647,-1.1158943312767098
2025-03-23 14:52:49.647,-3.742535323094752
2025-03-23 14:52:49.657,-1.9217419851100728
2025-03-23 14:52:49.657,1.524167182481565
2025-03-23 14:52:49.657,2.547775221580278
2025-03-23 14:52:49.657,0.5442896938920861
2025-03-23 14:52:49.657,-1.6904367047856559
2025-03-23 14:52:49.665,-1.672418963207905
2025-03-23 14:52:49.665,0.2025918750804092
2025-03-23 14:52:49.666,1.6653137745232913
2025-03-23 14:52:49.666,1.301033850020442
2025-03-23 14:52:49.677,-0.16352780487260354
2025-03-23 14:52:49.677,-1.116487527233811
2025-03-23 14:52:49.677,-1.063992556447792
2025-03-23 14:52:49.677,-0.7734593430618473
2025-03-23 14:52:49.677,-0.5333576994728216
2025-03-23 14:52:49.677,0.5010877941276732
2025-03-23 14:52:49.685,2.390938569312603
2025-03-23 14:52:49.685,3.020284252047593
2025-03-23 14:52:49.685,0.4335351932940182
2025-03-23 14:52:49.686,-3.7066858050910807
2025-03-23 14:52:49.695,-5.011639012772416
2025-03-23 14:52:49.695,-1.4839429367807462
2025-03-23 14:52:49.695,3.639434886957474
2025-03-23 14:52:49.696,5.330223457518655
2025-03-23 14:52:49.696,2.307023357401854
2025-03-23 14:52:49.705,-2.055645801096233
2025-03-23 14:52:49.705,-3.9065747290438635
2025-03-23 14:52:49.705,-2.5996376238149814
2025-03-23 14:52:49.705,-0.12739456091977205
2025-03-23 14:52:49.705,1.6352186028097575
2025-03-23 14:52:49.715,2.193995726342231
2025-03-23 14:52:49.715,1.7303235202355263
2025-03-23 14:52:49.715,0.4117825465716461
2025-03-23 14:52:49.715,-1.286746896187971
2025-03-23 14:52:49.716,-2.251634555530121
2025-03-23 14:52:49.725,-1.5110055520047077
2025-03-23 14:52:49.725,0.49962154883045207
2025-03-23 14:52:49.725,1.980737304723603
2025-03-23 14:52:49.725,1.5402266936906204
2025-03-23 14:52:49.725,-0.2597949393783209
2025-03-23 14:52:49.735,-1.508142992211465
2025-03-23 14:52:49.735,-1.038437914625163
2025-03-23 14:52:49.735,0.40048576773908495
2025-03-23 14:52:49.735,1.1474960706001274
2025-03-23 14:52:49.735,0.5545954970984689
2025-03-23 14:52:49.745,-0.4257251952222987
2025-03-23 14:52:49.745,-0.6156671806813209
2025-03-23 14:52:49.745,-0.10912278164732671
2025-03-23 14:52:49.745,0.07584395696664906
2025-03-23 14:52:49.745,-0.3932071905334697
2025-03-23 14:52:49.755,-0.6085702580401682
2025-03-23 14:52:49.755,0.26511873989600243
2025-03-23 14:52:49.755,1.594234023425058
2025-03-23 14:52:49.755,1.7493408305541627
2025-03-23 14:52:49.755,0.01934830131768686
2025-03-23 14:52:49.763,-2.300747490591832
2025-03-23 14:52:49.763,-2.9839249345691337
2025-03-23 14:52:49.764,-1.048631764962755
2025-03-23 14:52:49.764,2.0901807573734503
2025-03-23 14:52:49.774,3.662626512068626
2025-03-23 14:52:49.775,2.0986839391797143
2025-03-23 14:52:49.775,-1.2133261149423835
2025-03-23 14:52:49.775,-3.1405200180467805
2025-03-23 14:52:49.775,-2.1298462197472974
2025-03-23 14:52:49.775,0.2130166216400145
2025-03-23 14:52:49.783,1.3492695021702887
2025-03-23 14:52:49.783,0.8798671343300883
2025-03-23 14:52:49.784,0.4191803388990581
2025-03-23 14:52:49.784,0.831150099992807
2025-03-23 14:52:49.793,0.9736207671796486
2025-03-23 14:52:49.793,-0.3544224856228057
2025-03-23 14:52:49.794,-2.2300004112290828
2025-03-23 14:52:49.794,-2.434310639666224
2025-03-23 14:52:49.794,-0.2940637378882903
2025-03-23 14:52:49.803,2.24768213535438
2025-03-23 14:52:49.803,2.7693744563458766
2025-03-23 14:52:49.803,1.0272527623060594
2025-03-23 14:52:49.803,-1.0644997466598485
2025-03-23 14:52:49.803,-1.834954631544068
2025-03-23 14:52:49.813,-1.4527898690196155
2025-03-23 14:52:49.813,-0.857048760499927
2025-03-23 14:52:49.813,0.019015886435220734
2025-03-23 14:52:49.814,1.7301262371803388
2025-03-23 14:52:49.814,3.203628283243327
2025-03-23 14:52:49.823,1.9636546566881183
2025-03-23 14:52:49.823,-2.2987983763217037
2025-03-23 14:52:49.823,-5.607307240958473
2025-03-23 14:52:49.823,-3.4224878133926104
2025-03-23 14:52:49.824,3.2226382499337825
2025-03-23 14:52:49.833,7.433439320027678
2025-03-23 14:52:49.833,3.9620062646116305
2025-03-23 14:52:49.833,-4.053697732959043
2025-03-23 14:52:49.833,-8.021050037937698
2025-03-23 14:52:49.833,-3.64142971546348
2025-03-23 14:52:49.843,4.228483643031735
2025-03-23 14:52:49.843,7.304293898599422
2025-03-23 14:52:49.843,2.9852591795168637
2025-03-23 14:52:49.843,-3.5902362831281813
2025-03-23 14:52:49.843,-5.818423892240615
2025-03-23 14:52:49.853,-2.4016913986930355
2025-03-23 14:52:49.853,2.3731388911522178
2025-03-23 14:52:49.853,3.9428942011215367
2025-03-23 14:52:49.853,1.894597682420137
2025-03-23 14:52:49.854,-0.8450501195404128
2025-03-23 14:52:49.863,-1.9298565379335142
2025-03-23 14:52:49.863,-1.513787509067282
2025-03-23 14:52:49.863,-0.6938260732624617
2025-03-23 14:52:49.863,0.278323763242235
2025-03-23 14:52:49.863,1.4247878262084925
2025-03-23 14:52:49.873,1.8464490595535368
2025-03-23 14:52:49.873,0.6126406863990865
2025-03-23 14:52:49.873,-1.4146122905280782
2025-03-23 14:52:49.873,-2.1261298810532194
2025-03-23 14:52:49.873,-0.8219669931362228
2025-03-23 14:52:49.881,0.9010387329645484
2025-03-23 14:52:49.882,1.3554914481939357
2025-03-23 14:52:49.882,0.7090862298167201
2025-03-23 14:52:49.882,0.1011295581542371
2025-03-23 14:52:49.882,-0.13995195749846998
2025-03-23 14:52:49.891,-0.44956327655924966
2025-03-23 14:52:49.891,-0.8012642515114194
2025-03-23 14:52:49.892,-0.5941221466400004
2025-03-23 14:52:49.892,0.22186069693180172
2025-03-23 14:52:49.892,0.7447228126434884
2025-03-23 14:52:49.901,0.30434887117818504
2025-03-23 14:52:49.901,-0.431424639340423
2025-03-23 14:52:49.902,-0.2464494221905224
2025-03-23 14:52:49.902,0.8110005953075636
2025-03-23 14:52:49.911,1.2059377565191638
2025-03-23 14:52:49.911,-0.08765180326597785
2025-03-23 14:52:49.911,-1.9229571474445664
2025-03-23 14:52:49.912,-2.087055163664397
2025-03-23 14:52:49.912,-0.05166375375755919
2025-03-23 14:52:49.921,2.1684313368513743
2025-03-23 14:52:49.921,2.33537264005699
2025-03-23 14:52:49.921,0.5390414094168431
2025-03-23 14:52:49.921,-1.2576473639947507
2025-03-23 14:52:49.922,-1.6941410154717307
2025-03-23 14:52:49.931,-1.0602912517568364
2025-03-23 14:52:49.931,-0.16865603475083196
2025-03-23 14:52:49.931,0.6324983679102322
2025-03-23 14:52:49.932,1.1437363953623088
2025-03-23 14:52:49.932,1.0173637739668078
2025-03-23 14:52:49.941,0.2864080064850988
2025-03-23 14:52:49.941,-0.40661975988769755
2025-03-23 14:52:49.941,-0.6144516910965946
2025-03-23 14:52:49.941,-0.6878182965804208
2025-03-23 14:52:49.941,-0.9999241881168596
2025-03-23 14:52:49.951,-0.9371044905993442
2025-03-23 14:52:49.951,0.3999652624696797
2025-03-23 14:52:49.951,2.380247732827964
2025-03-23 14:52:49.951,2.7735699753325425
2025-03-23 14:52:49.952,0.3385353428261356
2025-03-23 14:52:49.961,-3.0124659398751112
2025-03-23 14:52:49.961,-3.7789595981555766
2025-03-23 14:52:49.961,-0.8914495226344027
2025-03-23 14:52:49.961,2.7096379389071035
2025-03-23 14:52:49.962,3.28710992809194
2025-03-23 14:52:49.971,0.6473393634053461
2025-03-23 14:52:49.971,-1.7925318135323913
2025-03-23 14:52:49.971,-1.3714236108347844
2025-03-23 14:52:49.971,0.5647563353082343
2025-03-23 14:52:49.972,0.7543711352126211
2025-03-23 14:52:49.981,-1.2799014036258345
2025-03-23 14:52:49.981,-2.345349996706019
2025-03-23 14:52:49.981,-0.04128546775113258
2025-03-23 14:52:49.982,3.4510749024686533
2025-03-23 14:52:49.982,3.828639623028608
2025-03-23 14:52:49.991,0.24051444801458455
2025-03-23 14:52:49.991,-3.689345558514074
2025-03-23 14:52:49.991,-4.402740572180726
2025-03-23 14:52:49.992,-1.9220348521065458
2025-03-23 14:52:49.992,1.4940652968289148
2025-03-23 14:52:50.001,4.009977609693323
2025-03-23 14:52:50.001,4.4948534366148625
2025-03-23 14:52:50.001,2.076725795283798
2025-03-23 14:52:50.001,-2.587524429464954
2025-03-23 14:52:50.002,-6.23569432036116
2025-03-23 14:52:50.011,-5.2346609062313245
2025-03-23 14:52:50.011,0.3547112449214531
2025-03-23 14:52:50.011,5.92719249991795
2025-03-23 14:52:50.011,6.5384783283952865
2025-03-23 14:52:50.012,1.8132879183413237
2025-03-23 14:52:50.021,-3.8433611775462717
2025-03-23 14:52:50.021,-5.714916320936316
2025-03-23 14:52:50.021,-2.9723009874419395
2025-03-23 14:52:50.021,1.3153521773529369
2025-03-23 14:52:50.021,3.5528311853269883
2025-03-23 14:52:50.029,2.6872037487054063
2025-03-23 14:52:50.029,0.4000193572357672
2025-03-23 14:52:50.030,-1.088783232476195
2025-03-23 14:52:50.030,-1.1503208876670343
2025-03-23 14:52:50.030,-0.8182679059812386
2025-03-23 14:52:50.041,-0.9918390001583042
2025-03-23 14:52:50.041,-1.0151209308802944
2025-03-23 14:52:50.041,0.3448524812522393
2025-03-23 14:52:50.041,2.5348999646496493
2025-03-23 14:52:50.041,2.9678462203205855
2025-03-23 14:52:50.049,0.1327898417443243
2025-03-23 14:52:50.049,-3.664575255904182
2025-03-23 14:52:50.050,-4.160404211744531
2025-03-23 14:52:50.050,-0.11661470152351563
2025-03-23 14:52:50.059,4.580896613613012
2025-03-23 14:52:50.059,4.765244562157912
2025-03-23 14:52:50.059,-0.21247052404992656
2025-03-23 14:52:50.059,-5.346004141075155
2025-03-23 14:52:50.060,-5.129300167246641
2025-03-23 14:52:50.069,0.44781658534878666
2025-03-23 14:52:50.069,5.693641995572053
2025-03-23 14:52:50.069,5.190509132971094
2025-03-23 14:52:50.069,-0.46435425485512116
2025-03-23 14:52:50.069,-5.373759845402514
2025-03-23 14:52:50.079,-4.68231797959833
2025-03-23 14:52:50.079,0.43138812123032083
2025-03-23 14:52:50.079,4.446585250049689
2025-03-23 14:52:50.079,3.6302240606338056
2025-03-23 14:52:50.080,-0.388108273860296
2025-03-23 14:52:50.089,-3.1496158051076586
2025-03-23 14:52:50.089,-2.4214885320431185
2025-03-23 14:52:50.089,0.1070952100723685
2025-03-23 14:52:50.089,1.6480454156244078
2025-03-23 14:52:50.090,1.442406793998911
2025-03-23 14:52:50.099,0.580501554378354
2025-03-23 14:52:50.099,-0.1157450608978307
2025-03-23 14:52:50.099,-0.7442959403279322
2025-03-23 14:52:50.099,-1.2693877353794458
2025-03-23 14:52:50.100,-1.1210163306681307
2025-03-23 14:52:50.107,-0.05759046925452006
2025-03-23 14:52:50.107,1.2900990675002675
2025-03-23 14:52:50.108,1.8970233648316155
2025-03-23 14:52:50.108,1.120456966548001
2025-03-23 14:52:50.108,-0.7031212997246545
2025-03-23 14:52:50.119,-2.166177260624676
2025-03-23 14:52:50.119,-1.8385478237553032
2025-03-23 14:52:50.119,0.10705209976558623
2025-03-23 14:52:50.119,1.7700551772360482
2025-03-23 14:52:50.120,1.5744713599543776
2025-03-23 14:52:50.127,0.106230604938825
2025-03-23 14:52:50.127,-0.7464274547700049
2025-03-23 14:52:50.128,-0.2945307944860898
2025-03-23 14:52:50.128,0.19956886554317782
2025-03-23 14:52:50.128,-0.4467047379574198
2025-03-23 14:52:50.139,-1.4258587895333519
2025-03-23 14:52:50.139,-0.9494301762226269
2025-03-23 14:52:50.139,1.1259276626067918
2025-03-23 14:52:50.139,2.680203039129731
2025-03-23 14:52:50.140,1.7422324420420623
2025-03-23 14:52:50.147,-1.0016400396421217
2025-03-23 14:52:50.148,-2.7918599025629858
2025-03-23 14:52:50.148,-1.903008258787413
2025-03-23 14:52:50.148,0.47370245654164966
2025-03-23 14:52:50.148,1.8010522499496
2025-03-23 14:52:50.159,1.095685599814701
2025-03-23 14:52:50.159,-0.3307439479804916
2025-03-23 14:52:50.159,-0.6970955970032081
2025-03-23 14:52:50.159,0.28853912466377785
2025-03-23 14:52:50.159,1.2404035449420603
2025-03-23 14:52:50.167,0.6118360571183733
2025-03-23 14:52:50.167,-1.4596953045853094
2025-03-23 14:52:50.168,-2.859574687632659
2025-03-23 14:52:50.168,-1.579732427359761
2025-03-23 14:52:50.177,1.7223513527073497
2025-03-23 14:52:50.177,3.877763433439688
2025-03-23 14:52:50.177,2.502736276380542
2025-03-23 14:52:50.178,-1.149962019051068
2025-03-23 14:52:50.178,-3.365209947629858
2025-03-23 14:52:50.187,-2.1118292646217705
2025-03-23 14:52:50.187,0.6868602780459538
2025-03-23 14:52:50.187,1.60598873989216
2025-03-23 14:52:50.188,-0.0012391055502466164
2025-03-23 14:52:50.188,-1.260610032214123
2025-03-23 14:52:50.197,0.29115853127053465
2025-03-23 14:52:50.197,3.0332263429648756
2025-03-23 14:52:50.197,2.914404951162489
2025-03-23 14:52:50.198,-1.2142421543633055
2025-03-23 14:52:50.198,-5.433314675018421
2025-03-23 14:52:50.207,-4.9144064011945146
2025-03-23 14:52:50.207,0.5121717840104113
2025-03-23 14:52:50.207,5.966630776514927
2025-03-23 14:52:50.207,6.440831436852042
2025-03-23 14:52:50.208,1.5107802349969022
2025-03-23 14:52:50.217,-4.534983409401431
2025-03-23 14:52:50.217,-6.692745354247229
2025-03-23 14:52:50.217,-3.550433942498655
2025-03-23 14:52:50.218,1.8501596711113157
2025-03-23 14:52:50.218,5.145332911758041
2025-03-23 14:52:50.227,4.461899507704622
2025-03-23 14:52:50.227,1.186562030389703
2025-03-23 14:52:50.227,-2.2305327653071756
2025-03-23 14:52:50.227,-4.175293198281219
2025-03-23 14:52:50.228,-3.801728781200704
2025-03-23 14:52:50.237,-0.8393673143720085
2025-03-23 14:52:50.237,3.306945937322354
2025-03-23 14:52:50.237,5.364542829214903
2025-03-23 14:52:50.237,3.0103415384251537
2025-03-23 14:52:50.237,-2.091739770559628
2025-03-23 14:52:50.245,-5.447543737254514
2025-03-23 14:52:50.246,-4.19449556661839
2025-03-23 14:52:50.246,0.3481075200009459
2025-03-23 14:52:50.246,4.345608602388555
2025-03-23 14:52:50.257,4.775241034427674
2025-03-23 14:52:50.257,1.4981881277865532
2025-03-23 14:52:50.257,-2.764721205851878
2025-03-23 14:52:50.257,-4.504698669236378
2025-03-23 14:52:50.257,-2.475204414137699
2025-03-23 14:52:50.258,1.0808175451152602
2025-03-23 14:52:50.265,2.8360094595217245
2025-03-23 14:52:50.265,1.9487953342593807
2025-03-23 14:52:50.266,0.41867226228880894
2025-03-23 14:52:50.266,-0.056532220521521244
2025-03-23 14:52:50.277,-0.17772279573767658
2025-03-23 14:52:50.277,-1.234908184903695
2025-03-23 14:52:50.277,-2.4565923106348913
2025-03-23 14:52:50.277,-1.775833082710455
2025-03-23 14:52:50.277,1.0155964006546276
2025-03-23 14:52:50.278,3.3757926281199104
2025-03-23 14:52:50.285,2.8262667179906558
2025-03-23 14:52:50.285,-0.12221451103893075
2025-03-23 14:52:50.285,-2.5589447439607533
2025-03-23 14:52:50.286,-2.430600864569106
2025-03-23 14:52:50.297,-0.522188930885686
2025-03-23 14:52:50.297,0.9216907515195026
2025-03-23 14:52:50.297,0.8657864016383505
2025-03-23 14:52:50.297,0.21439482054722686
2025-03-23 14:52:50.298,0.21493981511108312
2025-03-23 14:52:50.298,0.8467046011730973
2025-03-23 14:52:50.305,0.9968436735985968
2025-03-23 14:52:50.305,-0.053599944817912165
2025-03-23 14:52:50.306,-1.6167187063480202
2025-03-23 14:52:50.306,-2.202994610676872
2025-03-23 14:52:50.315,-1.0834284471498696
2025-03-23 14:52:50.315,0.9425863811621509
2025-03-23 14:52:50.316,2.3484951081933074
2025-03-23 14:52:50.316,2.2153885968949134
2025-03-23 14:52:50.316,0.7465958836568611
2025-03-23 14:52:50.316,-1.1556236881342776
2025-03-23 14:52:50.325,-2.4714666294804433
2025-03-23 14:52:50.325,-2.3927016205605325
2025-03-23 14:52:50.326,-0.7005236670859698
2025-03-23 14:52:50.326,1.7222859947858071
2025-03-23 14:52:50.335,3.058367854599316
2025-03-23 14:52:50.335,2.006198415637421
2025-03-23 14:52:50.336,-0.6735548147736675
2025-03-23 14:52:50.336,-2.556643294118554
2025-03-23 14:52:50.336,-1.9462734822647192
2025-03-23 14:52:50.336,0.2818763653410624
2025-03-23 14:52:50.345,1.6090339890365597
2025-03-23 14:52:50.345,0.7161301072077465
2025-03-23 14:52:50.346,-0.982002520516414
2025-03-23 14:52:50.346,-1.0682986159889778
2025-03-23 14:52:50.355,0.7876850954143981
2025-03-23 14:52:50.355,2.235180577448931
2025-03-23 14:52:50.355,1.1232706563788817
2025-03-23 14:52:50.356,-1.6399331946410998
2025-03-23 14:52:50.356,-2.9777592223571916
2025-03-23 14:52:50.365,-1.334974085811207
2025-03-23 14:52:50.365,1.4598573478414254
2025-03-23 14:52:50.365,2.497213532431547
2025-03-23 14:52:50.366,1.1814310036752587
2025-03-23 14:52:50.366,-0.5664066984963028
2025-03-23 14:52:50.375,-1.034534958147311
2025-03-23 14:52:50.375,-0.48641172832053764
2025-03-23 14:52:50.376,-0.15116209259746272
2025-03-23 14:52:50.376,-0.4428050562355793
2025-03-23 14:52:50.376,-0.6438709360087684
2025-03-23 14:52:50.385,0.006848326181360588
2025-03-23 14:52:50.385,1.210317428030255
2025-03-23 14:52:50.385,1.6930576572525502
2025-03-23 14:52:50.386,0.608699216056228
2025-03-23 14:52:50.386,-1.211601602387074
2025-03-23 14:52:50.395,-1.9196690857855387
2025-03-23 14:52:50.395,-0.7723176977732539
2025-03-23 14:52:50.395,0.8822145931700088
2025-03-23 14:52:50.396,1.1909170505058098
2025-03-23 14:52:50.396,0.0791550563284328
2025-03-23 14:52:50.405,-0.7319708729454185
2025-03-23 14:52:50.405,-0.06543857812148687
2025-03-23 14:52:50.405,1.1067873371388222
2025-03-23 14:52:50.406,0.952800619088983
2025-03-23 14:52:50.406,-0.7429863330950853
2025-03-23 14:52:50.415,-2.1206595013386345
2025-03-23 14:52:50.415,-1.3864673420646778
2025-03-23 14:52:50.415,0.9641554701782292
2025-03-23 14:52:50.416,2.4714329902014684
2025-03-23 14:52:50.416,1.4371272490279723
2025-03-23 14:52:50.423,-0.9892610887400968
2025-03-23 14:52:50.423,-2.035289306903889
2025-03-23 14:52:50.424,-0.601990221981512
2025-03-23 14:52:50.424,1.393588885853635
2025-03-23 14:52:50.424,1.3626605859385048
2025-03-23 14:52:50.433,-0.7700764894777304
2025-03-23 14:52:50.433,-2.4021337861451713
2025-03-23 14:52:50.434,-1.3061447699294841
2025-03-23 14:52:50.434,1.7100019231592016
2025-03-23 14:52:50.434,3.594546612603468
2025-03-23 14:52:50.443,2.2507796204804515
2025-03-23 14:52:50.443,-1.4081085481425737
2025-03-23 14:52:50.444,-4.325973009445156
2025-03-23 14:52:50.444,-3.871575429642289
2025-03-23 14:52:50.453,-0.023674774581901148
2025-03-23 14:52:50.454,4.296680719156659
2025-03-23 14:52:50.454,5.319543218560783
2025-03-23 14:52:50.454,1.7516260148310496
2025-03-23 14:52:50.454,-3.603762657718822
2025-03-23 14:52:50.463,-5.97729488788229
2025-03-23 14:52:50.463,-3.032530430503442
2025-03-23 14:52:50.463,2.632513377562349
2025-03-23 14:52:50.464,5.739448543199279
2025-03-23 14:52:50.464,3.491914059435982
2025-03-23 14:52:50.473,-1.6527818110077677
2025-03-23 14:52:50.473,-4.672374483105359
2025-03-23 14:52:50.474,-3.160071949078076
2025-03-23 14:52:50.474,0.6970455262514892
2025-03-23 14:52:50.474,3.067546783400871
2025-03-23 14:52:50.483,2.4378966832178697
2025-03-23 14:52:50.483,0.24288000380785077
2025-03-23 14:52:50.483,-1.4898489941172082
2025-03-23 14:52:50.484,-1.918087419670533
2025-03-23 14:52:50.484,-1.1179747071119017
2025-03-23 14:52:50.493,0.4650294490355566
2025-03-23 14:52:50.493,1.8098042800495933
2025-03-23 14:52:50.493,1.6834004999987058
2025-03-23 14:52:50.494,0.016082489278068185
2025-03-23 14:52:50.494,-1.662885875408047
2025-03-23 14:52:50.503,-1.7775537538653023
2025-03-23 14:52:50.503,-0.3652387076857507
2025-03-23 14:52:50.503,1.1585722734791828
2025-03-23 14:52:50.503,1.5376681655407771
2025-03-23 14:52:50.504,0.666331453941353
2025-03-23 14:52:50.513,-0.6046387427629005
2025-03-23 14:52:50.513,-1.2233058255056228
2025-03-23 14:52:50.513,-0.679723097413935
2025-03-23 14:52:50.514,0.5288220907451959
2025-03-23 14:52:50.514,1.1639875600295015
2025-03-23 14:52:50.523,0.41944756221337776
2025-03-23 14:52:50.523,-1.0268737001873103
2025-03-23 14:52:50.523,-1.523212400755008
2025-03-23 14:52:50.523,-0.28940539890720957
2025-03-23 14:52:50.524,1.5080928454404416
2025-03-23 14:52:50.533,1.9296760603182777
2025-03-23 14:52:50.533,0.4822244408308491
2025-03-23 14:52:50.533,-1.2849799667320583
2025-03-23 14:52:50.534,-1.638107467335849
2025-03-23 14:52:50.534,-0.639607757908536
2025-03-23 14:52:50.541,0.2997855381479652
2025-03-23 14:52:50.542,0.4582282492064006
2025-03-23 14:52:50.542,0.4335774185167814
2025-03-23 14:52:50.542,0.7467512984953709
2025-03-23 14:52:50.542,0.8655876627828598
2025-03-23 14:52:50.551,0.11588918040882276
2025-03-23 14:52:50.552,-1.0918021216967375
2025-03-23 14:52:50.552,-1.5904092702982497
2025-03-23 14:52:50.552,-0.8189411036427898
2025-03-23 14:52:50.552,0.6006220906707317
2025-03-23 14:52:50.561,1.5904041210793456
2025-03-23 14:52:50.561,1.5125878790601042
2025-03-23 14:52:50.562,0.39203191438009455
2025-03-23 14:52:50.562,-1.1429178469321144
2025-03-23 14:52:50.571,-1.9832725894559013
2025-03-23 14:52:50.571,-1.2995875667756762
2025-03-23 14:52:50.572,0.4319733343558193
2025-03-23 14:52:50.572,1.7048347921360816
2025-03-23 14:52:50.572,1.5900402572990213
2025-03-23 14:52:50.581,0.5462711615655427
2025-03-23 14:52:50.581,-0.5137615847838898
2025-03-23 14:52:50.581,-1.2014557287493974
2025-03-23 14:52:50.581,-1.383854007551403
2025-03-23 14:52:50.582,-0.7678162174098223
2025-03-23 14:52:50.591,0.5379591170306199
2025-03-23 14:52:50.591,1.5087882400503687
2025-03-23 14:52:50.592,1.1132470042966074
2025-03-23 14:52:50.592,-0.2583115996280857
2025-03-23 14:52:50.592,-1.010897638112169
2025-03-23 14:52:50.601,-0.30290574070911136
2025-03-23 14:52:50.601,0.7622395021743552
2025-03-23 14:52:50.601,0.47671718158808357
2025-03-23 14:52:50.602,-1.1163190400043617
2025-03-23 14:52:50.602,-1.9038073946100271
2025-03-23 14:52:50.611,-0.2239325681855
2025-03-23 14:52:50.611,2.5893969774610857
2025-03-23 14:52:50.612,3.166827778652744
2025-03-23 14:52:50.612,0.14524275534316258
2025-03-23 14:52:50.612,-3.594925725678488
2025-03-23 14:52:50.621,-3.8911993869198813
2025-03-23 14:52:50.621,-0.2192320180155927
2025-03-23 14:52:50.621,3.572681226457203
2025-03-23 14:52:50.622,3.659111397425496
2025-03-23 14:52:50.622,0.37286005556509205
2025-03-23 14:52:50.631,-2.6048425105226483
2025-03-23 14:52:50.631,-2.536160864669486
2025-03-23 14:52:50.631,-0.25704511555942156
2025-03-23 14:52:50.632,1.4143065673041388
2025-03-23 14:52:50.632,1.0453167605323037
2025-03-23 14:52:50.641,-0.2311898994077617
2025-03-23 14:52:50.641,-0.6051942302613285
2025-03-23 14:52:50.641,0.14059690447480805
2025-03-23 14:52:50.641,0.7119160954817014
2025-03-23 14:52:50.642,0.2954914536882298
2025-03-23 14:52:50.651,-0.42425753603362304
2025-03-23 14:52:50.651,-0.5543634486824663
2025-03-23 14:52:50.651,-0.3591814580128897
2025-03-23 14:52:50.652,-0.4505481777397417
2025-03-23 14:52:50.652,-0.39613687500608075
2025-03-23 14:52:50.661,0.5343151151417834
2025-03-23 14:52:50.661,1.6548322504974702
2025-03-23 14:52:50.661,1.3987746761374338
2025-03-23 14:52:50.662,-0.37411086802659466
2025-03-23 14:52:50.662,-1.8908823010187568
2025-03-23 14:52:50.671,-1.6447396976683564
2025-03-23 14:52:50.671,-0.13918989826540693
2025-03-23 14:52:50.671,1.0093247022773593
2025-03-23 14:52:50.671,1.041396460230692
2025-03-23 14:52:50.671,0.49832974228722854
2025-03-23 14:52:50.681,0.07362186842708218
2025-03-23 14:52:50.681,-0.17688338660931208
2025-03-23 14:52:50.681,-0.4124679090719247
2025-03-23 14:52:50.681,-0.4976772491201891
2025-03-23 14:52:50.682,-0.29250904973388697
2025-03-23 14:52:50.689,-0.033140660324485705
2025-03-23 14:52:50.690,0.021035108946699632
2025-03-23 14:52:50.690,0.10960846945548604
2025-03-23 14:52:50.690,0.6142144942897525
2025-03-23 14:52:50.690,1.133554787827919
2025-03-23 14:52:50.699,0.5933582387485217
2025-03-23 14:52:50.699,-1.1552488619960368
2025-03-23 14:52:50.700,-2.4061026807808403
2025-03-23 14:52:50.700,-1.3373494832470405
2025-03-23 14:52:50.709,1.4042094544668284
2025-03-23 14:52:50.709,3.0108742577406122
2025-03-23 14:52:50.709,1.753930017330756
2025-03-23 14:52:50.710,-0.9984438389106989
2025-03-23 14:52:50.710,-2.5372576404112817
2025-03-23 14:52:50.719,-1.8639603257862913
2025-03-23 14:52:50.719,-0.19357166890158783
2025-03-23 14:52:50.720,1.1180173322192695
2025-03-23 14:52:50.720,1.8653915024999774
2025-03-23 14:52:50.720,1.9649817088736776
2025-03-23 14:52:50.729,0.6483605105039867
2025-03-23 14:52:50.729,-2.000631143752697
2025-03-23 14:52:50.729,-3.666555848552631
2025-03-23 14:52:50.730,-1.9233233409259738
2025-03-23 14:52:50.730,2.1989206576493725
2025-03-23 14:52:50.739,4.5150395763059095
2025-03-23 14:52:50.739,2.368135087653597
2025-03-23 14:52:50.739,-2.0671194714719516
2025-03-23 14:52:50.740,-4.19721179184121
2025-03-23 14:52:50.740,-2.188001226553266
2025-03-23 14:52:50.747,1.372816100723889
2025-03-23 14:52:50.748,2.894065064844753
2025-03-23 14:52:50.748,1.6555154284494642
2025-03-23 14:52:50.748,-0.28814904899277827
2025-03-23 14:52:50.748,-1.1200546657258792
2025-03-23 14:52:50.759,-0.9792166716216838
2025-03-23 14:52:50.759,-0.780439737118855
2025-03-23 14:52:50.759,-0.5332025532759987
2025-03-23 14:52:50.760,0.34666160418055314
2025-03-23 14:52:50.760,1.5277589425587268
2025-03-23 14:52:50.767,1.6595729550948957
2025-03-23 14:52:50.767,0.11962853125995429
2025-03-23 14:52:50.768,-1.8168734493722105
2025-03-23 14:52:50.768,-2.1645823630658114
2025-03-23 14:52:50.768,-0.4273935774650295
2025-03-23 14:52:50.777,1.7534051515669338
2025-03-23 14:52:50.778,2.2102694873642497
2025-03-23 14:52:50.778,0.4819808071982321
2025-03-23 14:52:50.778,-1.6163425425047244
2025-03-23 14:52:50.778,-1.864805371662406
2025-03-23 14:52:50.787,-0.10420468436470576
2025-03-23 14:52:50.787,1.5478870182436328
2025-03-23 14:52:50.788,1.1630668049997137
2025-03-23 14:52:50.788,-0.6878343624327395
2025-03-23 14:52:50.797,-1.5963592399583275
2025-03-23 14:52:50.797,-0.2842210231696277
2025-03-23 14:52:50.798,1.6684337114099033
2025-03-23 14:52:50.798,1.643095307942691
2025-03-23 14:52:50.798,-0.6390670792512525
2025-03-23 14:52:50.807,-2.4562169594129237
2025-03-23 14:52:50.807,-1.3333160631292726
2025-03-23 14:52:50.807,1.6547594413700586
2025-03-23 14:52:50.807,2.849614093912189
2025-03-23 14:52:50.808,0.44952288582503874
2025-03-23 14:52:50.817,-2.9268099715211173
2025-03-23 14:52:50.817,-3.05593603983491
2025-03-23 14:52:50.817,0.7151988065934115
2025-03-23 14:52:50.818,4.276993129557064
2025-03-23 14:52:50.818,3.3576579687943333
2025-03-23 14:52:50.827,-1.4173938490482072
2025-03-23 14:52:50.827,-5.052856154585167
2025-03-23 14:52:50.827,-3.699309620908949
2025-03-23 14:52:50.828,1.2001302865243
2025-03-23 14:52:50.828,4.688214477362574
2025-03-23 14:52:50.837,3.6776211690021077
2025-03-23 14:52:50.837,-0.23315958635840364
2025-03-23 14:52:50.837,-3.183626570483304
2025-03-23 14:52:50.837,-3.1458253989050253
2025-03-23 14:52:50.838,-1.0312064194851949
2025-03-23 14:52:50.845,1.226918742687936
2025-03-23 14:52:50.846,2.3808709775267802
2025-03-23 14:52:50.846,1.9855296258728181
2025-03-23 14:52:50.846,0.2584774147732174
2025-03-23 14:52:50.846,-1.650066655319049
2025-03-23 14:52:50.857,-2.141471010209958
2025-03-23 14:52:50.857,-0.7392798577258846
2025-03-23 14:52:50.857,1.1372206095888786
2025-03-23 14:52:50.857,1.6085744707164074
2025-03-23 14:52:50.857,0.4069028217469437
2025-03-23 14:52:50.865,-0.9836099221162231
2025-03-23 14:52:50.865,-1.112408847630761
2025-03-23 14:52:50.866,0.005001552551352942
2025-03-23 14:52:50.866,1.1604197335451516
2025-03-23 14:52:50.875,1.2142463361279876
2025-03-23 14:52:50.875,0.07039154122639439
2025-03-23 14:52:50.876,-1.2852213746743661
2025-03-23 14:52:50.876,-1.633211938275992
2025-03-23 14:52:50.876,-0.6010106547892937
2025-03-23 14:52:50.876,0.939892197395456
2025-03-23 14:52:50.885,1.6208691321178659
2025-03-23 14:52:50.885,0.9253145639695026
2025-03-23 14:52:50.886,-0.25391794490965425
2025-03-23 14:52:50.886,-0.6976533914840084
2025-03-23 14:52:50.895,-0.3636480328020312
2025-03-23 14:52:50.895,-0.23416035515959643
2025-03-23 14:52:50.896,-0.6995068100858322
2025-03-23 14:52:50.896,-0.8963448984369202
2025-03-23 14:52:50.896,0.010006766639026552
2025-03-23 14:52:50.896,1.473522283556619
2025-03-23 14:52:50.905,2.0262435504040752
2025-03-23 14:52:50.905,0.9394583956766175
2025-03-23 14:52:50.905,-0.9670971453792254
2025-03-23 14:52:50.906,-2.2386348616213
2025-03-23 14:52:50.915,-2.134287162647421
2025-03-23 14:52:50.915,-0.8185436078972089
2025-03-23 14:52:50.916,1.2240259810892764
2025-03-23 14:52:50.916,3.1314669584161416
2025-03-23 14:52:50.916,3.346272332025664
2025-03-23 14:52:50.916,0.7280777631483052
2025-03-23 14:52:50.925,-3.4318066874015933
2025-03-23 14:52:50.926,-5.514902854162043
2025-03-23 14:52:50.926,-2.9311583909529917
2025-03-23 14:52:50.926,2.6152112395149696
2025-03-23 14:52:50.935,6.164952076988015
2025-03-23 14:52:50.935,4.3846210349954955
2025-03-23 14:52:50.936,-0.9685509623561763
2025-03-23 14:52:50.936,-4.914749692540779
2025-03-23 14:52:50.936,-4.280802856185397
2025-03-23 14:52:50.945,-0.4370715362991805
2025-03-23 14:52:50.945,2.662688647950737
2025-03-23 14:52:50.945,2.5760107514433943
2025-03-23 14:52:50.946,0.4378070079488473
2025-03-23 14:52:50.946,-0.8095115886895502
2025-03-23 14:52:50.955,0.024595288935673656
2025-03-23 14:52:50.955,1.0821440024134925
2025-03-23 14:52:50.955,0.07817498183994491
2025-03-23 14:52:50.956,-2.3472009846988784
2025-03-23 14:52:50.956,-3.0282163030540343
2025-03-23 14:52:50.965,-0.3015860545272567
2025-03-23 14:52:50.965,3.4058482825165624
2025-03-23 14:52:50.966,4.071148726379611
2025-03-23 14:52:50.966,0.8285206965016346
2025-03-23 14:52:50.966,-2.9562361779237376
2025-03-23 14:52:50.975,-3.598976105772118
2025-03-23 14:52:50.975,-1.0491871936064836
2025-03-23 14:52:50.976,1.6513641324437922
2025-03-23 14:52:50.976,2.055451581374352
2025-03-23 14:52:50.976,0.5697280474893187
2025-03-23 14:52:50.985,-0.6849906826817785
2025-03-23 14:52:50.985,-0.42411433162111306
2025-03-23 14:52:50.985,0.6520343851393
2025-03-23 14:52:50.986,0.8954559404833312
2025-03-23 14:52:50.986,-0.39401417249961274
2025-03-23 14:52:50.995,-2.06671163918415
2025-03-23 14:52:50.995,-2.137265705115907
2025-03-23 14:52:50.995,0.0592614391170308
2025-03-23 14:52:50.996,2.7729991539237266
2025-03-23 14:52:50.996,3.3588676787099154
2025-03-23 14:52:51.005,1.0320612772159747
2025-03-23 14:52:51.005,-2.2432192804005693
2025-03-23 14:52:51.005,-3.6715621067195685
2025-03-23 14:52:51.005,-2.1385158807578617
2025-03-23 14:52:51.006,1.002545064319954
2025-03-23 14:52:51.015,3.1414704803620803
2025-03-23 14:52:51.015,2.5462129300124907
2025-03-23 14:52:51.015,-0.10878188875419564
2025-03-23 14:52:51.016,-2.269102548952279
2025-03-23 14:52:51.016,-1.9683817158157932
2025-03-23 14:52:51.025,0.1313066192211468
2025-03-23 14:52:51.025,1.501008807936829
2025-03-23 14:52:51.025,0.6796838269201386
2025-03-23 14:52:51.025,-0.9936811584347711
2025-03-23 14:52:51.025,-1.0936730801229873
2025-03-23 14:52:51.035,0.7170580455440249
2025-03-23 14:52:51.035,2.1321364713651993
2025-03-23 14:52:51.035,1.1044117949211527
2025-03-23 14:52:51.035,-1.4990670474217267
2025-03-23 14:52:51.036,-2.8584675306969283
2025-03-23 14:52:51.043,-1.4708766327945153
2025-03-23 14:52:51.044,1.2754666472189122
2025-03-23 14:52:51.044,2.7982240995421397
2025-03-23 14:52:51.044,1.94695458852973
2025-03-23 14:52:51.044,-0.29296753241662804
2025-03-23 14:52:51.053,-2.084887064289855
2025-03-23 14:52:51.054,-2.196090600350053
2025-03-23 14:52:51.054,-0.6629318969383994
2025-03-23 14:52:51.054,1.2403818570604155
2025-03-23 14:52:51.054,1.8901624546125169
2025-03-23 14:52:51.063,0.8307689271675154
2025-03-23 14:52:51.064,-0.6565135046681811
2025-03-23 14:52:51.064,-0.9808876056468541
2025-03-23 14:52:51.064,-0.11885876426977507
2025-03-23 14:52:51.073,0.47227127482925324
2025-03-23 14:52:51.073,-0.1365958038306353
2025-03-23 14:52:51.074,-1.027512499982187
2025-03-23 14:52:51.074,-0.6513864557965661
2025-03-23 14:52:51.074,0.9393294281327029
2025-03-23 14:52:51.083,1.9383726068575944
2025-03-23 14:52:51.083,1.0519726189222185
2025-03-23 14:52:51.084,-0.9063167795902412
2025-03-23 14:52:51.084,-2.1121993700334607
2025-03-23 14:52:51.084,-1.6943569684236472
2025-03-23 14:52:51.093,-0.11737817136123975
2025-03-23 14:52:51.093,1.6215391302892992
2025-03-23 14:52:51.094,2.4505290800941113
2025-03-23 14:52:51.094,1.5301363557424505
2025-03-23 14:52:51.094,-0.8423608455067547
2025-03-23 14:52:51.103,-2.799646003152121
2025-03-23 14:52:51.103,-2.413906840789557
2025-03-23 14:52:51.103,0.07778156669835268
2025-03-23 14:52:51.103,2.2936159863264396
2025-03-23 14:52:51.104,2.298631811983119
2025-03-23 14:52:51.113,0.5556582502489782
2025-03-23 14:52:51.113,-1.0504345129365429
2025-03-23 14:52:51.113,-1.4319223662999332
2025-03-23 14:52:51.114,-0.9395588550305894
2025-03-23 14:52:51.114,-0.2850317701867499
2025-03-23 14:52:51.123,0.3369911538217671
2025-03-23 14:52:51.123,0.9387946719012039
2025-03-23 14:52:51.123,1.1326809953085355
2025-03-23 14:52:51.123,0.4420425020085972
2025-03-23 14:52:51.124,-0.7582243686228074
2025-03-23 14:52:51.133,-1.262397091308063
2025-03-23 14:52:51.133,-0.4636476455145404
2025-03-23 14:52:51.133,0.696086679588511
2025-03-23 14:52:51.133,0.8335259000303146
2025-03-23 14:52:51.134,-0.10855021833738243
2025-03-23 14:52:51.141,-0.8635441772548568
2025-03-23 14:52:51.142,-0.4827591317278941
2025-03-23 14:52:51.142,0.6324870294762943
2025-03-23 14:52:51.142,1.3347863046320594
2025-03-23 14:52:51.142,0.8590419592469095
2025-03-23 14:52:51.151,-0.6370488636248213
2025-03-23 14:52:51.152,-2.072753912642292
2025-03-23 14:52:51.152,-1.9580461356735828
2025-03-23 14:52:51.152,0.2300101774986586
2025-03-23 14:52:51.161,2.805342543985938
2025-03-23 14:52:51.161,2.9754567909090586
2025-03-23 14:52:51.162,0.06421124736069056
2025-03-23 14:52:51.162,-3.074126363292046
2025-03-23 14:52:51.162,-3.02501840457095
2025-03-23 14:52:51.171,0.08863719677051016
2025-03-23 14:52:51.171,2.677156566570432
2025-03-23 14:52:51.172,1.9982361105775275
2025-03-23 14:52:51.172,-0.7021651094286999
2025-03-23 14:52:51.172,-2.0190555005978315
2025-03-23 14:52:51.181,-0.6030674123611065
2025-03-23 14:52:51.181,1.5319117862274685
2025-03-23 14:52:51.182,1.7753361851750915
2025-03-23 14:52:51.182,-0.0972571516957637
2025-03-23 14:52:51.182,-2.0799786781193883
2025-03-23 14:52:51.191,-2.282111516713961
2025-03-23 14:52:51.191,-0.5417678196343129
2025-03-23 14:52:51.191,1.8102518471529674
2025-03-23 14:52:51.192,3.084219061488848
2025-03-23 14:52:51.192,2.2261435770482096
2025-03-23 14:52:51.201,-0.5105346742603523
2025-03-23 14:52:51.201,-3.3274480056822044
2025-03-23 14:52:51.201,-3.8131929557962474
2025-03-23 14:52:51.202,-1.157301019617541
2025-03-23 14:52:51.202,2.4784241934445332
2025-03-23 14:52:51.211,3.8151445319559305
2025-03-23 14:52:51.211,2.029460950084271
2025-03-23 14:52:51.211,-0.5143140210810103
2025-03-23 14:52:51.212,-1.5374387972891748
2025-03-23 14:52:51.212,-1.5257263569858472
2025-03-23 14:52:51.221,-1.9791988847461195
2025-03-23 14:52:51.221,-2.1961350178667516
2025-03-23 14:52:51.221,-0.06898103502816988
2025-03-23 14:52:51.222,3.8535553680452552
2025-03-23 14:52:51.222,5.510358111273937
2025-03-23 14:52:51.229,2.034274803595682
2025-03-23 14:52:51.230,-3.99595730513833
2025-03-23 14:52:51.230,-6.801832662974592
2025-03-23 14:52:51.230,-3.645774902164141
2025-03-23 14:52:51.239,2.390673702248436
2025-03-23 14:52:51.239,5.854031863753454
2025-03-23 14:52:51.239,4.243167280785775
2025-03-23 14:52:51.240,-0.25438799491010444
2025-03-23 14:52:51.240,-3.5540032657848633
2025-03-23 14:52:51.249,-3.522630412694249
2025-03-23 14:52:51.249,-1.180185291777305
2025-03-23 14:52:51.249,1.1177984272925734
2025-03-23 14:52:51.249,1.9591636682884457
2025-03-23 14:52:51.250,1.4564432887209362
2025-03-23 14:52:51.259,0.40172138379800926
2025-03-23 14:52:51.259,-0.5137575922148111
2025-03-23 14:52:51.259,-0.8492696241049078
2025-03-23 14:52:51.259,-0.5126843374018841
2025-03-23 14:52:51.260,-0.0005957304517067927
2025-03-23 14:52:51.267,-0.03442080780028519
2025-03-23 14:52:51.268,-0.5354757257541473
2025-03-23 14:52:51.268,-0.4583792423024377
2025-03-23 14:52:51.268,0.7246439720505083
2025-03-23 14:52:51.277,1.822418249365259
2025-03-23 14:52:51.278,1.1574318105021393
2025-03-23 14:52:51.278,-1.0487195150586859
2025-03-23 14:52:51.278,-2.491007184228528
2025-03-23 14:52:51.278,-1.425974403561408
2025-03-23 14:52:51.278,1.113736158266314
2025-03-23 14:52:51.287,2.4276989291988973
2025-03-23 14:52:51.288,1.2448583674907407
2025-03-23 14:52:51.288,-1.000048088957581
2025-03-23 14:52:51.288,-2.0192816692972246
2025-03-23 14:52:51.297,-1.0820668158495241
2025-03-23 14:52:51.298,0.6763267609680896
2025-03-23 14:52:51.298,1.6846365556873435
2025-03-23 14:52:51.298,1.212921208052327
2025-03-23 14:52:51.298,-0.3015283036721442
2025-03-23 14:52:51.307,-1.6093058299905747
2025-03-23 14:52:51.307,-1.4960052246263844
2025-03-23 14:52:51.308,0.1277979983293976
2025-03-23 14:52:51.308,1.814446290959135
2025-03-23 14:52:51.308,1.746319885807363
2025-03-23 14:52:51.317,-0.2439723576968143
2025-03-23 14:52:51.318,-2.1447724723055193
2025-03-23 14:52:51.318,-1.8509073103815006
2025-03-23 14:52:51.318,0.38796091208012734
2025-03-23 14:52:51.318,2.2253181160139577
2025-03-23 14:52:51.327,1.853520755680905
2025-03-23 14:52:51.327,-0.2064000722491664
2025-03-23 14:52:51.328,-1.9342639313496957
2025-03-23 14:52:51.328,-1.8652515592206202
2025-03-23 14:52:51.328,-0.2182149890417498
2025-03-23 14:52:51.337,1.5235242831660556
2025-03-23 14:52:51.337,1.8742907899549108
2025-03-23 14:52:51.338,0.5286331561290996
2025-03-23 14:52:51.338,-1.2929010040465279
2025-03-23 14:52:51.338,-1.814405538014517
2025-03-23 14:52:51.347,-0.47048399500204635
2025-03-23 14:52:51.347,1.3220395474918405
2025-03-23 14:52:51.347,1.6109746362326909
2025-03-23 14:52:51.348,0.13815182413090638
2025-03-23 14:52:51.348,-1.3853947124979236
2025-03-23 14:52:51.357,-1.3299093426188269
2025-03-23 14:52:51.357,0.07090242748002198
2025-03-23 14:52:51.357,1.2542604731173355
2025-03-23 14:52:51.358,1.162337039053783
2025-03-23 14:52:51.358,0.08942323673494541
2025-03-23 14:52:51.365,-0.9664828841744554
2025-03-23 14:52:51.366,-1.2039334706867422
2025-03-23 14:52:51.366,-0.4373702556056365
2025-03-23 14:52:51.366,0.7276388179114232
2025-03-23 14:52:51.377,1.1927775242106466
2025-03-23 14:52:51.377,0.48979036295554595
2025-03-23 14:52:51.377,-0.48277151191718704
2025-03-23 14:52:51.377,-0.5629783040455095
2025-03-23 14:52:51.378,0.011470352080612284
2025-03-23 14:52:51.378,0.010893232672298931
2025-03-23 14:52:51.385,-0.735985901510407
2025-03-23 14:52:51.386,-0.8622207314062887
2025-03-23 14:52:51.386,0.48731695415888515
2025-03-23 14:52:51.386,2.0311203795849755
2025-03-23 14:52:51.395,1.698006148752902
2025-03-23 14:52:51.396,-0.6400982595606194
2025-03-23 14:52:51.396,-2.676388796928835
2025-03-23 14:52:51.396,-2.2196243165705916
2025-03-23 14:52:51.396,0.32309577288683183
2025-03-23 14:52:51.396,2.473495412921079
2025-03-23 14:52:51.405,2.3567519565789175
2025-03-23 14:52:51.405,0.3722073664490659
2025-03-23 14:52:51.406,-1.6047425510080395
2025-03-23 14:52:51.406,-2.1326972666936674
2025-03-23 14:52:51.415,-1.188110221789631
2025-03-23 14:52:51.416,0.3325880081825371
2025-03-23 14:52:51.416,1.5452824812330805
2025-03-23 14:52:51.416,1.8872036265332854
2025-03-23 14:52:51.416,1.0426195013653718
2025-03-23 14:52:51.416,-0.7456041200054043
2025-03-23 14:52:51.425,-2.3007441159420634
2025-03-23 14:52:51.425,-2.144241061161786
2025-03-23 14:52:51.426,-0.019198758857987983
2025-03-23 14:52:51.426,2.3803223180429356
2025-03-23 14:52:51.435,2.727767585502259
2025-03-23 14:52:51.436,0.4449251007373436
2025-03-23 14:52:51.436,-2.3628436340551993
2025-03-23 14:52:51.436,-2.7805114468777514
2025-03-23 14:52:51.436,-0.18266930714617824
2025-03-23 14:52:51.445,2.7275831452295742
2025-03-23 14:52:51.445,2.5401418426016757
2025-03-23 14:52:51.446,-0.9019797293476978
2025-03-23 14:52:51.446,-3.746464342433628
2025-03-23 14:52:51.446,-2.2732390017473465
2025-03-23 14:52:51.455,2.3715598347158733
2025-03-23 14:52:51.455,4.9332474231803
2025-03-23 14:52:51.456,2.1137557385603984
2025-03-23 14:52:51.456,-3.3039852916972983
2025-03-23 14:52:51.456,-5.509397965683711
2025-03-23 14:52:51.465,-2.1995062997378065
2025-03-23 14:52:51.465,3.1365705580034557
2025-03-23 14:52:51.466,5.281725505179339
2025-03-23 14:52:51.466,2.539534118397995
2025-03-23 14:52:51.466,-2.207933034415518
2025-03-23 14:52:51.475,-4.660334842984025
2025-03-23 14:52:51.475,-2.8413831683993753
2025-03-23 14:52:51.475,1.4629291264812676
2025-03-23 14:52:51.475,4.234517376209152
2025-03-23 14:52:51.476,2.734107102008217
2025-03-23 14:52:51.483,-1.6549273495681578
2025-03-23 14:52:51.484,-4.365948976004718
2025-03-23 14:52:51.484,-2.287547295997895
2025-03-23 14:52:51.484,2.581622514996442
2025-03-23 14:52:51.493,4.960360180024098
2025-03-23 14:52:51.493,2.043457788330448
2025-03-23 14:52:51.494,-3.260076835361379
2025-03-23 14:52:51.494,-5.434794237718032
2025-03-23 14:52:51.494,-2.311072856696515
2025-03-23 14:52:51.503,2.8426272719429795
2025-03-23 14:52:51.503,5.079719474551515
2025-03-23 14:52:51.504,2.773509954876848
2025-03-23 14:52:51.504,-1.4084847942700278
2025-03-23 14:52:51.504,-3.7244406302454816
2025-03-23 14:52:51.513,-2.799863789472573
2025-03-23 14:52:51.514,-0.12633391443447708
2025-03-23 14:52:51.514,1.9530632595974717
2025-03-23 14:52:51.514,2.2057221369662234
2025-03-23 14:52:51.514,0.8896157904447146
2025-03-23 14:52:51.523,-0.8388965504500967
2025-03-23 14:52:51.523,-1.5898135829075837
2025-03-23 14:52:51.523,-0.6425900793296901
2025-03-23 14:52:51.524,1.1036685643326756
2025-03-23 14:52:51.524,1.5936352130530085
2025-03-23 14:52:51.533,-0.12549721656104862
2025-03-23 14:52:51.533,-2.325519406718196
2025-03-23 14:52:51.534,-2.209389554145377
2025-03-23 14:52:51.534,0.6755733714673949
2025-03-23 14:52:51.534,3.4373741241041156
2025-03-23 14:52:51.541,2.911618307216886
2025-03-23 14:52:51.542,-0.652132781575199
2025-03-23 14:52:51.542,-3.728227082881959
2025-03-23 14:52:51.542,-3.2894202250602804
2025-03-23 14:52:51.542,0.14725887264096568
2025-03-23 14:52:51.551,3.262405762042734
2025-03-23 14:52:51.552,3.245806645539251
2025-03-23 14:52:51.552,0.34622589900708023
2025-03-23 14:52:51.552,-2.5255603419525947
2025-03-23 14:52:51.552,-2.691337320500201
2025-03-23 14:52:51.562,-0.32745672361456457
2025-03-23 14:52:51.562,1.8933653099763104
2025-03-23 14:52:51.562,1.7622917550306252
2025-03-23 14:52:51.562,-0.19283004837030965
2025-03-23 14:52:51.562,-1.553337010734088
2025-03-23 14:52:51.571,-0.8397287376104517
2025-03-23 14:52:51.572,0.8934036885815799
2025-03-23 14:52:51.572,1.4119285437276379
2025-03-23 14:52:51.572,0.016586520969638696
2025-03-23 14:52:51.572,-1.5439810090626858
2025-03-23 14:52:51.582,-1.152465383801107
2025-03-23 14:52:51.582,0.9387489485950351
2025-03-23 14:52:51.582,2.1191996838099065
2025-03-23 14:52:51.582,0.5666170937962043
2025-03-23 14:52:51.582,-2.1466180344744967
2025-03-23 14:52:51.591,-2.603282593766593
2025-03-23 14:52:51.592,0.1994004832194182
2025-03-23 14:52:51.592,3.2531926072101527
2025-03-23 14:52:51.592,2.9443503825317587
2025-03-23 14:52:51.592,-0.6374068419721101
2025-03-23 14:52:51.601,-3.743545672209058
2025-03-23 14:52:51.602,-3.1467476846944797
2025-03-23 14:52:51.602,0.4854688118055296
2025-03-23 14:52:51.602,3.5218122503569878
2025-03-23 14:52:51.611,3.146885826404793
2025-03-23 14:52:51.612,-0.06350564815401938
2025-03-23 14:52:51.612,-2.9797017702582087
2025-03-23 14:52:51.612,-2.9417565143857196
2025-03-23 14:52:51.612,-0.15536653357745775
2025-03-23 14:52:51.621,2.564898515933254
2025-03-23 14:52:51.621,2.5740877592024765
2025-03-23 14:52:51.622,0.09121691824233608
2025-03-23 14:52:51.622,-2.178816793968853
2025-03-23 14:52:51.622,-2.1228032098201863
2025-03-23 14:52:51.631,-0.23679222461446497
2025-03-23 14:52:51.632,1.5387154512499948
2025-03-23 14:52:51.632,1.9633302097736407
2025-03-23 14:52:51.632,0.9673082369552364
2025-03-23 14:52:51.632,-0.9133195750245303
2025-03-23 14:52:51.641,-2.4890578900554616
2025-03-23 14:52:51.641,-2.0572367426569054
2025-03-23 14:52:51.642,0.8287359444093865
2025-03-23 14:52:51.642,3.714664328333021
2025-03-23 14:52:51.642,3.0661984603409658
2025-03-23 14:52:51.651,-1.3403198153365738
2025-03-23 14:52:51.651,-5.1055985888822075
2025-03-23 14:52:51.652,-3.786336314850498
2025-03-23 14:52:51.652,1.7221871990633624
2025-03-23 14:52:51.652,5.848925878610535
2025-03-23 14:52:51.659,4.40847202646648
2025-03-23 14:52:51.660,-1.1372150726566213
2025-03-23 14:52:51.660,-5.598088052923372
2025-03-23 14:52:51.660,-5.1780153855805775
2025-03-23 14:52:51.660,-0.4322888257827255
2025-03-23 14:52:51.669,4.68492897925672
2025-03-23 14:52:51.670,5.956566255794825
2025-03-23 14:52:51.670,2.1290969415528
2025-03-23 14:52:51.670,-3.667054181802397
2025-03-23 14:52:51.679,-6.158831051366751
2025-03-23 14:52:51.680,-2.932379981295672
2025-03-23 14:52:51.680,2.786072135869732
2025-03-23 14:52:51.680,5.333986624442336
2025-03-23 14:52:51.680,2.59177028402398
2025-03-23 14:52:51.680,-2.0991264613059832
2025-03-23 14:52:51.689,-3.943741301376559
2025-03-23 14:52:51.690,-1.6630348118982667
2025-03-23 14:52:51.690,1.8234968472413704
2025-03-23 14:52:51.690,2.918122495618483
2025-03-23 14:52:51.701,0.8743483917540481
2025-03-23 14:52:51.701,-1.9681536971831117
2025-03-23 14:52:51.701,-2.7626918410534973
2025-03-23 14:52:51.702,-0.7402572752779939
2025-03-23 14:52:51.702,2.249009612361738
2025-03-23 14:52:51.702,3.3479231634875233
2025-03-23 14:52:51.709,1.2318684323553313
2025-03-23 14:52:51.710,-2.3971262057389566
2025-03-23 14:52:51.710,-4.047704690182182
2025-03-23 14:52:51.710,-1.8278041526741071
2025-03-23 14:52:51.719,2.2903907699391297
2025-03-23 14:52:51.720,4.185952141445213
2025-03-23 14:52:51.720,1.944984404496038
2025-03-23 14:52:51.720,-1.9730570480528058
2025-03-23 14:52:51.720,-3.4960302025692926
2025-03-23 14:52:51.729,-1.4585142544835143
2025-03-23 14:52:51.729,1.4916954767087736
2025-03-23 14:52:51.729,2.3134804483300093
2025-03-23 14:52:51.730,0.8034879389432955
2025-03-23 14:52:51.730,-0.907852236525247
2025-03-23 14:52:51.739,-1.1743625925175312
2025-03-23 14:52:51.739,-0.3477729737821711
2025-03-23 14:52:51.739,0.2751431360514057
2025-03-23 14:52:51.740,0.2212877019462634
2025-03-23 14:52:51.740,0.11259330872675087
2025-03-23 14:52:51.748,0.43087812213822113
2025-03-23 14:52:51.748,0.6556449891016685
2025-03-23 14:52:51.748,0.009750251303194363
2025-03-23 14:52:51.748,-1.1727684608440112
2025-03-23 14:52:51.757,-1.4410902508626169
2025-03-23 14:52:51.758,-0.007678493733739987
2025-03-23 14:52:51.758,1.8045185306789102
2025-03-23 14:52:51.758,1.7857447925153132
2025-03-23 14:52:51.758,-0.2763113934813131
2025-03-23 14:52:51.758,-1.9570754845560159
2025-03-23 14:52:51.767,-1.2156445959063034
2025-03-23 14:52:51.768,0.8089855149307518
2025-03-23 14:52:51.768,1.3053480909834014
2025-03-23 14:52:51.768,-0.2815256510353459
2025-03-23 14:52:51.777,-1.4318238611356895
2025-03-23 14:52:51.778,-0.14089599618540494
2025-03-23 14:52:51.778,2.0671545298510092
2025-03-23 14:52:51.778,2.0312901598128743
2025-03-23 14:52:51.778,-0.7346575969775543
2025-03-23 14:52:51.787,-3.179439529890809
2025-03-23 14:52:51.787,-2.4303794206962617
2025-03-23 14:52:51.788,0.7906768914665642
2025-03-23 14:52:51.788,3.1317743815933934
2025-03-23 14:52:51.788,2.3843952852957697
2025-03-23 14:52:51.797,-0.3727589403294155
2025-03-23 14:52:51.797,-2.256993765505688
2025-03-23 14:52:51.798,-1.6998048047699545
2025-03-23 14:52:51.798,0.19307529416812855
2025-03-23 14:52:51.798,1.2360122047677458
2025-03-23 14:52:51.806,0.6045498713137286
2025-03-23 14:52:51.806,-0.5972200913515079
2025-03-23 14:52:51.806,-0.8295619650048203
2025-03-23 14:52:51.806,0.25649139381376823
2025-03-23 14:52:51.806,1.526473950149921
2025-03-23 14:52:51.817,1.4432924871623056
2025-03-23 14:52:51.817,-0.35287707426768317
2025-03-23 14:52:51.818,-2.3871786004922915
2025-03-23 14:52:51.818,-2.59709036634451
2025-03-23 14:52:51.818,-0.48341834999546285
2025-03-23 14:52:51.827,2.231354530055513
2025-03-23 14:52:51.827,3.2845084996095895
2025-03-23 14:52:51.827,1.9469850439118284
2025-03-23 14:52:51.828,-0.6775338892157183
2025-03-23 14:52:51.828,-2.8454672310118925
2025-03-23 14:52:51.837,-3.234824385400168
2025-03-23 14:52:51.837,-1.4720391575127878
2025-03-23 14:52:51.838,1.442029776297022
2025-03-23 14:52:51.838,3.3990083901947696
2025-03-23 14:52:51.838,2.8176063767660615
2025-03-23 14:52:51.846,0.2574690257207559
2025-03-23 14:52:51.846,-2.0911413243730697
2025-03-23 14:52:51.846,-2.6112876151363618
2025-03-23 14:52:51.846,-1.532415875009881
2025-03-23 14:52:51.857,-0.04722969478357661
2025-03-23 14:52:51.857,1.133272519061351
2025-03-23 14:52:51.857,1.8996013775431804
2025-03-23 14:52:51.857,1.9353940984390037
2025-03-23 14:52:51.858,0.7282882894239483
2025-03-23 14:52:51.858,-1.3768933167829593
2025-03-23 14:52:51.865,-2.8053317724997466
2025-03-23 14:52:51.866,-2.064896570840225
2025-03-23 14:52:51.866,0.5463277755425501
2025-03-23 14:52:51.866,2.79861281838108
2025-03-23 14:52:51.876,2.440286624802225
2025-03-23 14:52:51.876,-0.3670855677380015
2025-03-23 14:52:51.876,-2.717730076239621
2025-03-23 14:52:51.876,-1.886293886231267
2025-03-23 14:52:51.876,1.2818458876080723
2025-03-23 14:52:51.876,2.9438886180292796
2025-03-23 14:52:51.886,0.8314318483260144
2025-03-23 14:52:51.886,-2.678397044414164
2025-03-23 14:52:51.886,-3.207773612917636
2025-03-23 14:52:51.886,0.20881164990112225
2025-03-23 14:52:51.897,3.6932473428618144
2025-03-23 14:52:51.897,3.0862462264608443
2025-03-23 14:52:51.897,-1.0076613336320566
2025-03-23 14:52:51.898,-3.929043712322566
2025-03-23 14:52:51.898,-2.4891729380248897
2025-03-23 14:52:51.898,1.4841508679433577
2025-03-23 14:52:51.906,3.557815025071966
2025-03-23 14:52:51.906,1.7411238780273763
2025-03-23 14:52:51.906,-1.673190557614692
2025-03-23 14:52:51.906,-2.9928064277015536
2025-03-23 14:52:51.915,-1.0866641790221352
2025-03-23 14:52:51.916,1.7440966028476872
2025-03-23 14:52:51.916,2.4688323472507347
2025-03-23 14:52:51.916,0.515061517305006
2025-03-23 14:52:51.916,-1.8122888553971053
2025-03-23 14:52:51.916,-1.969765698553308
2025-03-23 14:52:51.925,0.021085416303755017
2025-03-23 14:52:51.926,1.7518601034916281
2025-03-23 14:52:51.926,1.365012877273971
2025-03-23 14:52:51.926,-0.3748762653009834
2025-03-23 14:52:51.935,-1.3612118806241693
2025-03-23 14:52:51.936,-0.7933571831173527
2025-03-23 14:52:51.936,0.29910440871239147
2025-03-23 14:52:51.936,0.7783678664041473
2025-03-23 14:52:51.936,0.6032871014457364
2025-03-23 14:52:51.945,0.23232863905918577
2025-03-23 14:52:51.945,-0.25584405562832546
2025-03-23 14:52:51.946,-0.878099018712073
2025-03-23 14:52:51.946,-1.0762486764887897
2025-03-23 14:52:51.946,-0.17868707182348936
2025-03-23 14:52:51.955,1.3593855138140745
2025-03-23 14:52:51.956,1.9296754927894724
2025-03-23 14:52:51.956,0.5654827599897809
2025-03-23 14:52:51.956,-1.5914287898178467
2025-03-23 14:52:51.956,-2.3173376035789217
2025-03-23 14:52:51.965,-0.8415226317141831
2025-03-23 14:52:51.965,1.2354163246452465
2025-03-23 14:52:51.966,1.8621399221448034
2025-03-23 14:52:51.966,0.8681963707132169
2025-03-23 14:52:51.966,-0.25548810498096064
2025-03-23 14:52:51.975,-0.563634452415906
2025-03-23 14:52:51.976,-0.6035309941351109
2025-03-23 14:52:51.976,-0.9881605156393742
2025-03-23 14:52:51.976,-1.1086809819932044
2025-03-23 14:52:51.976,-0.04759906723378456
2025-03-23 14:52:51.985,1.74259539752465
2025-03-23 14:52:51.985,2.5281853783825365
2025-03-23 14:52:51.986,1.1770207088025275
2025-03-23 14:52:51.986,-1.4433240605054265
2025-03-23 14:52:51.986,-3.166842738873641
2025-03-23 14:52:51.995,-2.5053713027307496
2025-03-23 14:52:51.996,0.13181312120430827
2025-03-23 14:52:51.996,2.837651914401604
2025-03-23 14:52:51.996,3.5443081988052754
2025-03-23 14:52:51.996,1.4882159535659225
2025-03-23 14:52:52.005,-1.8865253421399044
2025-03-23 14:52:52.005,-3.7186657140555903
2025-03-23 14:52:52.006,-2.3348030866998233
2025-03-23 14:52:52.006,0.8283629345528406
2025-03-23 14:52:52.006,2.636991098990077
2025-03-23 14:52:52.015,1.7426656648861791
2025-03-23 14:52:52.016,-0.12007666265020694
2025-03-23 14:52:52.016,-0.6684073146562148
2025-03-23 14:52:52.016,0.0030189753320322005
2025-03-23 14:52:52.016,0.04398361106736817
2025-03-23 14:52:52.025,-1.0990737394208014
2025-03-23 14:52:52.025,-1.7685635618891988
2025-03-23 14:52:52.025,-0.5783060648795053
2025-03-23 14:52:52.026,1.5117218515315531
2025-03-23 14:52:52.026,2.4470002925138035
2025-03-23 14:52:52.035,1.5259411355050674
2025-03-23 14:52:52.035,-0.29714329693138064
2025-03-23 14:52:52.036,-1.8558406451688163
2025-03-23 14:52:52.036,-2.452768180414039
2025-03-23 14:52:52.036,-1.5667656492686444
2025-03-23 14:52:52.045,0.7174829454223529
2025-03-23 14:52:52.045,2.824626872229439
2025-03-23 14:52:52.046,2.615809683879752
2025-03-23 14:52:52.046,-0.011453561592772554
2025-03-23 14:52:52.046,-2.432193242035336
2025-03-23 14:52:52.055,-2.1927276563285387
2025-03-23 14:52:52.056,0.06847437889620911
2025-03-23 14:52:52.056,1.6141333011762071
2025-03-23 14:52:52.056,1.039777840934633
2025-03-23 14:52:52.056,-0.41782839602044414
2025-03-23 14:52:52.065,-0.9187926013416569
2025-03-23 14:52:52.065,-0.2653343036134477
2025-03-23 14:52:52.065,0.3981157384733185
2025-03-23 14:52:52.066,0.4322443382529643
2025-03-23 14:52:52.066,0.29753583962861774
2025-03-23 14:52:52.075,0.3490076504842096
2025-03-23 14:52:52.076,0.07166540251420887
2025-03-23 14:52:52.076,-0.8815935889242656
2025-03-23 14:52:52.076,-1.5854936363324752
2025-03-23 14:52:52.076,-0.7347342719825494
2025-03-23 14:52:52.085,1.4119813970659656
2025-03-23 14:52:52.085,2.7577250472478867
2025-03-23 14:52:52.086,1.5206831441470934
2025-03-23 14:52:52.086,-1.5021068857749795
2025-03-23 14:52:52.086,-3.3545397658017304
2025-03-23 14:52:52.095,-1.9873377963021253
2025-03-23 14:52:52.095,1.303840035359912
2025-03-23 14:52:52.096,3.079367752232007
2025-03-23 14:52:52.096,1.5487766343637146
2025-03-23 14:52:52.096,-1.350435206015082
2025-03-23 14:52:52.104,-2.1720616606700736
2025-03-23 14:52:52.104,-0.060851580040942294
2025-03-23 14:52:52.104,2.1301629354543317
2025-03-23 14:52:52.104,1.2846394191338137
2025-03-23 14:52:52.104,-1.9306974293153418
2025-03-23 14:52:52.113,-3.517512999175286
2025-03-23 14:52:52.114,-0.9618972553027451
2025-03-23 14:52:52.114,3.343945039329297
2025-03-23 14:52:52.114,4.587992998650441
2025-03-23 14:52:52.123,1.2124396521019403
2025-03-23 14:52:52.123,-3.214511436071301
2025-03-23 14:52:52.124,-4.270705460817485
2025-03-23 14:52:52.124,-1.5880674490624949
2025-03-23 14:52:52.124,1.5613835921296633
2025-03-23 14:52:52.133,2.554613818976717
2025-03-23 14:52:52.134,1.6441843613123324
2025-03-23 14:52:52.134,0.34010517812618746
2025-03-23 14:52:52.134,-0.5570931565455391
2025-03-23 14:52:52.134,-0.961770843115534
2025-03-23 14:52:52.143,-0.9532308458433201
2025-03-23 14:52:52.143,-0.808792441013811
2025-03-23 14:52:52.143,-0.7084852557546854
2025-03-23 14:52:52.144,-0.14279803860050194
2025-03-23 14:52:52.144,1.3862659423557897
2025-03-23 14:52:52.153,2.8158500837700693
2025-03-23 14:52:52.153,2.0192189225949972
2025-03-23 14:52:52.154,-1.27050928251023
2025-03-23 14:52:52.154,-4.120462676157854
2025-03-23 14:52:52.154,-3.341036829814126
2025-03-23 14:52:52.163,0.6120828010360417
2025-03-23 14:52:52.163,3.879153402594134
2025-03-23 14:52:52.164,3.404738303757498
2025-03-23 14:52:52.164,0.07920062223897459
2025-03-23 14:52:52.164,-2.565025561224091
2025-03-23 14:52:52.173,-2.2617237124552907
2025-03-23 14:52:52.173,-0.12043130059647048
2025-03-23 14:52:52.174,1.1520085829844233
2025-03-23 14:52:52.174,0.5370022309364216
2025-03-23 14:52:52.174,-0.5059470721626983
2025-03-23 14:52:52.183,-0.3679945041288876
2025-03-23 14:52:52.183,0.6600009107493269
2025-03-23 14:52:52.184,1.1451017225532698
2025-03-23 14:52:52.184,0.4927362171749906
2025-03-23 14:52:52.184,-0.6117212536843015
2025-03-23 14:52:52.192,-1.294763284410593
2025-03-23 14:52:52.192,-1.205715911250412
2025-03-23 14:52:52.192,-0.3178331008220249
2025-03-23 14:52:52.192,1.0715708979903877
2025-03-23 14:52:52.192,1.965453399810861
2025-03-23 14:52:52.202,1.211908145869359
2025-03-23 14:52:52.202,-0.9407042085587194
2025-03-23 14:52:52.202,-2.458764529937988
2025-03-23 14:52:52.202,-1.555573103562598
2025-03-23 14:52:52.211,1.0672238560791125
2025-03-23 14:52:52.212,2.7183589878593732
2025-03-23 14:52:52.212,1.5789114674173004
2025-03-23 14:52:52.212,-1.291822848902855
2025-03-23 14:52:52.212,-2.9785675097532995
2025-03-23 14:52:52.221,-1.680353882911009
2025-03-23 14:52:52.222,1.3967239389657418
2025-03-23 14:52:52.222,3.1877237782199703
2025-03-23 14:52:52.222,1.8764034259081948
2025-03-23 14:52:52.222,-1.2073598640998855
2025-03-23 14:52:52.231,-2.9569747717917005
2025-03-23 14:52:52.232,-1.7804934708382762
2025-03-23 14:52:52.232,0.774559442080821
2025-03-23 14:52:52.232,1.9754181562098971
2025-03-23 14:52:52.232,1.0866168031539678
2025-03-23 14:52:52.241,-0.2091389636215374
2025-03-23 14:52:52.241,-0.43951435081013734
2025-03-23 14:52:52.241,-0.12599380632799667
2025-03-23 14:52:52.242,-0.37359280269670103
2025-03-23 14:52:52.242,-0.8645266281537688
2025-03-23 14:52:52.251,-0.4925895169417701
2025-03-23 14:52:52.252,0.6174778770912352
2025-03-23 14:52:52.252,1.1701148931309373
2025-03-23 14:52:52.252,0.6753332708695022
2025-03-23 14:52:52.252,-0.051437946122644684
2025-03-23 14:52:52.261,-0.4957895767238023
2025-03-23 14:52:52.261,-0.9855945903859151
2025-03-23 14:52:52.262,-1.2355693930283047
2025-03-23 14:52:52.262,-0.18856774665151355
2025-03-23 14:52:52.262,1.7556224075312845
2025-03-23 14:52:52.271,2.1920516920690214
2025-03-23 14:52:52.272,-0.046828860415469076
2025-03-23 14:52:52.272,-2.5065799769996016
2025-03-23 14:52:52.272,-1.9426606933632367
2025-03-23 14:52:52.272,1.1397007728333777
2025-03-23 14:52:52.280,2.82499974952437
2025-03-23 14:52:52.280,0.8534817008134558
2025-03-23 14:52:52.280,-2.3717435251781014
2025-03-23 14:52:52.280,-2.81484112934277
2025-03-23 14:52:52.280,0.13939391309978577
2025-03-23 14:52:52.290,3.02103666786424
2025-03-23 14:52:52.290,2.569086820708886
2025-03-23 14:52:52.290,-0.5257998126503791
2025-03-23 14:52:52.290,-2.766881237168483
2025-03-23 14:52:52.300,-2.022275922600167
2025-03-23 14:52:52.300,0.39934696626438776
2025-03-23 14:52:52.300,1.7872826717337826
2025-03-23 14:52:52.300,1.1915692624454126
2025-03-23 14:52:52.300,-0.0740916459697421
2025-03-23 14:52:52.309,-0.5587557842837637
2025-03-23 14:52:52.310,-0.29932430643649177
2025-03-23 14:52:52.310,-0.1693587912411604
2025-03-23 14:52:52.310,-0.4055061539755493
2025-03-23 14:52:52.310,-0.4013600727367236
2025-03-23 14:52:52.319,0.22402107718069814
2025-03-23 14:52:52.320,0.9002191365468319
2025-03-23 14:52:52.320,0.7375618340342759
2025-03-23 14:52:52.320,-0.26897239141171775
2025-03-23 14:52:52.320,-1.0570036477304487
2025-03-23 14:52:52.328,-0.6867040682007106
2025-03-23 14:52:52.328,0.5028735666189387
2025-03-23 14:52:52.328,1.1693375914794895
2025-03-23 14:52:52.328,0.42847165123556274
2025-03-23 14:52:52.328,-1.0281444695923678
2025-03-23 14:52:52.339,-1.4701717557157505
2025-03-23 14:52:52.339,-0.06710361996566254
2025-03-23 14:52:52.340,1.81582365712758
2025-03-23 14:52:52.340,1.8633685791308696
2025-03-23 14:52:52.340,-0.37377607901856025
2025-03-23 14:52:52.347,-2.517644181797415
2025-03-23 14:52:52.348,-1.9511126965809533
2025-03-23 14:52:52.348,0.8611447078254939
2025-03-23 14:52:52.348,2.6458028745525386
2025-03-23 14:52:52.359,1.2906606134638672
2025-03-23 14:52:52.359,-1.4328137957293865
2025-03-23 14:52:52.360,-2.1138139547391255
2025-03-23 14:52:52.360,-0.06173720974700417
2025-03-23 14:52:52.360,1.979460532249726
2025-03-23 14:52:52.360,1.492851133677734
2025-03-23 14:52:52.368,-0.7904163754270019
2025-03-23 14:52:52.368,-2.1420564991786355
2025-03-23 14:52:52.368,-1.226570271463824
2025-03-23 14:52:52.368,0.6688596364112658
2025-03-23 14:52:52.378,1.5526305530446307
2025-03-23 14:52:52.378,0.9900760170651999
2025-03-23 14:52:52.378,0.07702975868246009
2025-03-23 14:52:52.378,-0.286452907395771
2025-03-23 14:52:52.378,-0.3370047861275668
2025-03-23 14:52:52.379,-0.6504421419409406
2025-03-23 14:52:52.388,-1.0427248559789948
2025-03-23 14:52:52.388,-0.7134669902448764
2025-03-23 14:52:52.388,0.5887324093348199
2025-03-23 14:52:52.388,1.8597930478600093
2025-03-23 14:52:52.397,1.6496478995317574
2025-03-23 14:52:52.398,-0.22055726810976053
2025-03-23 14:52:52.398,-2.0160946804598567
2025-03-23 14:52:52.398,-1.7528158941874081
2025-03-23 14:52:52.398,0.3535197116425613
2025-03-23 14:52:52.398,1.7818996791926445
2025-03-23 14:52:52.407,0.6959537659366557
2025-03-23 14:52:52.408,-1.4710219702148277
2025-03-23 14:52:52.408,-1.5957404236194679
2025-03-23 14:52:52.408,0.9415705483569196
2025-03-23 14:52:52.417,3.059215622064895
2025-03-23 14:52:52.418,1.7627031497444972
2025-03-23 14:52:52.418,-1.9190731610338954
2025-03-23 14:52:52.418,-4.006372988751369
2025-03-23 14:52:52.418,-2.2026317994386977
2025-03-23 14:52:52.427,1.6264845071153606
2025-03-23 14:52:52.428,3.6992481869052445
2025-03-23 14:52:52.428,2.307709817904699
2025-03-23 14:52:52.428,-0.7627368985097256
2025-03-23 14:52:52.428,-2.4290230392291052
2025-03-23 14:52:52.437,-1.4968021528603803
2025-03-23 14:52:52.438,0.4195508436716477
2025-03-23 14:52:52.438,0.9865926067493455
2025-03-23 14:52:52.438,-0.13016055013424188
2025-03-23 14:52:52.438,-1.008499212181689
2025-03-23 14:52:52.447,-0.03582784103413412
2025-03-23 14:52:52.448,1.8264180702914652
2025-03-23 14:52:52.448,2.0831137080324265
2025-03-23 14:52:52.448,-0.10608586059790907
2025-03-23 14:52:52.448,-2.6570373298197896
2025-03-23 14:52:52.457,-2.8699597277832916
2025-03-23 14:52:52.458,-0.467733572772738
2025-03-23 14:52:52.458,2.200711456708139
2025-03-23 14:52:52.458,2.775878505496077
2025-03-23 14:52:52.458,1.163535011051013
2025-03-23 14:52:52.467,-0.8674526251809812
2025-03-23 14:52:52.467,-1.773560795481214
2025-03-23 14:52:52.468,-1.4023343739376308
2025-03-23 14:52:52.468,-0.42612380100172653
2025-03-23 14:52:52.468,0.5196279150765704
2025-03-23 14:52:52.477,0.9884748674179689
2025-03-23 14:52:52.478,0.7845621398751449
2025-03-23 14:52:52.478,0.2841821455277531
2025-03-23 14:52:52.478,0.13158601375717718
2025-03-23 14:52:52.478,0.20789891339580022
2025-03-23 14:52:52.486,-0.42037585170229386
2025-03-23 14:52:52.486,-1.8303593757859171
2025-03-23 14:52:52.486,-2.24039522156141
2025-03-23 14:52:52.486,-0.011580914198372302
2025-03-23 14:52:52.487,3.4627694491630154
2025-03-23 14:52:52.496,4.402648337813331
2025-03-23 14:52:52.496,0.9307623782600442
2025-03-23 14:52:52.496,-4.159167782037444
2025-03-23 14:52:52.496,-5.872126133287391
2025-03-23 14:52:52.497,-2.1765696657295113
2025-03-23 14:52:52.506,3.7032725497947476
2025-03-23 14:52:52.506,6.281894212337267
2025-03-23 14:52:52.506,3.175721896951779
2025-03-23 14:52:52.506,-2.5220948168143353
2025-03-23 14:52:52.516,-5.425248282366969
2025-03-23 14:52:52.516,-3.3217520506353324
2025-03-23 14:52:52.516,1.013987466007792
2025-03-23 14:52:52.516,3.3778132513650494
2025-03-23 14:52:52.516,2.5185467789409297
2025-03-23 14:52:52.525,0.4224966907810225
2025-03-23 14:52:52.525,-0.8344974666569982
2025-03-23 14:52:52.526,-1.1441831508983575
2025-03-23 14:52:52.526,-1.2880371808182636
2025-03-23 14:52:52.526,-1.1833956081924852
2025-03-23 14:52:52.535,-0.16380209032113974
2025-03-23 14:52:52.536,1.4704113479169065
2025-03-23 14:52:52.536,2.18812335279413
2025-03-23 14:52:52.536,0.8777317014516752
2025-03-23 14:52:52.536,-1.5292574460665622
2025-03-23 14:52:52.545,-2.587866659723693
2025-03-23 14:52:52.546,-0.9065577479824839
2025-03-23 14:52:52.546,1.951890185994286
2025-03-23 14:52:52.546,2.845914401179823
2025-03-23 14:52:52.546,0.6237983922021526
2025-03-23 14:52:52.555,-2.3524718109147527
2025-03-23 14:52:52.556,-2.840655139560539
2025-03-23 14:52:52.556,-0.4312423846045654
2025-03-23 14:52:52.556,2.1197200859109113
2025-03-23 14:52:52.556,2.185222584959168
2025-03-23 14:52:52.564,0.1547169125393481
2025-03-23 14:52:52.564,-1.3541296852367988
2025-03-23 14:52:52.564,-0.7575685197942024
2025-03-23 14:52:52.564,0.7165235522581701
2025-03-23 14:52:52.564,0.7465505698478238
2025-03-23 14:52:52.574,-1.0176179787039317
2025-03-23 14:52:52.574,-2.2866365333453214
2025-03-23 14:52:52.574,-0.8582583710828036
2025-03-23 14:52:52.574,2.375555940063716
2025-03-23 14:52:52.574,3.9537810980938803
2025-03-23 14:52:52.584,1.6755430917160203
2025-03-23 14:52:52.584,-2.670922776844527
2025-03-23 14:52:52.584,-4.949216728480691
2025-03-23 14:52:52.584,-2.8417799889529975
2025-03-23 14:52:52.594,1.8950849355131314
2025-03-23 14:52:52.594,5.078773947471584
2025-03-23 14:52:52.594,3.8675021872136934
2025-03-23 14:52:52.594,-0.6678050589760417
2025-03-23 14:52:52.594,-4.448726054705993
2025-03-23 14:52:52.595,-4.185286894455221
2025-03-23 14:52:52.604,-0.4985804450729978
2025-03-23 14:52:52.604,2.9614510756628856
2025-03-23 14:52:52.604,3.439707933605065
2025-03-23 14:52:52.604,1.4791074499154386
2025-03-23 14:52:52.605,-0.6747016487924852
2025-03-23 14:52:52.614,-1.8757074447552007
2025-03-23 14:52:52.614,-2.2752375819279558
2025-03-23 14:52:52.614,-1.6798633405660346
2025-03-23 14:52:52.614,0.3781584988672153
2025-03-23 14:52:52.614,2.8173098090717033
2025-03-23 14:52:52.624,3.1275108361157677
2025-03-23 14:52:52.624,0.39238697844174664
2025-03-23 14:52:52.624,-2.8965369368463723
2025-03-23 14:52:52.624,-3.3497597680122224
2025-03-23 14:52:52.634,-0.6232857107227252
2025-03-23 14:52:52.634,2.2761460266029565
2025-03-23 14:52:52.634,2.605214472624767
2025-03-23 14:52:52.634,0.7342147564990817
2025-03-23 14:52:52.634,-0.9852278541092346
2025-03-23 14:52:52.635,-1.2333843469681556
2025-03-23 14:52:52.644,-0.6963664106864942
2025-03-23 14:52:52.644,-0.44610239751823616
2025-03-23 14:52:52.644,-0.4122669416591038
2025-03-23 14:52:52.644,0.18087887563642152
2025-03-23 14:52:52.654,1.3583186103644809
2025-03-23 14:52:52.654,1.9574199310911067
2025-03-23 14:52:52.654,0.8558749615279612
2025-03-23 14:52:52.654,-1.4938937026729069
2025-03-23 14:52:52.654,-3.0575529527498815
2025-03-23 14:52:52.664,-2.035445186735577
2025-03-23 14:52:52.664,1.1331978682967734
2025-03-23 14:52:52.664,3.66312268770144
2025-03-23 14:52:52.664,2.8370857763578763
2025-03-23 14:52:52.666,-0.964884221226812
2025-03-23 14:52:52.674,-4.004989659644044
2025-03-23 14:52:52.674,-2.8873053897614636
2025-03-23 14:52:52.674,1.4010993309032982
2025-03-23 14:52:52.674,4.167053229350784
2025-03-23 14:52:52.674,2.2719519451379506
2025-03-23 14:52:52.675,-2.1208276740563488
2025-03-23 14:52:52.684,-4.011526243078708
2025-03-23 14:52:52.684,-1.3832274722878963
2025-03-23 14:52:52.684,2.611381661687696
2025-03-23 14:52:52.684,3.504195992852076
2025-03-23 14:52:52.694,0.5487250913917666
2025-03-23 14:52:52.694,-2.8114048035591335
2025-03-23 14:52:52.694,-2.997383871214831
2025-03-23 14:52:52.694,-0.005820990638321588
2025-03-23 14:52:52.694,2.9385109125610698
2025-03-23 14:52:52.703,2.890255977377935
2025-03-23 14:52:52.703,0.03095345608158237
2025-03-23 14:52:52.704,-2.829788622390639
2025-03-23 14:52:52.704,-3.1589724609141934
2025-03-23 14:52:52.704,-0.8515511205359005
2025-03-23 14:52:52.713,2.10872738410309
2025-03-23 14:52:52.714,3.455928077095871
2025-03-23 14:52:52.714,2.1923016757527196
2025-03-23 14:52:52.714,-0.8163457028367184
2025-03-23 14:52:52.714,-3.3388182017139627
2025-03-23 14:52:52.723,-3.331654397562935
2025-03-23 14:52:52.724,-0.6580496525459765
2025-03-23 14:52:52.724,2.588026811041164
2025-03-23 14:52:52.724,3.760051767211785
2025-03-23 14:52:52.724,1.9461833318871895
2025-03-23 14:52:52.733,-1.3158097284379642
2025-03-23 14:52:52.734,-3.4759795804019307
2025-03-23 14:52:52.734,-2.9804095364309178
2025-03-23 14:52:52.734,-0.19794349476486645
2025-03-23 14:52:52.734,2.8784729137244827
2025-03-23 14:52:52.743,3.770544369325568
2025-03-23 14:52:52.744,1.3908933247618416
2025-03-23 14:52:52.744,-2.4398571126532986
2025-03-23 14:52:52.744,-4.034024232509161
2025-03-23 14:52:52.744,-1.5529508629200832
2025-03-23 14:52:52.753,2.461968205214474
2025-03-23 14:52:52.754,3.528636150511764
2025-03-23 14:52:52.754,0.5220278409449405
2025-03-23 14:52:52.754,-2.798205155727071
2025-03-23 14:52:52.754,-2.461551001228235
2025-03-23 14:52:52.763,0.7763886907182689
2025-03-23 14:52:52.763,2.7649040001925127
2025-03-23 14:52:52.764,1.4413549414892959
2025-03-23 14:52:52.764,-1.0666918567856793
2025-03-23 14:52:52.764,-1.8702681959586824
2025-03-23 14:52:52.772,-0.8655335860584268
2025-03-23 14:52:52.772,0.09536867696527723
2025-03-23 14:52:52.772,0.24459017560605736
2025-03-23 14:52:52.772,0.524924549930011
2025-03-23 14:52:52.773,1.3882096487179831
2025-03-23 14:52:52.782,1.5448926748153171
2025-03-23 14:52:52.782,-0.16356616898181
2025-03-23 14:52:52.782,-2.474744530827998
2025-03-23 14:52:52.782,-2.708910304263811
2025-03-23 14:52:52.791,-0.17831994193975342
2025-03-23 14:52:52.792,2.591316051850184
2025-03-23 14:52:52.792,2.7225919868549395
2025-03-23 14:52:52.792,0.3493259426392297
2025-03-23 14:52:52.792,-1.7660847930174377
2025-03-23 14:52:52.801,-1.6562548670163333
2025-03-23 14:52:52.802,-0.16808469658766925
2025-03-23 14:52:52.802,0.6182224817265655
2025-03-23 14:52:52.802,0.0694308917127923
2025-03-23 14:52:52.802,-0.5704073041682703
2025-03-23 14:52:52.811,-0.037767358958281136
2025-03-23 14:52:52.812,1.3197093065298264
2025-03-23 14:52:52.812,1.8714503045777482
2025-03-23 14:52:52.812,0.5104652740551705
2025-03-23 14:52:52.812,-1.9119355010760641
2025-03-23 14:52:52.821,-3.1362282275125795
2025-03-23 14:52:52.822,-1.73084853527689
2025-03-23 14:52:52.822,1.3224064592947928
2025-03-23 14:52:52.822,3.502020722159697
2025-03-23 14:52:52.822,3.0575818140029543
2025-03-23 14:52:52.831,0.3291026744606188
2025-03-23 14:52:52.832,-2.7521841259503135
2025-03-23 14:52:52.832,-3.997154170131024
2025-03-23 14:52:52.832,-2.2867696978077587
2025-03-23 14:52:52.832,1.4145695987510787
2025-03-23 14:52:52.841,4.23854667002718
2025-03-23 14:52:52.842,3.5853765313283152
2025-03-23 14:52:52.842,-0.1622529806714817
2025-03-23 14:52:52.842,-3.568527123483473
2025-03-23 14:52:52.842,-3.538619755047255
2025-03-23 14:52:52.850,-0.5769681471573773
2025-03-23 14:52:52.850,2.0303440202148084
2025-03-23 14:52:52.850,2.0911587417657063
2025-03-23 14:52:52.850,0.6025695805520194
2025-03-23 14:52:52.860,-0.2258580107196274
2025-03-23 14:52:52.860,0.05210465486221823
2025-03-23 14:52:52.860,0.08160155312101611
2025-03-23 14:52:52.860,-0.8814032814496994
2025-03-23 14:52:52.860,-1.7782942018829127
2025-03-23 14:52:52.869,-1.2183704860091824
2025-03-23 14:52:52.870,0.6837546256143026
2025-03-23 14:52:52.870,2.3665757554763864
2025-03-23 14:52:52.870,2.334682336726452
2025-03-23 14:52:52.870,0.46749988924928587
2025-03-23 14:52:52.880,-1.8268893183069934
2025-03-23 14:52:52.880,-2.730547186084445
2025-03-23 14:52:52.880,-1.6184268982796859
2025-03-23 14:52:52.880,0.4422218791212964
2025-03-23 14:52:52.880,1.903700208817295
2025-03-23 14:52:52.889,2.1277499533976645
2025-03-23 14:52:52.890,1.3475404048763473
2025-03-23 14:52:52.890,-0.12845774693155207
2025-03-23 14:52:52.890,-1.8709111078014184
2025-03-23 14:52:52.890,-2.7687409531971925
2025-03-23 14:52:52.899,-1.6611426778844829
2025-03-23 14:52:52.900,1.011266287904103
2025-03-23 14:52:52.900,3.0050655274750606
2025-03-23 14:52:52.900,2.4980441257322465
2025-03-23 14:52:52.900,0.12147285462275809
2025-03-23 14:52:52.908,-1.8845474177104786
2025-03-23 14:52:52.908,-2.1578736340590696
2025-03-23 14:52:52.908,-1.1076193627886823
2025-03-23 14:52:52.908,0.26779413681588266
2025-03-23 14:52:52.908,1.3242499865839406
2025-03-23 14:52:52.919,1.5396811165513538
2025-03-23 14:52:52.919,0.5985013179637968
2025-03-23 14:52:52.920,-0.7802021839645322
2025-03-23 14:52:52.920,-1.1486927952335
2025-03-23 14:52:52.920,-0.20708365610743645
2025-03-23 14:52:52.928,0.5570087024727098
2025-03-23 14:52:52.928,0.014966313556986882
2025-03-23 14:52:52.928,-0.7730536869832753
2025-03-23 14:52:52.928,-0.18364985332360947
2025-03-23 14:52:52.939,1.2329031982260086
2025-03-23 14:52:52.939,1.3265268595280948
2025-03-23 14:52:52.940,-0.4344100511664993
2025-03-23 14:52:52.940,-1.9373688407849077
2025-03-23 14:52:52.940,-1.179521465536276
2025-03-23 14:52:52.940,1.0479472830101368
2025-03-23 14:52:52.948,2.1151332298409518
2025-03-23 14:52:52.948,0.7583589217630632
2025-03-23 14:52:52.948,-1.4992041379128043
2025-03-23 14:52:52.948,-2.191205604728255
2025-03-23 14:52:52.958,-0.6095905921627833
2025-03-23 14:52:52.958,1.6128422342686015
2025-03-23 14:52:52.958,2.3210118101213424
2025-03-23 14:52:52.958,0.9304605812854013
2025-03-23 14:52:52.958,-1.1907372787059185
2025-03-23 14:52:52.967,-2.1607580851327586
2025-03-23 14:52:52.967,-1.3276184968332636
2025-03-23 14:52:52.968,0.30861739373486385
2025-03-23 14:52:52.968,1.2704655249900285
2025-03-23 14:52:52.968,1.0981885008079189
2025-03-23 14:52:52.977,0.5757958103936074
2025-03-23 14:52:52.978,0.43710200818256406
2025-03-23 14:52:52.978,0.20574403649367456
2025-03-23 14:52:52.978,-0.9997137389306872
2025-03-23 14:52:52.978,-2.5140230902207676
2025-03-23 14:52:52.987,-2.1725172584862165
2025-03-23 14:52:52.987,0.7960793522472028
2025-03-23 14:52:52.988,3.847126125425418
2025-03-23 14:52:52.988,3.6031550024962633
2025-03-23 14:52:52.988,0.04562613355427453
2025-03-23 14:52:52.997,-3.2867518018678883
2025-03-23 14:52:52.998,-3.519728150315378
2025-03-23 14:52:52.998,-1.3712118004874476
2025-03-23 14:52:52.998,0.7661659426287593
2025-03-23 14:52:52.998,2.0125052558840513
2025-03-23 14:52:53.007,2.7420053917662126
2025-03-23 14:52:53.007,2.3853067590714416
2025-03-23 14:52:53.008,-0.07932486145134547
2025-03-23 14:52:53.008,-3.4426013072540984
2025-03-23 14:52:53.008,-4.391039124234818
2025-03-23 14:52:53.017,-1.384634378469592
2025-03-23 14:52:53.017,2.9584386729177865
2025-03-23 14:52:53.018,4.533808674322617
2025-03-23 14:52:53.018,2.147731202339064
2025-03-23 14:52:53.018,-1.6262446535324018
2025-03-23 14:52:53.026,-3.4806654085893087
2025-03-23 14:52:53.026,-2.368420031871001
2025-03-23 14:52:53.026,0.27460369070709234
2025-03-23 14:52:53.026,2.2633551767613387
2025-03-23 14:52:53.036,2.303099405341106
2025-03-23 14:52:53.036,0.6203820712299722
2025-03-23 14:52:53.036,-1.3639787365379141
2025-03-23 14:52:53.036,-2.0949389579454256
2025-03-23 14:52:53.036,-1.0859188607383419
2025-03-23 14:52:53.045,0.693580926085277
2025-03-23 14:52:53.046,1.6774893352692306
2025-03-23 14:52:53.046,1.1340891328217944
2025-03-23 14:52:53.046,-0.15974146453400806
2025-03-23 14:52:53.046,-0.8269891420240951
2025-03-23 14:52:53.056,-0.5190955011867731
2025-03-23 14:52:53.056,-0.19012474482277633
2025-03-23 14:52:53.056,-0.49341668601518496
2025-03-23 14:52:53.056,-0.6431459677117196
2025-03-23 14:52:53.056,0.3239113462825056
2025-03-23 14:52:53.065,1.6949801359836738
2025-03-23 14:52:53.066,1.6732928074469398
2025-03-23 14:52:53.066,-0.16000271633674124
2025-03-23 14:52:53.066,-2.0278277154111697
2025-03-23 14:52:53.066,-2.018883855155705
2025-03-23 14:52:53.076,-0.2764032935443511
2025-03-23 14:52:53.076,1.393489444134277
2025-03-23 14:52:53.076,1.6358332624440264
2025-03-23 14:52:53.076,0.6697213407745115
2025-03-23 14:52:53.076,-0.42501461641080135
2025-03-23 14:52:53.085,-0.8612606478415173
2025-03-23 14:52:53.086,-0.5789383050546967
2025-03-23 14:52:53.086,-0.06186574922329859
2025-03-23 14:52:53.086,0.13258627962702477
2025-03-23 14:52:53.086,-0.07790542459383684
2025-03-23 14:52:53.095,-0.20867466017294276
2025-03-23 14:52:53.096,0.15705361691247577
2025-03-23 14:52:53.096,0.752781424952808
2025-03-23 14:52:53.096,0.8844117906715578
2025-03-23 14:52:53.096,0.2350085025244312
2025-03-23 14:52:53.104,-0.784434491535952
2025-03-23 14:52:53.104,-1.4263303668470801
2025-03-23 14:52:53.104,-1.165753288559153
2025-03-23 14:52:53.104,0.005086544199576267
2025-03-23 14:52:53.105,1.4713623259821391
2025-03-23 14:52:53.115,2.1433738775681324
2025-03-23 14:52:53.116,1.186848870875636
2025-03-23 14:52:53.116,-0.9914787752325959
2025-03-23 14:52:53.116,-2.6748724582468006
2025-03-23 14:52:53.116,-2.232215894226935
2025-03-23 14:52:53.125,0.2040955342083547
2025-03-23 14:52:53.126,2.597467544998283
2025-03-23 14:52:53.126,2.7949948189121594
2025-03-23 14:52:53.126,0.5954312036732996
2025-03-23 14:52:53.126,-2.0136498154100244
2025-03-23 14:52:53.135,-2.762975984014927
2025-03-23 14:52:53.136,-1.208953477693956
2025-03-23 14:52:53.136,1.0598832426749696
2025-03-23 14:52:53.136,2.1267805575854535
2025-03-23 14:52:53.136,1.4793617528502265
2025-03-23 14:52:53.144,0.10180964769433087
2025-03-23 14:52:53.144,-0.8779136751084031
2025-03-23 14:52:53.144,-1.236344344594703
2025-03-23 14:52:53.144,-1.227118790324971
2025-03-23 14:52:53.154,-0.6954626499040998
2025-03-23 14:52:53.154,0.5881103381076824
2025-03-23 14:52:53.154,1.87851744987217
2025-03-23 14:52:53.154,1.7793990751446198
2025-03-23 14:52:53.154,0.04737135661450152
2025-03-23 14:52:53.155,-1.669955729053823
2025-03-23 14:52:53.164,-1.6271104353738228
2025-03-23 14:52:53.164,-0.16708470507864537
2025-03-23 14:52:53.164,0.7366421019711933
2025-03-23 14:52:53.164,0.16880260861236213
2025-03-23 14:52:53.174,-0.48524363051347
2025-03-23 14:52:53.174,0.3409351595638885
2025-03-23 14:52:53.174,1.8189369157555437
2025-03-23 14:52:53.174,1.575737537451324
2025-03-23 14:52:53.175,-0.9180598547588117
2025-03-23 14:52:53.183,-3.1462376939205328
2025-03-23 14:52:53.184,-2.4421185378446366
2025-03-23 14:52:53.184,0.7068203530517239
2025-03-23 14:52:53.184,3.1806583528448678
2025-03-23 14:52:53.184,2.7291434858
2025-03-23 14:52:53.194,0.06139831509605109
2025-03-23 14:52:53.194,-2.3924310832375184
2025-03-23 14:52:53.194,-2.7651567200812983
2025-03-23 14:52:53.194,-0.8008893342523221
2025-03-23 14:52:53.194,2.0465975927691082
2025-03-23 14:52:53.204,3.157348744136668
2025-03-23 14:52:53.204,0.8612992872763929
2025-03-23 14:52:53.204,-3.020291774152175
2025-03-23 14:52:53.204,-4.062953893638262
2025-03-23 14:52:53.204,-0.2196110421036911
2025-03-23 14:52:53.213,4.827267423742424
2025-03-23 14:52:53.213,5.173917834277178
2025-03-23 14:52:53.214,-0.29748627118860754
2025-03-23 14:52:53.214,-6.06973711629346
2025-03-23 14:52:53.214,-6.002165606599863
2025-03-23 14:52:53.223,-0.1296008649659796
2025-03-23 14:52:53.224,5.64468459294141
2025-03-23 14:52:53.224,6.05063562018371
2025-03-23 14:52:53.224,1.4334251198365342
2025-03-23 14:52:53.224,-3.578399182295125
2025-03-23 14:52:53.232,-5.034098187015151
2025-03-23 14:52:53.232,-2.711852602103245
2025-03-23 14:52:53.232,0.846942375341804
2025-03-23 14:52:53.232,3.0960831460688416
2025-03-23 14:52:53.233,3.1042007834371255
2025-03-23 14:52:53.242,1.3917481489624854
2025-03-23 14:52:53.242,-0.8558262171456921
2025-03-23 14:52:53.242,-2.3818110616932104
2025-03-23 14:52:53.242,-2.3755768144152127
2025-03-23 14:52:53.252,-0.9357770052778732
2025-03-23 14:52:53.252,0.9511727082991149
2025-03-23 14:52:53.252,2.067028162866522
2025-03-23 14:52:53.252,1.7840369202532056
2025-03-23 14:52:53.252,0.43176518640385886
2025-03-23 14:52:53.261,-1.028881535823077
2025-03-23 14:52:53.262,-1.6942697294853235
2025-03-23 14:52:53.262,-1.225467668795037
2025-03-23 14:52:53.262,0.02230772930703679
2025-03-23 14:52:53.262,1.1693784492005899
2025-03-23 14:52:53.272,1.3369202035825705
2025-03-23 14:52:53.272,0.4010000306616462
2025-03-23 14:52:53.272,-0.7543337310740057
2025-03-23 14:52:53.272,-1.0221733718548711
2025-03-23 14:52:53.272,-0.21825203762495865
2025-03-23 14:52:53.282,0.7092636702751935
2025-03-23 14:52:53.282,0.7151741417427835
2025-03-23 14:52:53.282,-0.1954130531253771
2025-03-23 14:52:53.282,-0.9885620600520986
2025-03-23 14:52:53.282,-0.7358173045764002
2025-03-23 14:52:53.291,0.4114688413548116
2025-03-23 14:52:53.292,1.3737166470448436
2025-03-23 14:52:53.292,1.1529992103875069
2025-03-23 14:52:53.292,-0.23370894198317688
2025-03-23 14:52:53.292,-1.6460881356574086
2025-03-23 14:52:53.301,-1.7302123598550456
2025-03-23 14:52:53.302,-0.21433711629897845
2025-03-23 14:52:53.302,1.646896226895583
2025-03-23 14:52:53.302,2.111785751390681
2025-03-23 14:52:53.302,0.618870879387607
2025-03-23 14:52:53.311,-1.5112602406307094
2025-03-23 14:52:53.312,-2.170448664237789
2025-03-23 14:52:53.312,-0.5753674748245594
2025-03-23 14:52:53.312,1.6548069558532525
2025-03-23 14:52:53.312,1.9904531791338793
2025-03-23 14:52:53.321,-0.10915865621315832
2025-03-23 14:52:53.322,-2.2546372557287504
2025-03-23 14:52:53.322,-1.752682980946229
2025-03-23 14:52:53.322,1.0587204337328213
2025-03-23 14:52:53.322,2.992751779667558
2025-03-23 14:52:53.331,1.7172809591473464
2025-03-23 14:52:53.332,-1.5234783651461574
2025-03-23 14:52:53.332,-3.3686241967150594
2025-03-23 14:52:53.332,-2.000528369459402
2025-03-23 14:52:53.332,1.1547391640068507
2025-03-23 14:52:53.341,3.0905222312502483
2025-03-23 14:52:53.342,2.1873436825604657
2025-03-23 14:52:53.342,-0.3858007300859746
2025-03-23 14:52:53.342,-2.0712004775519035
2025-03-23 14:52:53.342,-1.639424470612713
2025-03-23 14:52:53.350,-0.20125708143780124
2025-03-23 14:52:53.350,0.5568527002957749
2025-03-23 14:52:53.350,0.42083571372960293
2025-03-23 14:52:53.350,0.33229984188328165
2025-03-23 14:52:53.351,0.6418385150480104
2025-03-23 14:52:53.360,0.6998949257006014
2025-03-23 14:52:53.360,0.0909047454740829
2025-03-23 14:52:53.360,-0.6909876749809856
2025-03-23 14:52:53.361,-1.05272685742325
2025-03-23 14:52:53.361,-0.9879266990742489
2025-03-23 14:52:53.370,-0.5428938542081004
2025-03-23 14:52:53.370,0.5599512041841139
2025-03-23 14:52:53.370,1.9938828665995019
2025-03-23 14:52:53.370,2.2722440141853886
2025-03-23 14:52:53.381,0.35992671914262325
2025-03-23 14:52:53.382,-2.396403104904783
2025-03-23 14:52:53.382,-3.241455495167395
2025-03-23 14:52:53.382,-1.2008658715447655
2025-03-23 14:52:53.382,1.667334438329879
2025-03-23 14:52:53.382,2.6901601671420723
2025-03-23 14:52:53.390,1.5017777396695595
2025-03-23 14:52:53.390,-0.14107853858422015
2025-03-23 14:52:53.390,-0.8963096647560141
2025-03-23 14:52:53.390,-1.0687051169515198
2025-03-23 14:52:53.400,-1.278161209494849
2025-03-23 14:52:53.400,-1.1080091023716085
2025-03-23 14:52:53.400,0.12766843216650328
2025-03-23 14:52:53.400,1.8678039041524286
2025-03-23 14:52:53.401,2.4789971393882233
2025-03-23 14:52:53.401,1.0282524164634428
2025-03-23 14:52:53.410,-1.5209274566225433
2025-03-23 14:52:53.410,-3.0371964923459167
2025-03-23 14:52:53.410,-2.1287624418282567
2025-03-23 14:52:53.410,0.5642799634660055
2025-03-23 14:52:53.420,2.849286421776639
2025-03-23 14:52:53.420,2.82307390380632
2025-03-23 14:52:53.420,0.5122208103584205
2025-03-23 14:52:53.420,-2.1048255735928167
2025-03-23 14:52:53.420,-2.8040049575712005
2025-03-23 14:52:53.430,-1.1148186809879475
2025-03-23 14:52:53.430,1.268394867494704
2025-03-23 14:52:53.430,2.134290330330095
2025-03-23 14:52:53.430,0.8807188200017014
2025-03-23 14:52:53.430,-0.9606434023078877
2025-03-23 14:52:53.440,-1.3336945683076207
2025-03-23 14:52:53.440,0.12187251571049378
2025-03-23 14:52:53.440,1.5448999715852973
2025-03-23 14:52:53.440,0.8908033445149399
2025-03-23 14:52:53.440,-1.4557255877908606
2025-03-23 14:52:53.449,-2.7186515688219
2025-03-23 14:52:53.450,-0.9223720479436426
2025-03-23 14:52:53.450,2.3964352008661933
2025-03-23 14:52:53.450,3.620114663836668
2025-03-23 14:52:53.450,1.2604722123610694
2025-03-23 14:52:53.460,-2.2469931896040727
2025-03-23 14:52:53.460,-3.4494967474457527
2025-03-23 14:52:53.460,-1.687513925703893
2025-03-23 14:52:53.460,0.8516192640991026
2025-03-23 14:52:53.460,2.13989318537412
2025-03-23 14:52:53.469,2.028919144893423
2025-03-23 14:52:53.470,1.1608828504131852
2025-03-23 14:52:53.470,-0.28331556947055037
2025-03-23 14:52:53.470,-2.0195502370241134
2025-03-23 14:52:53.470,-2.818496420541632
2025-03-23 14:52:53.479,-1.4581597533390573
2025-03-23 14:52:53.480,1.4450659807835677
2025-03-23 14:52:53.480,3.4235103613958544
2025-03-23 14:52:53.480,2.535264769005606
2025-03-23 14:52:53.480,-0.4809923937766594
2025-03-23 14:52:53.488,-2.8610406917015614
2025-03-23 14:52:53.488,-2.6087872228583033
2025-03-23 14:52:53.488,-0.34216744103143293
2025-03-23 14:52:53.489,1.6567016857898855
2025-03-23 14:52:53.489,1.859003599494929
2025-03-23 14:52:53.499,0.6662839333761963
2025-03-23 14:52:53.500,-0.5694702840506417
2025-03-23 14:52:53.500,-1.0356549822342231
2025-03-23 14:52:53.500,-0.7327548755049371
2025-03-23 14:52:53.500,0.06131286120157214
2025-03-23 14:52:53.508,0.8783374108555526
2025-03-23 14:52:53.508,0.9532300919113159
2025-03-23 14:52:53.508,-0.08335233762504246
2025-03-23 14:52:53.508,-1.3536348702527274
2025-03-23 14:52:53.518,-1.350127941362541
2025-03-23 14:52:53.518,0.24029453289297442
2025-03-23 14:52:53.518,1.8417058666302162
2025-03-23 14:52:53.518,1.6437084605586942
2025-03-23 14:52:53.519,-0.2480908593222488
2025-03-23 14:52:53.519,-1.8656312752209192
2025-03-23 14:52:53.528,-1.6211957496003875
2025-03-23 14:52:53.528,0.028277637952339646
2025-03-23 14:52:53.528,1.3705121012484336
2025-03-23 14:52:53.528,1.3788481218434214
2025-03-23 14:52:53.538,0.4206412168783509
2025-03-23 14:52:53.538,-0.6032099193173043
2025-03-23 14:52:53.538,-1.1366600981368544
2025-03-23 14:52:53.538,-0.9719277269416555
2025-03-23 14:52:53.538,-0.0942310870748235
2025-03-23 14:52:53.547,1.0062170855714216
2025-03-23 14:52:53.548,1.3303933659157787
2025-03-23 14:52:53.548,0.3885174251213556
2025-03-23 14:52:53.548,-0.9313448374150266
2025-03-23 14:52:53.548,-1.2157716864041002
2025-03-23 14:52:53.558,-0.2481453227912022
2025-03-23 14:52:53.558,0.7665292502075794
2025-03-23 14:52:53.558,0.7648458051270693
2025-03-23 14:52:53.558,0.0001286509493182708
2025-03-23 14:52:53.558,-0.5347736648934021
2025-03-23 14:52:53.567,-0.3655067449975009
2025-03-23 14:52:53.568,0.11746358001492116
2025-03-23 14:52:53.568,0.3318933367973932
2025-03-23 14:52:53.568,0.159938914849101
2025-03-23 14:52:53.568,-0.0963604786170016
2025-03-23 14:52:53.577,-0.16564606410957894
2025-03-23 14:52:53.578,-0.056321377117665855
2025-03-23 14:52:53.578,0.04597720183518997
2025-03-23 14:52:53.578,0.010491260893677645
2025-03-23 14:52:53.578,-0.08424352131551417
2025-03-23 14:52:53.586,-0.02784111367093897
2025-03-23 14:52:53.586,0.2160087012240757
2025-03-23 14:52:53.586,0.33999989053414464
2025-03-23 14:52:53.587,0.011429000577402558
2025-03-23 14:52:53.587,-0.5957377570153775
2025-03-23 14:52:53.597,-0.7747494073889319
2025-03-23 14:52:53.598,-0.04246027400688154
2025-03-23 14:52:53.598,1.0690161329407923
2025-03-23 14:52:53.598,1.3384850587658115
2025-03-23 14:52:53.598,0.25147947230747814
2025-03-23 14:52:53.606,-1.2336524668539883
2025-03-23 14:52:53.606,-1.7093643482627439
2025-03-23 14:52:53.606,-0.8350509841022282
2025-03-23 14:52:53.606,0.5816764046208167
2025-03-23 14:52:53.616,1.6262293332205164
2025-03-23 14:52:53.616,1.7897566296560559
2025-03-23 14:52:53.616,0.8167558853594372
2025-03-23 14:52:53.616,-1.0353561083918412
2025-03-23 14:52:53.617,-2.5464501226220295
2025-03-23 14:52:53.617,-2.2434859936141107
2025-03-23 14:52:53.626,-0.05155978779088406
2025-03-23 14:52:53.626,2.2597869672466393
2025-03-23 14:52:53.626,2.7927442030915013
2025-03-23 14:52:53.626,1.3888877362058774
2025-03-23 14:52:53.636,-0.6117629407502362
2025-03-23 14:52:53.636,-1.995546522232625
2025-03-23 14:52:53.636,-2.3492084188618887
2025-03-23 14:52:53.637,-1.526304713625783
2025-03-23 14:52:53.637,0.3815536243335536
2025-03-23 14:52:53.637,2.3250364486434516
2025-03-23 14:52:53.646,2.6310276014425034
2025-03-23 14:52:53.646,0.828369806232409
2025-03-23 14:52:53.646,-1.4150873933344086
2025-03-23 14:52:53.646,-2.006190875242257
2025-03-23 14:52:53.656,-0.8345421162478218
2025-03-23 14:52:53.656,0.3413631335724562
2025-03-23 14:52:53.656,0.3307680080291805
2025-03-23 14:52:53.656,-0.12610349384951108
2025-03-23 14:52:53.656,0.22469263203118847
2025-03-23 14:52:53.666,1.181741437182017
2025-03-23 14:52:53.666,1.322212850616188
2025-03-23 14:52:53.666,-0.0075142123051553725
2025-03-23 14:52:53.666,-1.6715399434548983
2025-03-23 14:52:53.666,-2.0205222687634015
2025-03-23 14:52:53.676,-0.7928372548365045
2025-03-23 14:52:53.676,0.7805686256563947
2025-03-23 14:52:53.676,1.5984184610858325
2025-03-23 14:52:53.676,1.639035580523854
2025-03-23 14:52:53.676,1.1443776522341635
2025-03-23 14:52:53.686,-0.11643834331093147
2025-03-23 14:52:53.686,-1.9599257673296606
2025-03-23 14:52:53.686,-2.9067785594528726
2025-03-23 14:52:53.686,-1.4994107199115654
2025-03-23 14:52:53.686,1.4873654279206698
2025-03-23 14:52:53.696,3.3177442355252507
2025-03-23 14:52:53.696,2.2774635493202915
2025-03-23 14:52:53.696,-0.40814836869155996
2025-03-23 14:52:53.696,-2.206826875356212
2025-03-23 14:52:53.696,-2.0791407022824044
2025-03-23 14:52:53.706,-0.8540447580867245
2025-03-23 14:52:53.706,0.47125978254451395
2025-03-23 14:52:53.706,1.5277173977618166
2025-03-23 14:52:53.706,1.8693168574996168
2025-03-23 14:52:53.706,0.8780059821120703
2025-03-23 14:52:53.716,-1.0943624954839941
2025-03-23 14:52:53.716,-2.3795102354306015
2025-03-23 14:52:53.716,-1.5919440356855619
2025-03-23 14:52:53.716,0.6752717283155347
2025-03-23 14:52:53.716,2.322213276839987
2025-03-23 14:52:53.726,1.8993991402530874
2025-03-23 14:52:53.726,-0.04511379235795407
2025-03-23 14:52:53.726,-1.7312706329463265
2025-03-23 14:52:53.726,-1.8885427862034492
2025-03-23 14:52:53.726,-0.6751681525898947
2025-03-23 14:52:53.736,0.7794470663261243
2025-03-23 14:52:53.736,1.4667215954354116
2025-03-23 14:52:53.736,1.1693575264339733
2025-03-23 14:52:53.736,0.28464523082443244
2025-03-23 14:52:53.736,-0.6662845372300062
2025-03-23 14:52:53.745,-1.2135886599149488
2025-03-23 14:52:53.746,-1.0305688152507695
2025-03-23 14:52:53.746,-0.2661245727929351
2025-03-23 14:52:53.746,0.48649873237167274
2025-03-23 14:52:53.746,0.8990908656021869
2025-03-23 14:52:53.755,1.1561703230448321
2025-03-23 14:52:53.756,1.1196063370012166
2025-03-23 14:52:53.756,0.03953509568933048
2025-03-23 14:52:53.756,-1.9841589270365585
2025-03-23 14:52:53.756,-2.949732176861894
2025-03-23 14:52:53.766,-0.9433878234537691
2025-03-23 14:52:53.766,2.7316485048662495
2025-03-23 14:52:53.766,4.091867021827407
2025-03-23 14:52:53.766,1.133527396029074
2025-03-23 14:52:53.766,-3.191213066595004
2025-03-23 14:52:53.775,-4.119486247973463
2025-03-23 14:52:53.776,-0.7280738389090824
2025-03-23 14:52:53.776,3.070613937000515
2025-03-23 14:52:53.776,3.274472082568939
2025-03-23 14:52:53.776,0.19424635864303302
2025-03-23 14:52:53.784,-2.48648901082864
2025-03-23 14:52:53.784,-2.147939857197721
2025-03-23 14:52:53.784,0.22768212283555725
2025-03-23 14:52:53.784,1.7839999898391443
2025-03-23 14:52:53.794,1.16810906140191
2025-03-23 14:52:53.794,-0.3788888053401364
2025-03-23 14:52:53.794,-0.9901529699469018
2025-03-23 14:52:53.794,-0.3976313113619025
2025-03-23 14:52:53.794,0.2079133416829715
2025-03-23 14:52:53.804,0.03040161927691708
2025-03-23 14:52:53.804,-0.37482473897930746
2025-03-23 14:52:53.804,-0.08271263569100758
2025-03-23 14:52:53.804,0.8211544122248187
2025-03-23 14:52:53.804,1.2619120937288462
2025-03-23 14:52:53.814,0.46022079043661096
2025-03-23 14:52:53.814,-1.093146144122993
2025-03-23 14:52:53.814,-2.005772957485578
2025-03-23 14:52:53.814,-1.2791633694880515
2025-03-23 14:52:53.814,0.6769133739792402
2025-03-23 14:52:53.824,2.2526502782141202
2025-03-23 14:52:53.824,2.013154921108925
2025-03-23 14:52:53.824,0.07259187869668984
2025-03-23 14:52:53.824,-1.904225225774905
2025-03-23 14:52:53.824,-2.219869836855916
2025-03-23 14:52:53.834,-0.7379083524966972
2025-03-23 14:52:53.834,1.0893671972134038
2025-03-23 14:52:53.834,1.7706065227705392
2025-03-23 14:52:53.834,1.1354603650616522
2025-03-23 14:52:53.834,0.040058847936079583
2025-03-23 14:52:53.843,-0.8452463149039922
2025-03-23 14:52:53.844,-1.3692187253955548
2025-03-23 14:52:53.844,-1.2623081188439234
2025-03-23 14:52:53.844,-0.12863660239681385
2025-03-23 14:52:53.844,1.5556397031083622
2025-03-23 14:52:53.854,2.210063663600229
2025-03-23 14:52:53.854,0.7644682651150485
2025-03-23 14:52:53.854,-1.6644468282247313
2025-03-23 14:52:53.854,-2.565397400546048
2025-03-23 14:52:53.854,-0.854607324972662
2025-03-23 14:52:53.863,1.6746390635997754
2025-03-23 14:52:53.864,2.3155625325166596
2025-03-23 14:52:53.864,0.5257198462250686
2025-03-23 14:52:53.864,-1.63060385334014
2025-03-23 14:52:53.864,-1.940074103220845
2025-03-23 14:52:53.873,-0.24799272286609217
2025-03-23 14:52:53.874,1.7159863446494006
2025-03-23 14:52:53.874,2.04842942363224
2025-03-23 14:52:53.874,0.25598447083482184
2025-03-23 14:52:53.874,-2.1647534625523623
2025-03-23 14:52:53.884,-2.730915864823232
2025-03-23 14:52:53.884,-0.3818879258523569
2025-03-23 14:52:53.884,2.885523361632778
2025-03-23 14:52:53.884,3.612053873160215
2025-03-23 14:52:53.884,0.6435656389785642
2025-03-23 14:52:53.892,-3.2753398398516764
2025-03-23 14:52:53.892,-4.291041163524681
2025-03-23 14:52:53.893,-1.450639008978425
2025-03-23 14:52:53.893,2.586270398084531
2025-03-23 14:52:53.893,4.410362939250932
2025-03-23 14:52:53.902,2.8157608810167405
2025-03-23 14:52:53.902,-0.7122386468074742
2025-03-23 14:52:53.902,-3.5521003636741058
2025-03-23 14:52:53.902,-3.8425969364087016
2025-03-23 14:52:53.912,-1.533903045929453
2025-03-23 14:52:53.912,1.7427249485819376
2025-03-23 14:52:53.912,3.7320731188633767
2025-03-23 14:52:53.912,3.003653952589433
2025-03-23 14:52:53.913,0.06789423692561922
2025-03-23 14:52:53.922,-2.7575493120462715
2025-03-23 14:52:53.922,-3.1159690483042106
2025-03-23 14:52:53.922,-0.7992875018638517
2025-03-23 14:52:53.922,1.8778422520380176
2025-03-23 14:52:53.922,2.301769095633961
2025-03-23 14:52:53.923,0.27457799039253783
2025-03-23 14:52:53.932,-1.7948995122038116
2025-03-23 14:52:53.932,-1.5691555702123319
2025-03-23 14:52:53.932,0.6760118986313721
2025-03-23 14:52:53.933,2.4686828505517107
2025-03-23 14:52:53.942,1.8176264869960286
2025-03-23 14:52:53.942,-0.8739387562968451
2025-03-23 14:52:53.942,-3.3063626269947055
2025-03-23 14:52:53.942,-3.26095436939515
2025-03-23 14:52:53.942,-0.3378070763301513
2025-03-23 14:52:53.951,3.541237166096906
2025-03-23 14:52:53.952,5.201604850252086
2025-03-23 14:52:53.952,2.6265381618861254
2025-03-23 14:52:53.952,-2.7636297824061296
2025-03-23 14:52:53.952,-6.462544868656086
2025-03-23 14:52:53.962,-4.737197546818185
2025-03-23 14:52:53.962,1.2672536903208906
2025-03-23 14:52:53.962,6.079153275234738
2025-03-23 14:52:53.962,5.348295139340115
2025-03-23 14:52:53.962,0.2904342124171216
2025-03-23 14:52:53.970,-3.9938067764525407
2025-03-23 14:52:53.970,-4.118266181337666
2025-03-23 14:52:53.970,-1.2936075765434556
2025-03-23 14:52:53.971,1.173319228666749
2025-03-23 14:52:53.980,1.7789124725405479
2025-03-23 14:52:53.980,1.4071634382310716
2025-03-23 14:52:53.980,1.0495219179735662
2025-03-23 14:52:53.980,0.4886092184860347
2025-03-23 14:52:53.981,-0.660511238203245
2025-03-23 14:52:53.990,-1.7863273097699721
2025-03-23 14:52:53.990,-1.8240492947815659
2025-03-23 14:52:53.990,-0.5484827133436947
2025-03-23 14:52:53.990,1.1125129824562536
2025-03-23 14:52:53.990,1.9384319655593654
2025-03-23 14:52:54.000,1.4336295012762927
2025-03-23 14:52:54.000,0.13586476137124598
2025-03-23 14:52:54.000,-0.9355102911046088
2025-03-23 14:52:54.000,-1.1965447306983963
2025-03-23 14:52:54.001,-0.9212613952502156
2025-03-23 14:52:54.010,-0.6657688255831897
2025-03-23 14:52:54.010,-0.36606776540609864
2025-03-23 14:52:54.010,0.5455237334905807
2025-03-23 14:52:54.010,1.948967220534155
2025-03-23 14:52:54.010,2.542135984333091
2025-03-23 14:52:54.020,1.128611671596508
2025-03-23 14:52:54.020,-1.7982243040879267
2025-03-23 14:52:54.020,-4.152918545901842
2025-03-23 14:52:54.020,-3.8540783198949202
2025-03-23 14:52:54.021,-0.43031859389261085
2025-03-23 14:52:54.030,4.245301484402366
2025-03-23 14:52:54.030,6.638119108084015
2025-03-23 14:52:54.030,4.060008744947151
2025-03-23 14:52:54.030,-2.403853485941748
2025-03-23 14:52:54.030,-7.778722662025487
2025-03-23 14:52:54.040,-7.21350254310464
2025-03-23 14:52:54.040,-0.7380611081644555
2025-03-23 14:52:54.040,6.321840205659056
2025-03-23 14:52:54.040,8.123500716643507
2025-03-23 14:52:54.040,3.547164470465384
2025-03-23 14:52:54.048,-3.1787533248063293
2025-03-23 14:52:54.048,-6.573489079311897
2025-03-23 14:52:54.048,-4.530210277028586
2025-03-23 14:52:54.048,0.4273886455250355
2025-03-23 14:52:54.058,3.843294310683012
2025-03-23 14:52:54.058,3.371512900713093
2025-03-23 14:52:54.058,0.5079713322843789
2025-03-23 14:52:54.058,-1.4903605193481344
2025-03-23 14:52:54.059,-1.12375060380161
2025-03-23 14:52:54.059,0.2191219397827734
2025-03-23 14:52:54.068,0.4298426029555903
2025-03-23 14:52:54.068,-0.7131649070360354
2025-03-23 14:52:54.068,-1.4976026441310335
2025-03-23 14:52:54.068,-0.5348731261773271
2025-03-23 14:52:54.078,1.4591636847505545
2025-03-23 14:52:54.078,2.3363161676351334
2025-03-23 14:52:54.078,0.8819639481622678
2025-03-23 14:52:54.078,-1.6246697562704464
2025-03-23 14:52:54.078,-2.490682063941275
2025-03-23 14:52:54.088,-0.5737185754890615
2025-03-23 14:52:54.088,2.0719381346274415
2025-03-23 14:52:54.088,2.278625616545032
2025-03-23 14:52:54.088,-0.395725088027086
2025-03-23 14:52:54.088,-2.8625393253839553
2025-03-23 14:52:54.098,-2.1145058190159927
2025-03-23 14:52:54.098,1.1248205413976953
2025-03-23 14:52:54.098,3.271392226250443
2025-03-23 14:52:54.098,2.0844349268935063
2025-03-23 14:52:54.098,-0.9548428163176588
2025-03-23 14:52:54.106,-2.659220130161571
2025-03-23 14:52:54.106,-1.7570684383991912
2025-03-23 14:52:54.106,0.17648441952717278
2025-03-23 14:52:54.106,1.0760809317115312
2025-03-23 14:52:54.116,0.7238601563865088
2025-03-23 14:52:54.116,0.3885711824777108
2025-03-23 14:52:54.116,0.7646670921623522
2025-03-23 14:52:54.116,0.9982175712981353
2025-03-23 14:52:54.117,-0.10309654321813583
2025-03-23 14:52:54.117,-2.1654796224244284
2025-03-23 14:52:54.126,-3.0148847707154616
2025-03-23 14:52:54.126,-0.9171788404108336
2025-03-23 14:52:54.126,2.8509805980741505
2025-03-23 14:52:54.126,4.520258202577222
2025-03-23 14:52:54.136,1.834862087780358
2025-03-23 14:52:54.136,-2.833358297069299
2025-03-23 14:52:54.136,-4.649038205832535
2025-03-23 14:52:54.136,-1.8295245231620942
2025-03-23 14:52:54.136,2.2657832003914256
2025-03-23 14:52:54.145,3.285044956252248
2025-03-23 14:52:54.146,0.9495922740161886
2025-03-23 14:52:54.146,-1.3381067928139574
2025-03-23 14:52:54.146,-1.22515417937962
2025-03-23 14:52:54.146,0.05445152156828467
2025-03-23 14:52:54.156,0.17713643849130514
2025-03-23 14:52:54.156,-0.7728928244563164
2025-03-23 14:52:54.156,-0.659117573578206
2025-03-23 14:52:54.156,1.2100496448657159
2025-03-23 14:52:54.156,2.5089450011995447
2025-03-23 14:52:54.164,0.8198461365862078
2025-03-23 14:52:54.164,-2.646478061226938
2025-03-23 14:52:54.165,-3.861858704491003
2025-03-23 14:52:54.165,-0.8329211299467026
2025-03-23 14:52:54.165,3.6065234580247525
2025-03-23 14:52:54.174,4.737349815797805
2025-03-23 14:52:54.174,1.1532995671437412
2025-03-23 14:52:54.174,-3.7307130953444703
2025-03-23 14:52:54.175,-5.214173596254846
2025-03-23 14:52:54.184,-1.9027117828200244
2025-03-23 14:52:54.184,3.1168007403861404
2025-03-23 14:52:54.184,5.289049499884087
2025-03-23 14:52:54.185,2.7697182072979554
2025-03-23 14:52:54.185,-2.040092237676463
2025-03-23 14:52:54.194,-4.854061824931035
2025-03-23 14:52:54.194,-3.40352313905897
2025-03-23 14:52:54.194,0.7566576707084058
2025-03-23 14:52:54.194,3.941878814134113
2025-03-23 14:52:54.194,3.6373539529988665
2025-03-23 14:52:54.203,0.43327842118993865
2025-03-23 14:52:54.204,-2.7797661930807958
2025-03-23 14:52:54.204,-3.3969299415399434
2025-03-23 14:52:54.204,-1.2121232658847154
2025-03-23 14:52:54.204,1.6564420793228483
2025-03-23 14:52:54.212,2.765870209549081
2025-03-23 14:52:54.212,1.4041759518849912
2025-03-23 14:52:54.212,-0.9665003766222787
2025-03-23 14:52:54.212,-2.108719671139798
2025-03-23 14:52:54.213,-1.0611453458538678
2025-03-23 14:52:54.222,0.9847701543011617
2025-03-23 14:52:54.222,1.8988424756135287
2025-03-23 14:52:54.223,0.7239607378836138
2025-03-23 14:52:54.223,-1.4409875460634725
2025-03-23 14:52:54.223,-2.4787327356686593
2025-03-23 14:52:54.232,-1.1258955346125363
2025-03-23 14:52:54.232,1.764638412630143
2025-03-23 14:52:54.232,3.594782599749946
2025-03-23 14:52:54.232,2.2113275518712445
2025-03-23 14:52:54.233,-1.6434798380700764
2025-03-23 14:52:54.244,-4.382709332860671
2025-03-23 14:52:54.244,-2.999924340893939
2025-03-23 14:52:54.244,1.3514977925597011
2025-03-23 14:52:54.244,4.138373162391313
2025-03-23 14:52:54.244,2.4998239672285427
2025-03-23 14:52:54.252,-1.3192444578177318
2025-03-23 14:52:54.252,-2.78641055824201
2025-03-23 14:52:54.252,-0.7466643481167752
2025-03-23 14:52:54.253,1.4950397001094216
2025-03-23 14:52:54.253,0.9186021096088464
2025-03-23 14:52:54.262,-1.2593737514718215
2025-03-23 14:52:54.262,-1.6041966424885192
2025-03-23 14:52:54.262,0.6440646520494739
2025-03-23 14:52:54.263,2.5130868854366972
2025-03-23 14:52:54.263,1.3766508147024525
2025-03-23 14:52:54.272,-1.432276287803046
2025-03-23 14:52:54.272,-2.4012795447431077
2025-03-23 14:52:54.272,-0.5623346685446982
2025-03-23 14:52:54.273,1.3800772399800163
2025-03-23 14:52:54.282,0.979829339298216
2025-03-23 14:52:54.282,-0.6592128025704987
2025-03-23 14:52:54.282,-0.816513139189001
2025-03-23 14:52:54.283,0.7578061636842062
2025-03-23 14:52:54.283,1.5904898612847584
2025-03-23 14:52:54.283,0.23120673730010025
2025-03-23 14:52:54.292,-1.602337054076729
2025-03-23 14:52:54.292,-1.5123551978272263
2025-03-23 14:52:54.292,0.21330742880100256
2025-03-23 14:52:54.293,1.175357867487632
2025-03-23 14:52:54.302,0.33994976231306334
2025-03-23 14:52:54.302,-0.647169902673753
2025-03-23 14:52:54.302,-0.045703313791856603
2025-03-23 14:52:54.303,1.3060987498136964
2025-03-23 14:52:54.303,1.0838382705569143
2025-03-23 14:52:54.303,-1.0847096905704257
2025-03-23 14:52:54.312,-2.6517634419224416
2025-03-23 14:52:54.312,-1.3013232806016541
2025-03-23 14:52:54.313,1.8295982087564648
2025-03-23 14:52:54.313,3.2689118322890782
2025-03-23 14:52:54.322,1.3245931445970025
2025-03-23 14:52:54.322,-2.010660909510031
2025-03-23 14:52:54.322,-3.398798798804333
2025-03-23 14:52:54.322,-1.5723318640160429
2025-03-23 14:52:54.323,1.749950606886741
2025-03-23 14:52:54.332,3.6126261503523005
2025-03-23 14:52:54.332,2.266434115163041
2025-03-23 14:52:54.333,-1.3521928961253087
2025-03-23 14:52:54.333,-4.080058741434319
2025-03-23 14:52:54.333,-3.1193570723051103
2025-03-23 14:52:54.342,1.0068355587039897
2025-03-23 14:52:54.342,4.389435023062302
2025-03-23 14:52:54.342,3.5385078788756688
2025-03-23 14:52:54.342,-0.7175953547063574
2025-03-23 14:52:54.343,-3.9788052074295126
2025-03-23 14:52:54.352,-3.1167676092531384
2025-03-23 14:52:54.352,0.4547000480008871
2025-03-23 14:52:54.352,2.792763095165417
2025-03-23 14:52:54.352,1.9551862165332823
2025-03-23 14:52:54.352,-0.34939824857008295
2025-03-23 14:52:54.362,-1.3728408210601313
2025-03-23 14:52:54.362,-0.5342499354644181
2025-03-23 14:52:54.362,0.49333483302425285
2025-03-23 14:52:54.362,0.30255836565556826
2025-03-23 14:52:54.362,-0.5624831197971815
2025-03-23 14:52:54.370,-0.6442402575246234
2025-03-23 14:52:54.370,0.30979431056021345
2025-03-23 14:52:54.371,0.9724737398211448
2025-03-23 14:52:54.371,0.3057846899724906
2025-03-23 14:52:54.371,-0.8225906698712999
2025-03-23 14:52:54.380,-0.6732138275611017
2025-03-23 14:52:54.380,0.8075274040455117
2025-03-23 14:52:54.381,1.5186625309588442
2025-03-23 14:52:54.381,-0.05500089315215484
2025-03-23 14:52:54.381,-2.3758490112450374
2025-03-23 14:52:54.390,-2.328247676775314
2025-03-23 14:52:54.390,0.760728315993692
2025-03-23 14:52:54.391,3.7069075952980532
2025-03-23 14:52:54.391,2.9451962240873018
2025-03-23 14:52:54.401,-1.098008451429855
2025-03-23 14:52:54.402,-4.234907336175747
2025-03-23 14:52:54.402,-3.1844281397908256
2025-03-23 14:52:54.402,0.9389326104252469
2025-03-23 14:52:54.402,4.059730311515626
2025-03-23 14:52:54.402,3.2968426329917415
2025-03-23 14:52:54.410,-0.5338662649793944
2025-03-23 14:52:54.410,-3.844607916789406
2025-03-23 14:52:54.410,-3.489296451062729
2025-03-23 14:52:54.411,0.26856517322266354
2025-03-23 14:52:54.420,3.7638590010097857
2025-03-23 14:52:54.420,3.4899134837454313
2025-03-23 14:52:54.420,-0.14484043845499014
2025-03-23 14:52:54.420,-3.226851500143135
2025-03-23 14:52:54.421,-2.764567661800066
2025-03-23 14:52:54.430,0.07306552918847317
2025-03-23 14:52:54.430,1.8203823089380669
2025-03-23 14:52:54.430,1.087670932974605
2025-03-23 14:52:54.430,-0.24625287875247656
2025-03-23 14:52:54.430,-0.12800926279802158
2025-03-23 14:52:54.440,0.9040469619659258
2025-03-23 14:52:54.440,0.8565411973641572
2025-03-23 14:52:54.440,-0.7421100408350585
2025-03-23 14:52:54.440,-2.1574420441674005
2025-03-23 14:52:54.440,-1.645627716502654
2025-03-23 14:52:54.448,0.4649660313342657
2025-03-23 14:52:54.448,2.165880590172415
2025-03-23 14:52:54.448,1.9223865983367743
2025-03-23 14:52:54.449,0.19658844605272566
2025-03-23 14:52:54.458,-1.1678985506813393
2025-03-23 14:52:54.458,-1.0451900827969802
2025-03-23 14:52:54.458,-0.28123797120059546
2025-03-23 14:52:54.459,-0.3743593545733273
2025-03-23 14:52:54.459,-1.0664396877600437
2025-03-23 14:52:54.459,-0.4530869883187747
2025-03-23 14:52:54.468,1.912862714458438
2025-03-23 14:52:54.468,3.4241417699977545
2025-03-23 14:52:54.468,1.4887423406608968
2025-03-23 14:52:54.469,-2.5339543505563906
2025-03-23 14:52:54.478,-4.382358237568071
2025-03-23 14:52:54.478,-2.0365526806259027
2025-03-23 14:52:54.479,1.7948209645529947
2025-03-23 14:52:54.479,3.0860654166283115
2025-03-23 14:52:54.479,1.2753901073985519
2025-03-23 14:52:54.479,-0.605614835027452
2025-03-23 14:52:54.488,-0.23359593523094635
2025-03-23 14:52:54.488,1.0376531973423049
2025-03-23 14:52:54.488,0.31139127020338264
2025-03-23 14:52:54.489,-2.5013847359713095
2025-03-23 14:52:54.498,-3.93863151680787
2025-03-23 14:52:54.498,-1.2293579678847788
2025-03-23 14:52:54.498,3.6488498154243487
2025-03-23 14:52:54.498,5.636306916473471
2025-03-23 14:52:54.499,2.4489908879842344
2025-03-23 14:52:54.506,-2.679693792522285
2025-03-23 14:52:54.506,-4.879731085839445
2025-03-23 14:52:54.506,-2.9681895562063243
2025-03-23 14:52:54.507,0.3190183510773696
2025-03-23 14:52:54.507,2.257832221114975
2025-03-23 14:52:54.518,2.4524889917986443
2025-03-23 14:52:54.518,1.6665441865074437
2025-03-23 14:52:54.518,0.36121350500593163
2025-03-23 14:52:54.518,-1.0466459550453546
2025-03-23 14:52:54.518,-1.8041234360446026
2025-03-23 14:52:54.526,-1.5503440607007895
2025-03-23 14:52:54.526,-0.7634438786686415
2025-03-23 14:52:54.527,0.0836459585659787
2025-03-23 14:52:54.527,1.1310019414111776
2025-03-23 14:52:54.536,2.2298876396050846
2025-03-23 14:52:54.536,2.189132411377034
2025-03-23 14:52:54.536,0.12282156147960296
2025-03-23 14:52:54.536,-2.6521053103604055
2025-03-23 14:52:54.537,-3.3914522411280887
2025-03-23 14:52:54.546,-1.1157443415936061
2025-03-23 14:52:54.546,1.8786548095347981
2025-03-23 14:52:54.546,2.5928902053840055
2025-03-23 14:52:54.547,0.941901765926019
2025-03-23 14:52:54.547,-0.4303512706495365
2025-03-23 14:52:54.556,-0.029217602112812477
2025-03-23 14:52:54.556,0.4271963715660419
2025-03-23 14:52:54.556,-1.0185696471282735
2025-03-23 14:52:54.556,-2.9044806516964874
2025-03-23 14:52:54.557,-1.9330257431998221
2025-03-23 14:52:54.566,1.9662754253792836
2025-03-23 14:52:54.566,4.582521602217791
2025-03-23 14:52:54.566,2.5288267218221963
2025-03-23 14:52:54.566,-2.2205691691882232
2025-03-23 14:52:54.567,-4.537485747331114
2025-03-23 14:52:54.576,-2.177023090463114
2025-03-23 14:52:54.576,1.995898729314269
2025-03-23 14:52:54.576,3.696013454282772
2025-03-23 14:52:54.576,1.6902409659170767
2025-03-23 14:52:54.577,-1.689781445392537
2025-03-23 14:52:54.586,-3.2831607514789773
2025-03-23 14:52:54.586,-1.7874073660562326
2025-03-23 14:52:54.586,1.4190369666531364
2025-03-23 14:52:54.586,3.4663865381161902
2025-03-23 14:52:54.586,2.4338231269824684
2025-03-23 14:52:54.596,-0.835808417427658
2025-03-23 14:52:54.596,-3.4064366197199627
2025-03-23 14:52:54.596,-3.006544051546761
2025-03-23 14:52:54.596,-0.18980981916815784
2025-03-23 14:52:54.596,2.35920153323483
2025-03-23 14:52:54.606,2.665423669313611
2025-03-23 14:52:54.606,1.251895282311567
2025-03-23 14:52:54.606,-0.15059550394258012
2025-03-23 14:52:54.606,-0.9972623537655804
2025-03-23 14:52:54.606,-1.9475883358063002
2025-03-23 14:52:54.614,-2.7003723870568646
2025-03-23 14:52:54.614,-1.5045223433152135
2025-03-23 14:52:54.615,2.103788075483364
2025-03-23 14:52:54.615,5.166353728730347
2025-03-23 14:52:54.624,3.81264756776534
2025-03-23 14:52:54.624,-1.776038027552406
2025-03-23 14:52:54.624,-6.4048525254430375
2025-03-23 14:52:54.625,-5.079669007990987
2025-03-23 14:52:54.625,1.2637566340195523
2025-03-23 14:52:54.634,6.33681897810644
2025-03-23 14:52:54.634,5.050387977273885
2025-03-23 14:52:54.634,-1.072770797502296
2025-03-23 14:52:54.634,-5.547397523362847
2025-03-23 14:52:54.635,-3.940558657682847
2025-03-23 14:52:54.644,1.4362569520656114
2025-03-23 14:52:54.644,4.479118507118995
2025-03-23 14:52:54.644,2.3685184980574374
2025-03-23 14:52:54.644,-1.7143823017961626
2025-03-23 14:52:54.644,-3.089483343254528
2025-03-23 14:52:54.654,-1.0884803261319302
2025-03-23 14:52:54.654,1.1384868465739222
2025-03-23 14:52:54.654,1.2389235623765813
2025-03-23 14:52:54.654,0.20990076238126054
2025-03-23 14:52:54.655,0.143353700273683
2025-03-23 14:52:54.664,0.9705460014621583
2025-03-23 14:52:54.664,0.7249017076849332
2025-03-23 14:52:54.664,-1.3226293461872878
2025-03-23 14:52:54.664,-3.097039195493418
2025-03-23 14:52:54.664,-1.9813040025991457
2025-03-23 14:52:54.674,1.7487648445763808
2025-03-23 14:52:54.674,4.5658138806435895
2025-03-23 14:52:54.674,3.261267116485127
2025-03-23 14:52:54.674,-1.316456862219264
2025-03-23 14:52:54.674,-4.7886805944908595
2025-03-23 14:52:54.684,-3.8440189919458225
2025-03-23 14:52:54.684,0.2583170568994732
2025-03-23 14:52:54.684,3.3763276712160106
2025-03-23 14:52:54.684,3.1694015771999657
2025-03-23 14:52:54.684,1.0358495783039952
2025-03-23 14:52:54.692,-0.5810218659381491
2025-03-23 14:52:54.692,-1.316034349304838
2025-03-23 14:52:54.692,-2.168269802089353
2025-03-23 14:52:54.693,-2.668579715052487
2025-03-23 14:52:54.693,-0.9471454634592267
2025-03-23 14:52:54.702,2.8595262753735207
2025-03-23 14:52:54.702,5.1857111250523005
2025-03-23 14:52:54.703,2.7505326978226132
2025-03-23 14:52:54.703,-2.9008360981986065
2025-03-23 14:52:54.703,-6.255969310512829
2025-03-23 14:52:54.712,-3.7001955663299944
2025-03-23 14:52:54.712,2.369949723683115
2025-03-23 14:52:54.713,5.9849922191229235
2025-03-23 14:52:54.713,3.821408406485623
2025-03-23 14:52:54.713,-1.624517265893746
2025-03-23 14:52:54.722,-4.970000694171119
2025-03-23 14:52:54.722,-3.4093037347222186
2025-03-23 14:52:54.723,0.9523553990092358
2025-03-23 14:52:54.723,3.732922637991363
2025-03-23 14:52:54.723,2.7226948576348704
2025-03-23 14:52:54.732,-0.3844743185629666
2025-03-23 14:52:54.732,-2.3573780893386673
2025-03-23 14:52:54.732,-1.871966335242218
2025-03-23 14:52:54.733,-0.22515676091637796
2025-03-23 14:52:54.742,0.8228004327905952
2025-03-23 14:52:54.742,0.9528614197964361
2025-03-23 14:52:54.742,0.8872336379346936
2025-03-23 14:52:54.743,0.8441635343721273
2025-03-23 14:52:54.743,0.140532695750879
2025-03-23 14:52:54.752,-1.4916298448467162
2025-03-23 14:52:54.752,-2.689299027489434
2025-03-23 14:52:54.752,-1.4909376620100168
2025-03-23 14:52:54.753,1.9452561291822081
2025-03-23 14:52:54.753,4.414046490139757
2025-03-23 14:52:54.762,2.7140741803794874
2025-03-23 14:52:54.762,-2.201907838858571
2025-03-23 14:52:54.762,-5.364683459016474
2025-03-23 14:52:54.763,-3.1282992235752634
2025-03-23 14:52:54.763,2.280605030235502
2025-03-23 14:52:54.772,5.029853508681173
2025-03-23 14:52:54.772,2.466811381143468
2025-03-23 14:52:54.772,-2.014462191818122
2025-03-23 14:52:54.773,-3.487782001242003
2025-03-23 14:52:54.773,-1.2495673692260856
2025-03-23 14:52:54.782,1.3059891553647698
2025-03-23 14:52:54.782,1.4981919210079981
2025-03-23 14:52:54.782,0.13954221711244677
2025-03-23 14:52:54.782,-0.5201481848477947
2025-03-23 14:52:54.783,0.05610137933713104
2025-03-23 14:52:54.792,0.5753729939542211
2025-03-23 14:52:54.792,0.11808283692196539
2025-03-23 14:52:54.792,-0.7365244089072006
