timestamp,bandpass_and_notch
2025-03-23 15:03:07.498,-0.35557180467848903
2025-03-23 15:03:07.499,4.211002331604243
2025-03-23 15:03:07.499,5.237725126591703
2025-03-23 15:03:07.499,-4.022445022250582
2025-03-23 15:03:07.508,-19.619932870995186
2025-03-23 15:03:07.508,-20.165961370798065
2025-03-23 15:03:07.508,7.895915008627308
2025-03-23 15:03:07.508,41.86657624023783
2025-03-23 15:03:07.509,39.72631936834615
2025-03-23 15:03:07.516,-7.895833949606763
2025-03-23 15:03:07.516,-57.22950112667822
2025-03-23 15:03:07.517,-55.66321490083418
2025-03-23 15:03:07.517,-1.312874818530343
2025-03-23 15:03:07.524,53.42238627254951
2025-03-23 15:03:07.525,58.12984602960607
2025-03-23 15:03:07.525,14.817465878058725
2025-03-23 15:03:07.525,-31.16839738528823
2025-03-23 15:03:07.525,-42.00203353070883
2025-03-23 15:03:07.534,-20.288169150094326
2025-03-23 15:03:07.534,5.459727998589229
2025-03-23 15:03:07.535,15.80892690476367
2025-03-23 15:03:07.535,13.9843522298026
2025-03-23 15:03:07.542,10.799609879028177
2025-03-23 15:03:07.542,7.8255308065143785
2025-03-23 15:03:07.543,-0.10234923122483475
2025-03-23 15:03:07.543,-11.936320278331332
2025-03-23 15:03:07.543,-18.062837069666497
2025-03-23 15:03:07.552,-11.678811059122339
2025-03-23 15:03:07.552,2.431102860468968
2025-03-23 15:03:07.552,13.026890511379376
2025-03-23 15:03:07.553,13.708732635951863
2025-03-23 15:03:07.562,6.788120121494233
2025-03-23 15:03:07.562,-1.8090807603945953
2025-03-23 15:03:07.562,-7.867400806397628
2025-03-23 15:03:07.562,-9.464841502146493
2025-03-23 15:03:07.562,-6.057125374287676
2025-03-23 15:03:07.572,0.6748646750364419
2025-03-23 15:03:07.572,6.4252306906660515
2025-03-23 15:03:07.572,7.135207646244515
2025-03-23 15:03:07.572,2.8081890803707137
2025-03-23 15:03:07.572,-2.424189319631455
2025-03-23 15:03:07.580,-4.363164193720998
2025-03-23 15:03:07.580,-2.4365771453768867
2025-03-23 15:03:07.581,0.6203175354567741
2025-03-23 15:03:07.581,2.01971106227076
2025-03-23 15:03:07.581,1.3495495216617543
2025-03-23 15:03:07.590,0.07203788447782405
2025-03-23 15:03:07.590,-0.6036357225606301
2025-03-23 15:03:07.590,-0.7910512401249568
2025-03-23 15:03:07.591,-1.0483795345190265
2025-03-23 15:03:07.600,-1.158438703761915
2025-03-23 15:03:07.600,-0.32432043787921455
2025-03-23 15:03:07.601,1.5264890081426088
2025-03-23 15:03:07.601,3.1138382282809958
2025-03-23 15:03:07.601,2.788630681166421
2025-03-23 15:03:07.601,0.12292548746689916
2025-03-23 15:03:07.610,-3.4893480601334637
2025-03-23 15:03:07.610,-5.581941422205056
2025-03-23 15:03:07.611,-4.056233761477319
2025-03-23 15:03:07.611,1.1339618377202683
2025-03-23 15:03:07.620,6.833651117750609
2025-03-23 15:03:07.620,8.049777428397837
2025-03-23 15:03:07.620,2.4339056608525245
2025-03-23 15:03:07.620,-6.063980239297802
2025-03-23 15:03:07.621,-9.699119215173862
2025-03-23 15:03:07.630,-4.630668116503185
2025-03-23 15:03:07.630,4.435071212225574
2025-03-23 15:03:07.630,8.723862967800596
2025-03-23 15:03:07.630,4.549611593626902
2025-03-23 15:03:07.631,-3.1466745929645867
2025-03-23 15:03:07.640,-6.599863913304728
2025-03-23 15:03:07.640,-3.3300048578337185
2025-03-23 15:03:07.640,2.277973498971506
2025-03-23 15:03:07.640,4.538715239375524
2025-03-23 15:03:07.640,2.2407774886369385
2025-03-23 15:03:07.650,-1.2346851141905006
2025-03-23 15:03:07.650,-2.4125889243152607
2025-03-23 15:03:07.650,-1.2106759627952668
2025-03-23 15:03:07.650,0.06594219604820364
2025-03-23 15:03:07.651,0.06813548238945809
2025-03-23 15:03:07.660,-0.29521114244116975
2025-03-23 15:03:07.660,0.34301691026161735
2025-03-23 15:03:07.660,1.7216447442549414
2025-03-23 15:03:07.660,2.1192580472277127
2025-03-23 15:03:07.661,0.36294422304394564
2025-03-23 15:03:07.670,-2.5040510442353936
2025-03-23 15:03:07.670,-3.683925878828036
2025-03-23 15:03:07.670,-1.3064066863032227
2025-03-23 15:03:07.671,2.9607547305229835
2025-03-23 15:03:07.671,4.7326850771121185
2025-03-23 15:03:07.680,1.503732916305593
2025-03-23 15:03:07.680,-3.7965774839573614
2025-03-23 15:03:07.680,-5.347488870534866
2025-03-23 15:03:07.681,-1.0805638194694587
2025-03-23 15:03:07.681,4.525792799549976
2025-03-23 15:03:07.690,5.411519776970824
2025-03-23 15:03:07.690,0.8667464608483118
2025-03-23 15:03:07.690,-3.9673093046900996
2025-03-23 15:03:07.690,-4.350642597700862
2025-03-23 15:03:07.691,-1.038431296047069
2025-03-23 15:03:07.700,1.6875070161252717
2025-03-23 15:03:07.700,1.7199095183954687
2025-03-23 15:03:07.700,0.8951554552650403
2025-03-23 15:03:07.700,1.1983403120762879
2025-03-23 15:03:07.700,1.5715750009532492
2025-03-23 15:03:07.708,0.0053644327622715746
2025-03-23 15:03:07.708,-2.6759380032651743
2025-03-23 15:03:07.709,-3.403975037534475
2025-03-23 15:03:07.709,-1.0706917437827221
2025-03-23 15:03:07.709,1.85985188394389
2025-03-23 15:03:07.718,2.565755590192753
2025-03-23 15:03:07.718,1.2094623211290976
2025-03-23 15:03:07.719,-0.0028333211435265238
2025-03-23 15:03:07.719,-0.10698960273212463
2025-03-23 15:03:07.719,-0.19673889124531513
2025-03-23 15:03:07.728,-1.0954925518432201
2025-03-23 15:03:07.728,-1.7528855769926466
2025-03-23 15:03:07.729,-0.7992540184929915
2025-03-23 15:03:07.729,1.1148434757667007
2025-03-23 15:03:07.739,1.773778052916934
2025-03-23 15:03:07.740,0.3297194226585572
2025-03-23 15:03:07.740,-1.2353176888031312
2025-03-23 15:03:07.740,-0.5005544952401
2025-03-23 15:03:07.740,1.8803765394433412
2025-03-23 15:03:07.740,2.4116191570958723
2025-03-23 15:03:07.748,-0.7697212056456696
2025-03-23 15:03:07.748,-4.658707850863895
2025-03-23 15:03:07.749,-4.250354876451949
2025-03-23 15:03:07.749,1.2123983404888845
2025-03-23 15:03:07.749,6.408491521817557
2025-03-23 15:03:07.758,5.557308174644246
2025-03-23 15:03:07.758,-0.8073160784416057
2025-03-23 15:03:07.759,-6.181695247251208
2025-03-23 15:03:07.759,-5.371441100202484
2025-03-23 15:03:07.768,-0.007796671907240038
2025-03-23 15:03:07.768,4.0571810008736255
2025-03-23 15:03:07.769,3.6428538687207386
2025-03-23 15:03:07.769,0.8186464216324936
2025-03-23 15:03:07.769,-0.9973818729669197
2025-03-23 15:03:07.780,-1.2549282645628173
2025-03-23 15:03:07.780,-1.4640096049116664
2025-03-23 15:03:07.780,-1.775672221494659
2025-03-23 15:03:07.780,-0.6665523791958589
2025-03-23 15:03:07.780,1.9225438823954462
2025-03-23 15:03:07.781,3.317074537907235
2025-03-23 15:03:07.788,1.3936531274379538
2025-03-23 15:03:07.788,-2.0590008366262675
2025-03-23 15:03:07.789,-3.15593731043482
2025-03-23 15:03:07.789,-0.8544019135746513
2025-03-23 15:03:07.798,1.7741058624783976
2025-03-23 15:03:07.798,1.6906494734432764
2025-03-23 15:03:07.798,-0.3351788107960892
2025-03-23 15:03:07.799,-1.28419359989457
2025-03-23 15:03:07.799,-0.12923134415591972
2025-03-23 15:03:07.808,1.1873613895610362
2025-03-23 15:03:07.808,0.8396763431987012
2025-03-23 15:03:07.808,-0.49215740420286364
2025-03-23 15:03:07.808,-1.0071073317659978
2025-03-23 15:03:07.809,-0.40497235042776103
2025-03-23 15:03:07.818,0.07824072706351826
2025-03-23 15:03:07.818,-0.16003858355019016
2025-03-23 15:03:07.818,-0.20653823743342106
2025-03-23 15:03:07.819,0.7088415052285927
2025-03-23 15:03:07.819,1.6593669275627412
2025-03-23 15:03:07.828,1.054258052841964
2025-03-23 15:03:07.828,-1.0655758619362623
2025-03-23 15:03:07.828,-2.664228152388869
2025-03-23 15:03:07.829,-1.9108050477472185
2025-03-23 15:03:07.829,0.6881989763709393
2025-03-23 15:03:07.838,2.692067276095647
2025-03-23 15:03:07.838,2.2330952747995423
2025-03-23 15:03:07.838,-0.04517523234959013
2025-03-23 15:03:07.838,-1.7679107638443092
2025-03-23 15:03:07.839,-1.5367734799605723
2025-03-23 15:03:07.848,-0.32672552831678386
2025-03-23 15:03:07.848,0.20357866924332613
2025-03-23 15:03:07.848,0.0652740565626189
2025-03-23 15:03:07.848,0.5012212704058798
2025-03-23 15:03:07.848,1.4964677438113387
2025-03-23 15:03:07.858,1.3096079152071116
2025-03-23 15:03:07.858,-0.8259699918306953
2025-03-23 15:03:07.858,-2.7873685365454155
2025-03-23 15:03:07.858,-1.8427021311282363
2025-03-23 15:03:07.859,1.461046957569166
2025-03-23 15:03:07.866,3.3421368256875916
2025-03-23 15:03:07.867,1.3802028609821688
2025-03-23 15:03:07.867,-2.193137762061849
2025-03-23 15:03:07.867,-3.127733985208947
2025-03-23 15:03:07.867,-0.4721850600261919
2025-03-23 15:03:07.876,2.4065377601505498
2025-03-23 15:03:07.876,2.299700561492832
2025-03-23 15:03:07.877,-0.02697264719964554
2025-03-23 15:03:07.877,-1.528947333116881
2025-03-23 15:03:07.877,-1.0979871828020924
2025-03-23 15:03:07.886,-0.2829739190056123
2025-03-23 15:03:07.886,-0.24790273984983827
2025-03-23 15:03:07.887,-0.13035021950965653
2025-03-23 15:03:07.887,0.9275202567735388
2025-03-23 15:03:07.896,1.837557678525464
2025-03-23 15:03:07.896,1.0467679991403105
2025-03-23 15:03:07.896,-0.936507595199473
2025-03-23 15:03:07.897,-2.019935523973323
2025-03-23 15:03:07.897,-1.3301663703956017
2025-03-23 15:03:07.906,-0.15293830355133664
2025-03-23 15:03:07.906,0.25129811365660903
2025-03-23 15:03:07.906,0.5093374124867748
2025-03-23 15:03:07.907,1.7411090866498047
2025-03-23 15:03:07.907,2.96682672538139
2025-03-23 15:03:07.916,1.618188539007233
2025-03-23 15:03:07.916,-2.6814294656894075
2025-03-23 15:03:07.916,-6.124660050250988
2025-03-23 15:03:07.916,-4.2743707363000585
2025-03-23 15:03:07.917,2.2722297594949397
2025-03-23 15:03:07.926,7.401875735779272
2025-03-23 15:03:07.926,5.847135269848161
2025-03-23 15:03:07.926,-0.8000872991961507
2025-03-23 15:03:07.926,-5.876884134769882
2025-03-23 15:03:07.927,-5.129376156464284
2025-03-23 15:03:07.936,-0.7412101901930976
2025-03-23 15:03:07.936,2.3744785073823365
2025-03-23 15:03:07.936,2.4205074069760366
2025-03-23 15:03:07.937,1.411634167200647
2025-03-23 15:03:07.937,1.144033382218817
2025-03-23 15:03:07.944,0.7576984786535793
2025-03-23 15:03:07.944,-1.0694873563054301
2025-03-23 15:03:07.945,-3.158564537381469
2025-03-23 15:03:07.945,-2.8221507011047624
2025-03-23 15:03:07.945,0.3623276357132715
2025-03-23 15:03:07.956,3.3596983556108384
2025-03-23 15:03:07.956,3.0654136378312318
2025-03-23 15:03:07.956,0.027662237210811097
2025-03-23 15:03:07.956,-2.312689917771967
2025-03-23 15:03:07.957,-1.824213343406565
2025-03-23 15:03:07.964,0.08858410864502766
2025-03-23 15:03:07.964,0.819123519162683
2025-03-23 15:03:07.965,0.009965332542331062
2025-03-23 15:03:07.965,-0.449022536851958
2025-03-23 15:03:07.974,0.5169462405532985
2025-03-23 15:03:07.974,1.5022543714152599
2025-03-23 15:03:07.975,0.6488587826692084
2025-03-23 15:03:07.975,-1.4803551684823013
2025-03-23 15:03:07.975,-2.2549949930472333
2025-03-23 15:03:07.975,-0.3794346969503
2025-03-23 15:03:07.984,2.093688788433659
2025-03-23 15:03:07.984,2.133411027564818
2025-03-23 15:03:07.985,-0.308800896907504
2025-03-23 15:03:07.985,-2.1132891767405773
2025-03-23 15:03:07.994,-1.1518303523636226
2025-03-23 15:03:07.994,0.8406079247599273
2025-03-23 15:03:07.994,0.9178678357955053
2025-03-23 15:03:07.995,-0.5766232365318799
2025-03-23 15:03:07.995,-0.5176909512687629
2025-03-23 15:03:07.995,1.7918715167550021
2025-03-23 15:03:08.004,2.676612144452175
2025-03-23 15:03:08.004,-0.6995054243211192
2025-03-23 15:03:08.005,-5.117203647226764
2025-03-23 15:03:08.005,-4.507377712230575
2025-03-23 15:03:08.014,1.814207222269669
2025-03-23 15:03:08.014,7.242807628392218
2025-03-23 15:03:08.015,5.53722833738849
2025-03-23 15:03:08.015,-1.6774774199747673
2025-03-23 15:03:08.015,-6.934895542075159
2025-03-23 15:03:08.024,-5.454760552587492
2025-03-23 15:03:08.024,0.2927778835029932
2025-03-23 15:03:08.024,4.421881672025014
2025-03-23 15:03:08.025,4.1248144634478985
2025-03-23 15:03:08.025,1.3305375436707099
2025-03-23 15:03:08.034,-0.9251512812826682
2025-03-23 15:03:08.034,-1.8727323263893858
2025-03-23 15:03:08.034,-2.355468750980134
2025-03-23 15:03:08.035,-2.297086840651602
2025-03-23 15:03:08.035,-0.5288475646834909
2025-03-23 15:03:08.044,2.6960513435505757
2025-03-23 15:03:08.044,4.501523847773794
2025-03-23 15:03:08.044,2.2255255743715847
2025-03-23 15:03:08.045,-2.6834223569787747
2025-03-23 15:03:08.045,-5.253036102655606
2025-03-23 15:03:08.054,-2.5172991535649127
2025-03-23 15:03:08.054,2.540473629077645
2025-03-23 15:03:08.054,4.228520573767672
2025-03-23 15:03:08.055,1.1152522226041586
2025-03-23 15:03:08.055,-2.2666379010835214
2025-03-23 15:03:08.064,-1.5624785915883495
2025-03-23 15:03:08.064,1.5205071451236294
2025-03-23 15:03:08.064,1.7941219309724978
2025-03-23 15:03:08.064,-1.7714434822124367
2025-03-23 15:03:08.065,-4.176554174859767
2025-03-23 15:03:08.074,-1.2670614531420166
2025-03-23 15:03:08.074,4.141244611291835
2025-03-23 15:03:08.074,5.561669121192137
2025-03-23 15:03:08.074,1.1276042036686933
2025-03-23 15:03:08.075,-4.234200523528441
2025-03-23 15:03:08.084,-5.097408038673492
2025-03-23 15:03:08.084,-1.5548985391087897
2025-03-23 15:03:08.084,2.1393769988316964
2025-03-23 15:03:08.084,3.073465924501764
2025-03-23 15:03:08.085,1.9463827679085302
2025-03-23 15:03:08.094,0.6349865782340025
2025-03-23 15:03:08.094,-0.37593147873455723
2025-03-23 15:03:08.094,-1.5224773049872655
2025-03-23 15:03:08.095,-2.410157117729961
2025-03-23 15:03:08.095,-1.832290410609206
2025-03-23 15:03:08.104,0.43637576827784
2025-03-23 15:03:08.104,2.6804404224903298
2025-03-23 15:03:08.104,2.7174231485508686
2025-03-23 15:03:08.104,0.32939669224416823
2025-03-23 15:03:08.105,-2.208628325238133
2025-03-23 15:03:08.114,-2.3888754276654818
2025-03-23 15:03:08.114,-0.18434365069350933
2025-03-23 15:03:08.114,1.895299809255689
2025-03-23 15:03:08.114,1.6302981290770362
2025-03-23 15:03:08.114,-0.4397073848114177
2025-03-23 15:03:08.122,-1.8425583914348849
2025-03-23 15:03:08.122,-1.1617158070744937
2025-03-23 15:03:08.123,0.5914996395704507
2025-03-23 15:03:08.123,1.6021027250475621
2025-03-23 15:03:08.123,1.2994419797635273
2025-03-23 15:03:08.132,0.31191212110219907
2025-03-23 15:03:08.132,-0.800455422306839
2025-03-23 15:03:08.133,-1.8021447302656888
2025-03-23 15:03:08.133,-2.0434742986680328
2025-03-23 15:03:08.133,-0.6340169342752842
2025-03-23 15:03:08.142,2.052055112284945
2025-03-23 15:03:08.143,3.7367601226595055
2025-03-23 15:03:08.143,2.238018369661951
2025-03-23 15:03:08.143,-1.688216534321407
2025-03-23 15:03:08.143,-4.409017264001309
2025-03-23 15:03:08.154,-3.0818192505922704
2025-03-23 15:03:08.154,1.0404471458048152
2025-03-23 15:03:08.154,3.7478983208358003
2025-03-23 15:03:08.154,2.4663754391987225
2025-03-23 15:03:08.154,-0.9193787183802258
2025-03-23 15:03:08.162,-2.3887185506546427
2025-03-23 15:03:08.162,-0.5772841229238966
2025-03-23 15:03:08.163,1.7409941271057316
2025-03-23 15:03:08.163,1.2973932953034082
2025-03-23 15:03:08.172,-1.4842560113631658
2025-03-23 15:03:08.172,-3.0099867709461976
2025-03-23 15:03:08.173,-1.02432935156964
2025-03-23 15:03:08.173,2.5394320981236307
2025-03-23 15:03:08.173,3.787840456938895
2025-03-23 15:03:08.182,1.3472731918226726
2025-03-23 15:03:08.182,-2.223115094727096
2025-03-23 15:03:08.182,-3.4498299713202383
2025-03-23 15:03:08.182,-1.5892917213109397
2025-03-23 15:03:08.182,1.0967978950394
2025-03-23 15:03:08.192,2.124514501324745
2025-03-23 15:03:08.192,1.1865068210916925
2025-03-23 15:03:08.192,-0.1250470915702107
2025-03-23 15:03:08.192,-0.42058283266954144
2025-03-23 15:03:08.193,0.030065838908638995
2025-03-23 15:03:08.202,-0.04026030563669225
2025-03-23 15:03:08.202,-1.0273839551968793
2025-03-23 15:03:08.202,-1.7060366730658565
2025-03-23 15:03:08.202,-0.6740152634127937
2025-03-23 15:03:08.203,1.6578469993808438
2025-03-23 15:03:08.212,3.0737815057726627
2025-03-23 15:03:08.212,1.8394244642370166
2025-03-23 15:03:08.212,-1.2452470622240819
2025-03-23 15:03:08.212,-3.4313045139557907
2025-03-23 15:03:08.213,-2.7158680899045544
2025-03-23 15:03:08.222,0.20277615600421314
2025-03-23 15:03:08.222,2.696605946282344
2025-03-23 15:03:08.222,2.779293153941068
2025-03-23 15:03:08.222,0.7842955767165212
2025-03-23 15:03:08.222,-1.377935575724316
2025-03-23 15:03:08.232,-2.1915627968592695
2025-03-23 15:03:08.232,-1.4861045708880083
2025-03-23 15:03:08.232,0.0774910297752594
2025-03-23 15:03:08.232,1.5870322275033677
2025-03-23 15:03:08.232,1.9914175019172253
2025-03-23 15:03:08.240,0.7258514969368983
2025-03-23 15:03:08.240,-1.2721097373711763
2025-03-23 15:03:08.241,-2.035451477146504
2025-03-23 15:03:08.241,-0.7798391021990452
2025-03-23 15:03:08.250,0.9882370582553518
2025-03-23 15:03:08.250,1.3371385788487928
2025-03-23 15:03:08.250,0.30551615746397687
2025-03-23 15:03:08.251,-0.5184411740413684
2025-03-23 15:03:08.251,-0.36315696146794646
2025-03-23 15:03:08.260,0.028456196881877754
2025-03-23 15:03:08.260,0.008298516092334536
2025-03-23 15:03:08.260,-0.035790704761136376
2025-03-23 15:03:08.261,0.2181994156686087
2025-03-23 15:03:08.261,0.2095940130542129
2025-03-23 15:03:08.270,-0.39194654932881756
2025-03-23 15:03:08.270,-0.7040313335203419
2025-03-23 15:03:08.270,0.11769371683063615
2025-03-23 15:03:08.271,1.2055712387650417
2025-03-23 15:03:08.271,0.8651867878146461
2025-03-23 15:03:08.280,-0.8868909688374854
2025-03-23 15:03:08.280,-1.9257462007278723
2025-03-23 15:03:08.281,-0.6972149727427542
2025-03-23 15:03:08.281,1.5940786209353537
2025-03-23 15:03:08.281,2.3350338951319745
2025-03-23 15:03:08.290,0.6447481384757783
2025-03-23 15:03:08.290,-1.6876550895902038
2025-03-23 15:03:08.290,-2.362352406670473
2025-03-23 15:03:08.290,-0.9599388365589274
2025-03-23 15:03:08.291,1.0062942153872634
2025-03-23 15:03:08.300,1.8934297608130568
2025-03-23 15:03:08.300,1.3603104269406825
2025-03-23 15:03:08.300,0.17304436109290577
2025-03-23 15:03:08.301,-0.8723283034248729
2025-03-23 15:03:08.301,-1.4387696973017328
2025-03-23 15:03:08.310,-1.3030900580868787
2025-03-23 15:03:08.310,-0.2740453761451762
2025-03-23 15:03:08.310,1.1906695871993276
2025-03-23 15:03:08.310,1.8462745545908774
2025-03-23 15:03:08.311,0.8492943109904475
2025-03-23 15:03:08.320,-0.9973626220375279
2025-03-23 15:03:08.320,-1.8078078766918946
2025-03-23 15:03:08.320,-0.6725880620919308
2025-03-23 15:03:08.321,1.1941285777250497
2025-03-23 15:03:08.321,1.7314519022782229
2025-03-23 15:03:08.330,0.33196167494541173
2025-03-23 15:03:08.330,-1.5326978729701741
2025-03-23 15:03:08.330,-2.015582911183278
2025-03-23 15:03:08.331,-0.7517559812172631
2025-03-23 15:03:08.331,1.1989761974001116
2025-03-23 15:03:08.340,2.6132663475832763
2025-03-23 15:03:08.340,2.599811262145723
2025-03-23 15:03:08.340,0.4695382890152382
2025-03-23 15:03:08.340,-3.2990547654706583
2025-03-23 15:03:08.341,-5.760111078382514
2025-03-23 15:03:08.350,-3.256582388161399
2025-03-23 15:03:08.350,3.760727223443316
2025-03-23 15:03:08.350,8.961638462292367
2025-03-23 15:03:08.350,5.976730177623974
2025-03-23 15:03:08.351,-3.5805502630400587
2025-03-23 15:03:08.360,-10.346984341576734
2025-03-23 15:03:08.360,-7.123446204085713
2025-03-23 15:03:08.360,2.740281223778107
2025-03-23 15:03:08.360,8.919144122783134
2025-03-23 15:03:08.361,5.749968591630853
2025-03-23 15:03:08.370,-1.9187629593883082
2025-03-23 15:03:08.370,-5.318497667160789
2025-03-23 15:03:08.370,-2.1650775790001298
2025-03-23 15:03:08.370,1.8344394844181557
2025-03-23 15:03:08.371,1.2800016482355685
2025-03-23 15:03:08.380,-2.0732842465142247
2025-03-23 15:03:08.380,-2.450456278872468
2025-03-23 15:03:08.380,1.612765336796847
2025-03-23 15:03:08.380,5.0249468753906505
2025-03-23 15:03:08.381,2.8913391275394558
2025-03-23 15:03:08.390,-2.8019651515501813
2025-03-23 15:03:08.390,-5.475886335561581
2025-03-23 15:03:08.390,-2.2074355208741383
2025-03-23 15:03:08.390,2.780882446769558
2025-03-23 15:03:08.391,3.64879912076607
2025-03-23 15:03:08.400,0.1553660900718693
2025-03-23 15:03:08.400,-2.4906535521149857
2025-03-23 15:03:08.400,-0.6656316691989567
2025-03-23 15:03:08.400,2.7919162665886272
2025-03-23 15:03:08.401,2.285941831228838
2025-03-23 15:03:08.410,-2.64432576184863
2025-03-23 15:03:08.410,-5.714218773392686
2025-03-23 15:03:08.410,-1.7430719290548036
2025-03-23 15:03:08.410,5.688071711773455
2025-03-23 15:03:08.411,7.589107301287735
2025-03-23 15:03:08.420,0.7570395435329214
2025-03-23 15:03:08.420,-7.508726169144626
2025-03-23 15:03:08.420,-7.831596927535003
2025-03-23 15:03:08.420,0.04813621013490926
2025-03-23 15:03:08.420,7.2660528290699755
2025-03-23 15:03:08.428,6.512570323760282
2025-03-23 15:03:08.428,-0.134532970982553
2025-03-23 15:03:08.429,-4.99530034375894
2025-03-23 15:03:08.429,-4.101013668821083
2025-03-23 15:03:08.429,-0.3971765868901336
2025-03-23 15:03:08.440,1.5724342964990188
2025-03-23 15:03:08.440,1.2705226116529715
2025-03-23 15:03:08.440,1.108985324448616
2025-03-23 15:03:08.440,1.7202351885957654
2025-03-23 15:03:08.440,1.0664900644872
2025-03-23 15:03:08.448,-1.6267553022841095
2025-03-23 15:03:08.449,-3.629578635497597
2025-03-23 15:03:08.449,-2.101669034580878
2025-03-23 15:03:08.449,1.6283443551809813
2025-03-23 15:03:08.449,3.396911134635816
2025-03-23 15:03:08.458,1.618641131449818
2025-03-23 15:03:08.458,-0.8542512667766868
2025-03-23 15:03:08.459,-1.05555038517004
2025-03-23 15:03:08.459,-0.010926619544008948
2025-03-23 15:03:08.468,-0.557680529059278
2025-03-23 15:03:08.468,-2.334257337930029
2025-03-23 15:03:08.469,-1.8895142358933343
2025-03-23 15:03:08.469,1.834661127023608
2025-03-23 15:03:08.469,4.898329237244788
2025-03-23 15:03:08.478,3.115522049103008
2025-03-23 15:03:08.478,-2.1214404686499564
2025-03-23 15:03:08.479,-5.153745332386352
2025-03-23 15:03:08.479,-2.9657145827198503
2025-03-23 15:03:08.479,1.4003982649391007
2025-03-23 15:03:08.488,3.093482048453213
2025-03-23 15:03:08.488,1.3604962563222571
2025-03-23 15:03:08.488,-0.47602421643337245
2025-03-23 15:03:08.489,-0.10572716920512423
2025-03-23 15:03:08.489,0.9327513904929035
2025-03-23 15:03:08.498,0.1067051345543335
2025-03-23 15:03:08.498,-2.102400135571318
2025-03-23 15:03:08.498,-2.6857407087817315
2025-03-23 15:03:08.499,-0.27493238677555054
2025-03-23 15:03:08.499,2.725439089755897
2025-03-23 15:03:08.508,2.9503553384572774
2025-03-23 15:03:08.508,0.25824535462416565
2025-03-23 15:03:08.508,-2.1027554589122825
2025-03-23 15:03:08.509,-1.6005505248906995
2025-03-23 15:03:08.509,0.4989755866766524
2025-03-23 15:03:08.518,1.078985084694782
2025-03-23 15:03:08.518,-0.508271517155243
2025-03-23 15:03:08.519,-1.6518953231144615
2025-03-23 15:03:08.519,-0.3166305845447286
2025-03-23 15:03:08.519,1.936871038408553
2025-03-23 15:03:08.519,2.1281261711986508
2025-03-23 15:03:08.528,0.08144646124711936
2025-03-23 15:03:08.528,-1.5019064710795196
2025-03-23 15:03:08.529,-1.0855592879565348
2025-03-23 15:03:08.529,-0.24548103059699186
2025-03-23 15:03:08.538,-0.7207743719968692
2025-03-23 15:03:08.538,-1.3715568023473839
2025-03-23 15:03:08.538,0.11280945914774046
2025-03-23 15:03:08.539,3.221278894726445
2025-03-23 15:03:08.539,4.344248365873448
2025-03-23 15:03:08.539,1.090292952004003
2025-03-23 15:03:08.548,-4.230101931207077
2025-03-23 15:03:08.549,-6.52125156424144
2025-03-23 15:03:08.549,-3.2155902052414262
2025-03-23 15:03:08.549,2.9936021911246287
2025-03-23 15:03:08.558,6.811155995714333
2025-03-23 15:03:08.558,5.223877224036755
2025-03-23 15:03:08.559,-0.24313274148897754
2025-03-23 15:03:08.559,-5.252039256384091
2025-03-23 15:03:08.559,-6.120704260127056
2025-03-23 15:03:08.568,-2.3801588767939603
2025-03-23 15:03:08.568,2.963225172192463
2025-03-23 15:03:08.569,5.66086415911091
2025-03-23 15:03:08.569,3.6465854075128603
2025-03-23 15:03:08.569,-1.1140752665092497
2025-03-23 15:03:08.578,-4.3435351211679425
2025-03-23 15:03:08.578,-3.4113551140561014
2025-03-23 15:03:08.579,0.28978760533643116
2025-03-23 15:03:08.579,2.9414668796676087
2025-03-23 15:03:08.579,2.212009051336346
2025-03-23 15:03:08.588,-0.553027612767516
2025-03-23 15:03:08.588,-2.072204329560321
2025-03-23 15:03:08.589,-0.8037497536090581
2025-03-23 15:03:08.589,1.5195026694611444
2025-03-23 15:03:08.589,2.055482933706434
2025-03-23 15:03:08.598,0.0491803191835624
2025-03-23 15:03:08.598,-2.4753503642629666
2025-03-23 15:03:08.599,-2.899767785399672
2025-03-23 15:03:08.599,-0.5417393006256116
2025-03-23 15:03:08.599,2.7237305545620525
2025-03-23 15:03:08.608,4.024242277964304
2025-03-23 15:03:08.608,1.9774576829194528
2025-03-23 15:03:08.608,-1.881267865755605
2025-03-23 15:03:08.609,-4.272280712582176
2025-03-23 15:03:08.609,-3.210474320009003
2025-03-23 15:03:08.618,0.13529552217704863
2025-03-23 15:03:08.618,2.844967274611177
2025-03-23 15:03:08.618,3.198866411734023
2025-03-23 15:03:08.619,1.7379266976976047
2025-03-23 15:03:08.619,-0.19370065910455575
2025-03-23 15:03:08.628,-1.840759374892019
2025-03-23 15:03:08.628,-2.754969996423475
2025-03-23 15:03:08.628,-2.2635389635647
2025-03-23 15:03:08.629,-0.17817821362757413
2025-03-23 15:03:08.629,2.315708649199649
2025-03-23 15:03:08.638,3.3064447008429143
2025-03-23 15:03:08.638,1.9090989750677636
2025-03-23 15:03:08.638,-0.8085626808316491
2025-03-23 15:03:08.638,-2.701822490638314
2025-03-23 15:03:08.639,-2.4113708624423773
2025-03-23 15:03:08.648,-0.5256706548747639
2025-03-23 15:03:08.648,1.1122943754544157
2025-03-23 15:03:08.648,1.3370477702719175
2025-03-23 15:03:08.649,0.6972309312326089
2025-03-23 15:03:08.649,0.3760374045978852
2025-03-23 15:03:08.658,0.5004574933969265
2025-03-23 15:03:08.658,0.18317228117088535
2025-03-23 15:03:08.658,-0.8731605110306083
2025-03-23 15:03:08.658,-1.6690665092048902
2025-03-23 15:03:08.659,-1.177850946241949
2025-03-23 15:03:08.666,0.2670966331118756
2025-03-23 15:03:08.667,1.3911348384346232
2025-03-23 15:03:08.667,1.4500545501543276
2025-03-23 15:03:08.667,0.7468723649245202
2025-03-23 15:03:08.667,-0.11832151920407588
2025-03-23 15:03:08.678,-0.882489310674188
2025-03-23 15:03:08.678,-1.3782422068344564
2025-03-23 15:03:08.678,-1.1726186359003232
2025-03-23 15:03:08.678,0.0288363007126451
2025-03-23 15:03:08.679,1.5759958851947213
2025-03-23 15:03:08.686,1.9622609204005899
2025-03-23 15:03:08.687,0.3542410927183234
2025-03-23 15:03:08.687,-1.9324561980827115
2025-03-23 15:03:08.687,-2.315808255739206
2025-03-23 15:03:08.687,0.03112558194648568
2025-03-23 15:03:08.696,2.6509489021354895
2025-03-23 15:03:08.697,2.390155059672569
2025-03-23 15:03:08.697,-0.6635720827412568
2025-03-23 15:03:08.697,-3.0815155757694876
2025-03-23 15:03:08.697,-2.209331340752219
2025-03-23 15:03:08.706,0.7798125620512946
2025-03-23 15:03:08.706,2.613831007498666
2025-03-23 15:03:08.707,1.7912626187954144
2025-03-23 15:03:08.707,-0.26625401511169505
2025-03-23 15:03:08.716,-1.4546603833299028
2025-03-23 15:03:08.716,-1.2153217648609065
2025-03-23 15:03:08.717,-0.3701405240608647
2025-03-23 15:03:08.717,0.2956480241676403
2025-03-23 15:03:08.717,0.6019777286746343
2025-03-23 15:03:08.726,0.5735969031702068
2025-03-23 15:03:08.726,0.25407724404974896
2025-03-23 15:03:08.726,-0.0797257508449708
2025-03-23 15:03:08.727,-0.09845377591506244
2025-03-23 15:03:08.727,0.04369653774212917
2025-03-23 15:03:08.736,-0.18944266881555916
2025-03-23 15:03:08.736,-0.8321530533935403
2025-03-23 15:03:08.737,-1.005447133689454
2025-03-23 15:03:08.737,0.10012376332810745
2025-03-23 15:03:08.737,1.8116599210948559
2025-03-23 15:03:08.746,2.1558183277092215
2025-03-23 15:03:08.746,0.10156593427467987
2025-03-23 15:03:08.746,-2.6065908687912844
2025-03-23 15:03:08.747,-2.8852543965567667
2025-03-23 15:03:08.747,-0.016210740611586172
2025-03-23 15:03:08.756,2.993420877140719
2025-03-23 15:03:08.756,2.7274099593673364
2025-03-23 15:03:08.756,-0.4219919447319206
2025-03-23 15:03:08.757,-2.641342570628073
2025-03-23 15:03:08.757,-1.499280145786143
2025-03-23 15:03:08.764,1.0182734247906318
2025-03-23 15:03:08.765,1.3825063818708319
2025-03-23 15:03:08.765,-0.5461900561964986
2025-03-23 15:03:08.765,-1.4601101028725496
2025-03-23 15:03:08.765,0.40201929255166896
2025-03-23 15:03:08.776,2.4410994077882866
2025-03-23 15:03:08.776,1.357304211428186
2025-03-23 15:03:08.776,-1.888889095363791
2025-03-23 15:03:08.776,-3.1019585292279586
2025-03-23 15:03:08.777,-0.577618834082598
2025-03-23 15:03:08.784,2.5281294447633527
2025-03-23 15:03:08.785,2.4198085392549227
2025-03-23 15:03:08.785,-0.48230233736016026
2025-03-23 15:03:08.785,-2.4456038991362234
2025-03-23 15:03:08.785,-1.3113322103822047
2025-03-23 15:03:08.796,1.2144720760868668
2025-03-23 15:03:08.796,2.1338682515997394
2025-03-23 15:03:08.796,0.6639724562345716
2025-03-23 15:03:08.797,-1.3625892370956976
2025-03-23 15:03:08.797,-1.8472337010690512
2025-03-23 15:03:08.804,-0.518287812456096
2025-03-23 15:03:08.804,1.1101179086068054
2025-03-23 15:03:08.805,1.4266666557526966
2025-03-23 15:03:08.805,0.3214321698074476
2025-03-23 15:03:08.814,-0.8007866538480894
2025-03-23 15:03:08.814,-0.6599736713934101
2025-03-23 15:03:08.815,0.3452756267409015
2025-03-23 15:03:08.815,0.6514633862400557
2025-03-23 15:03:08.815,-0.3238312880853771
2025-03-23 15:03:08.824,-1.2658413671362336
2025-03-23 15:03:08.824,-0.7319102266212882
2025-03-23 15:03:08.824,0.8117004482390884
2025-03-23 15:03:08.825,1.6415048019291325
2025-03-23 15:03:08.825,1.082600859078723
2025-03-23 15:03:08.834,0.02172029434688387
2025-03-23 15:03:08.834,-0.794236400038751
2025-03-23 15:03:08.835,-1.5633746015606882
2025-03-23 15:03:08.835,-2.0599536556630342
2025-03-23 15:03:08.835,-0.9821477195847984
2025-03-23 15:03:08.844,1.9325001026423023
2025-03-23 15:03:08.844,4.099864130925925
2025-03-23 15:03:08.844,2.4665157798880966
2025-03-23 15:03:08.845,-2.146689516722455
2025-03-23 15:03:08.845,-4.983052645151415
2025-03-23 15:03:08.854,-2.7133747219322837
2025-03-23 15:03:08.854,2.303126750576431
2025-03-23 15:03:08.854,4.560964996276893
2025-03-23 15:03:08.855,1.8318286047084225
2025-03-23 15:03:08.855,-2.421658653165009
2025-03-23 15:03:08.864,-3.4294215259584973
2025-03-23 15:03:08.864,-0.6445098733178696
2025-03-23 15:03:08.864,2.2562020837326524
2025-03-23 15:03:08.864,2.2325624301131635
2025-03-23 15:03:08.865,0.07781643555318385
2025-03-23 15:03:08.874,-1.503363624930597
2025-03-23 15:03:08.874,-1.388964937780036
2025-03-23 15:03:08.874,-0.47021122276018446
2025-03-23 15:03:08.875,0.36729927939048634
2025-03-23 15:03:08.875,1.0544078751927308
2025-03-23 15:03:08.882,1.3189549659153128
2025-03-23 15:03:08.882,0.4661887114493666
2025-03-23 15:03:08.883,-1.2114092098394846
2025-03-23 15:03:08.883,-1.9435550691290764
2025-03-23 15:03:08.894,-0.49537345496311314
2025-03-23 15:03:08.894,1.7886903186078338
2025-03-23 15:03:08.894,2.1509849505793444
2025-03-23 15:03:08.894,-0.15874850328423076
2025-03-23 15:03:08.895,-2.5964259400997647
2025-03-23 15:03:08.895,-2.183886446428223
2025-03-23 15:03:08.902,0.8321386982758685
2025-03-23 15:03:08.902,3.1349893908746456
2025-03-23 15:03:08.903,2.2112287912263513
2025-03-23 15:03:08.903,-0.8128482942522758
2025-03-23 15:03:08.903,-2.713890877508474
2025-03-23 15:03:08.914,-1.9312028697085675
2025-03-23 15:03:08.914,0.06862723972699455
2025-03-23 15:03:08.914,1.0712943440954303
2025-03-23 15:03:08.915,0.7984038062555048
2025-03-23 15:03:08.915,0.6574952908760657
2025-03-23 15:03:08.922,1.2373415799846592
2025-03-23 15:03:08.923,1.1946220910243297
2025-03-23 15:03:08.923,-0.7106955128357675
2025-03-23 15:03:08.923,-3.15949697678413
2025-03-23 15:03:08.923,-3.1828517093789896
2025-03-23 15:03:08.932,0.12075741984833172
2025-03-23 15:03:08.933,3.816645894236351
2025-03-23 15:03:08.933,4.090001087033288
2025-03-23 15:03:08.933,0.6443289091281049
2025-03-23 15:03:08.933,-2.9241694028617884
2025-03-23 15:03:08.942,-3.335965990556673
2025-03-23 15:03:08.942,-1.146209165992718
2025-03-23 15:03:08.942,0.7171758511200176
2025-03-23 15:03:08.943,1.0172424935295807
2025-03-23 15:03:08.952,1.1777235975705564
2025-03-23 15:03:08.952,2.14036612376813
2025-03-23 15:03:08.953,2.161790501810324
2025-03-23 15:03:08.953,-0.7010928118627531
2025-03-23 15:03:08.953,-4.701558464689166
2025-03-23 15:03:08.962,-5.178455617368265
2025-03-23 15:03:08.962,-0.15650498425218357
2025-03-23 15:03:08.962,6.128087640046897
2025-03-23 15:03:08.963,7.076860414369673
2025-03-23 15:03:08.963,1.1714301030209546
2025-03-23 15:03:08.972,-5.881060210520665
2025-03-23 15:03:08.972,-7.224041778753468
2025-03-23 15:03:08.973,-2.129353641649933
2025-03-23 15:03:08.973,3.8781148956734195
2025-03-23 15:03:08.973,5.519192093176728
2025-03-23 15:03:08.982,2.7538970797112086
2025-03-23 15:03:08.982,-0.8447892653235625
2025-03-23 15:03:08.982,-2.7318917094979684
2025-03-23 15:03:08.983,-2.854272047373496
2025-03-23 15:03:08.983,-1.694864521121872
2025-03-23 15:03:08.992,0.5707001751465581
2025-03-23 15:03:08.992,2.62798822990264
2025-03-23 15:03:08.992,2.196547701755449
2025-03-23 15:03:08.993,-0.7420230134760821
2025-03-23 15:03:08.993,-2.5978158082835594
2025-03-23 15:03:09.002,-0.4041815855193767
2025-03-23 15:03:09.002,3.394199511909183
2025-03-23 15:03:09.002,3.2116063913646635
2025-03-23 15:03:09.002,-2.110222473600372
2025-03-23 15:03:09.003,-6.658138541373093
2025-03-23 15:03:09.012,-4.2916909575798705
2025-03-23 15:03:09.012,3.3357304238349097
2025-03-23 15:03:09.012,8.110862885760234
2025-03-23 15:03:09.012,4.855608767792861
2025-03-23 15:03:09.013,-2.737419518622049
2025-03-23 15:03:09.022,-6.682745845334662
2025-03-23 15:03:09.022,-3.857983939671735
2025-03-23 15:03:09.022,1.3195649832497982
2025-03-23 15:03:09.023,3.157698149351508
2025-03-23 15:03:09.023,1.3332093459439418
2025-03-23 15:03:09.032,-0.19189018208030292
2025-03-23 15:03:09.032,0.6153890082478868
2025-03-23 15:03:09.032,1.4387812277439433
2025-03-23 15:03:09.032,-0.23652753950909963
2025-03-23 15:03:09.033,-2.939183185580534
2025-03-23 15:03:09.042,-3.0406355727575365
2025-03-23 15:03:09.042,0.1525480279915736
2025-03-23 15:03:09.042,3.2148862306829002
2025-03-23 15:03:09.042,2.8824657570807313
2025-03-23 15:03:09.043,-0.019914847224863086
2025-03-23 15:03:09.052,-2.0039125877294626
2025-03-23 15:03:09.052,-1.3840718489483643
2025-03-23 15:03:09.052,0.1607613174341199
2025-03-23 15:03:09.053,0.4244358091231975
2025-03-23 15:03:09.053,-0.40652284470657984
2025-03-23 15:03:09.062,-0.5030208475114792
2025-03-23 15:03:09.062,0.7161293648575885
2025-03-23 15:03:09.062,1.6415793905407283
2025-03-23 15:03:09.062,0.6527614277554286
2025-03-23 15:03:09.063,-1.4704166838070747
2025-03-23 15:03:09.072,-2.1266323707517554
2025-03-23 15:03:09.072,-0.11628991541966897
2025-03-23 15:03:09.072,2.353644313142286
2025-03-23 15:03:09.073,1.943831208741103
2025-03-23 15:03:09.073,-1.3755626033923116
2025-03-23 15:03:09.082,-3.5076065187381817
2025-03-23 15:03:09.082,-1.124348976137303
2025-03-23 15:03:09.082,3.463507093902497
2025-03-23 15:03:09.083,4.445259933499452
2025-03-23 15:03:09.083,-0.1257441951158194
2025-03-23 15:03:09.092,-5.204358802035827
2025-03-23 15:03:09.092,-4.585611307165489
2025-03-23 15:03:09.092,1.3273259886222668
2025-03-23 15:03:09.093,5.792153456510511
2025-03-23 15:03:09.093,3.827727248081912
2025-03-23 15:03:09.100,-2.0070807636278354
2025-03-23 15:03:09.101,-5.087560977185783
2025-03-23 15:03:09.101,-2.600720763312674
2025-03-23 15:03:09.101,1.922753719530179
2025-03-23 15:03:09.101,3.579204194514824
2025-03-23 15:03:09.110,1.5221816120509353
2025-03-23 15:03:09.111,-1.2907203737758606
2025-03-23 15:03:09.111,-2.147293270962982
2025-03-23 15:03:09.111,-0.9284341865651978
2025-03-23 15:03:09.120,0.8047563470497648
2025-03-23 15:03:09.120,1.5423993819546251
2025-03-23 15:03:09.120,0.7266408452904021
2025-03-23 15:03:09.121,-0.9135237448658098
2025-03-23 15:03:09.121,-1.748287589793765
2025-03-23 15:03:09.130,-0.7701734289227476
2025-03-23 15:03:09.130,1.1281067345624174
2025-03-23 15:03:09.131,2.024099968269039
2025-03-23 15:03:09.131,1.1233416461355878
2025-03-23 15:03:09.131,-0.576992829232873
2025-03-23 15:03:09.140,-1.6810338067751374
2025-03-23 15:03:09.140,-1.6615981977639196
2025-03-23 15:03:09.140,-0.7393699178816435
2025-03-23 15:03:09.141,0.5975459027267347
2025-03-23 15:03:09.141,1.6469286117082087
2025-03-23 15:03:09.150,1.7397592037528768
2025-03-23 15:03:09.150,0.8424750598846585
2025-03-23 15:03:09.150,-0.41336514387091167
2025-03-23 15:03:09.151,-1.4237956803612353
2025-03-23 15:03:09.151,-1.9192610605371596
2025-03-23 15:03:09.160,-1.5605855172160592
2025-03-23 15:03:09.160,-0.007463350886894026
2025-03-23 15:03:09.160,2.100539760986371
2025-03-23 15:03:09.161,2.924039389979822
2025-03-23 15:03:09.161,1.2461303225047935
2025-03-23 15:03:09.170,-1.5913784211517268
2025-03-23 15:03:09.170,-2.713023968133923
2025-03-23 15:03:09.171,-1.095846368607232
2025-03-23 15:03:09.171,1.0382454566244488
2025-03-23 15:03:09.171,1.0592278362245848
2025-03-23 15:03:09.180,-0.5484787467134509
2025-03-23 15:03:09.180,-0.8793468727888295
2025-03-23 15:03:09.181,1.1426050675525223
2025-03-23 15:03:09.181,2.8046357691072514
2025-03-23 15:03:09.181,1.076161549937611
2025-03-23 15:03:09.190,-2.8791465247018406
2025-03-23 15:03:09.190,-4.495986310093658
2025-03-23 15:03:09.191,-1.371842297042885
2025-03-23 15:03:09.191,3.4711040828510726
2025-03-23 15:03:09.191,4.909040347656773
2025-03-23 15:03:09.198,1.5643457953445898
2025-03-23 15:03:09.199,-2.8475449265395643
2025-03-23 15:03:09.199,-3.961863726653395
2025-03-23 15:03:09.199,-1.4469243294907934
2025-03-23 15:03:09.199,1.393867641189708
2025-03-23 15:03:09.208,1.9468438027678723
2025-03-23 15:03:09.209,0.8862309007318351
2025-03-23 15:03:09.209,0.2695951214279638
2025-03-23 15:03:09.209,0.4277943704689658
2025-03-23 15:03:09.218,0.017585753082140027
2025-03-23 15:03:09.218,-1.352015589562963
2025-03-23 15:03:09.219,-2.134247135124971
2025-03-23 15:03:09.219,-0.9837043831614974
2025-03-23 15:03:09.219,1.214338103637996
2025-03-23 15:03:09.228,2.3800403877580005
2025-03-23 15:03:09.228,1.7346643193105753
2025-03-23 15:03:09.228,0.2641932780207046
2025-03-23 15:03:09.229,-1.0167142077158606
2025-03-23 15:03:09.229,-2.0287712032876737
2025-03-23 15:03:09.238,-2.5726003161261546
2025-03-23 15:03:09.238,-1.5533262880627958
2025-03-23 15:03:09.239,1.5305916494192584
2025-03-23 15:03:09.239,4.67909470628884
2025-03-23 15:03:09.239,4.462039990591911
2025-03-23 15:03:09.248,-0.11572628373116331
2025-03-23 15:03:09.248,-5.470827048862495
2025-03-23 15:03:09.248,-6.423153673185916
2025-03-23 15:03:09.249,-1.6596542059741606
2025-03-23 15:03:09.249,4.515865521594669
2025-03-23 15:03:09.258,6.445077757011401
2025-03-23 15:03:09.258,2.789769739530649
2025-03-23 15:03:09.258,-2.5044138276738135
2025-03-23 15:03:09.258,-4.61691665606548
2025-03-23 15:03:09.259,-2.5461951714217124
2025-03-23 15:03:09.266,0.7028959484494931
2025-03-23 15:03:09.267,1.9352327034507728
2025-03-23 15:03:09.267,0.9965434905233871
2025-03-23 15:03:09.267,0.0819565593723771
2025-03-23 15:03:09.276,0.4887337513645603
2025-03-23 15:03:09.276,1.0079926920466813
2025-03-23 15:03:09.276,-0.047488236741710835
2025-03-23 15:03:09.277,-1.9755598008611177
2025-03-23 15:03:09.277,-2.2077867849725346
2025-03-23 15:03:09.286,0.04442175497014368
2025-03-23 15:03:09.286,2.1863443420298347
2025-03-23 15:03:09.287,1.5732689246154845
2025-03-23 15:03:09.287,-0.6453946160114039
2025-03-23 15:03:09.287,-1.0813089358615011
2025-03-23 15:03:09.296,0.7941082545765654
2025-03-23 15:03:09.296,1.6544805757124623
2025-03-23 15:03:09.297,-0.6539867300552005
2025-03-23 15:03:09.297,-3.4008967847138902
2025-03-23 15:03:09.297,-2.4401331727693996
2025-03-23 15:03:09.306,1.8073965339360096
2025-03-23 15:03:09.306,4.472371240125282
2025-03-23 15:03:09.307,2.4755820103178157
2025-03-23 15:03:09.307,-1.672129986354357
2025-03-23 15:03:09.307,-3.406962814921994
2025-03-23 15:03:09.316,-1.720977071086908
2025-03-23 15:03:09.316,0.5599920404078773
2025-03-23 15:03:09.317,1.1544832753410394
2025-03-23 15:03:09.317,0.6979247595912638
2025-03-23 15:03:09.317,0.5845747775455636
2025-03-23 15:03:09.324,0.606710830992319
2025-03-23 15:03:09.325,-0.06372874311460175
2025-03-23 15:03:09.325,-0.9359269745840789
2025-03-23 15:03:09.325,-0.8310575384578421
2025-03-23 15:03:09.325,0.10658767713525887
2025-03-23 15:03:09.336,0.49809574071063806
2025-03-23 15:03:09.336,-0.1587978390409459
2025-03-23 15:03:09.336,-0.6851752278601397
2025-03-23 15:03:09.337,0.018359170550905093
2025-03-23 15:03:09.337,1.264098462335463
2025-03-23 15:03:09.344,1.4066401822059242
2025-03-23 15:03:09.345,0.019150954178090318
2025-03-23 15:03:09.345,-1.559387403446774
2025-03-23 15:03:09.345,-1.8467640037292041
2025-03-23 15:03:09.345,-0.7130945048689197
2025-03-23 15:03:09.356,0.8441217169148842
2025-03-23 15:03:09.356,1.7432179997295376
2025-03-23 15:03:09.356,1.4230729860218136
2025-03-23 15:03:09.356,0.10909453282301355
2025-03-23 15:03:09.357,-1.1153507100566442
2025-03-23 15:03:09.364,-1.1050253930430118
2025-03-23 15:03:09.364,-0.04423222896442712
2025-03-23 15:03:09.365,0.4877836968709855
2025-03-23 15:03:09.365,-0.4633411368621268
2025-03-23 15:03:09.374,-1.581070744992784
2025-03-23 15:03:09.375,-0.7003286672860587
2025-03-23 15:03:09.375,2.088144039055363
2025-03-23 15:03:09.375,3.865865106818133
2025-03-23 15:03:09.375,2.080875578238115
2025-03-23 15:03:09.384,-2.2546195115375856
2025-03-23 15:03:09.384,-5.259117273928888
2025-03-23 15:03:09.385,-3.9790950008443997
2025-03-23 15:03:09.385,0.7570064196071431
2025-03-23 15:03:09.385,5.027416728690632
2025-03-23 15:03:09.394,5.205723542835292
2025-03-23 15:03:09.394,1.1469322021282777
2025-03-23 15:03:09.394,-3.5799657543832044
2025-03-23 15:03:09.395,-4.911441259588701
2025-03-23 15:03:09.395,-2.11778376525688
2025-03-23 15:03:09.404,1.7252321474680508
2025-03-23 15:03:09.404,3.166931842568208
2025-03-23 15:03:09.404,1.766483209027853
2025-03-23 15:03:09.405,-0.2316632520560185
2025-03-23 15:03:09.405,-0.8847040537391898
2025-03-23 15:03:09.414,-0.3963844572725539
2025-03-23 15:03:09.414,-0.20416739234078374
2025-03-23 15:03:09.415,-0.9643191316412447
2025-03-23 15:03:09.415,-1.6555366972347942
2025-03-23 15:03:09.415,-0.6453103172517011
2025-03-23 15:03:09.424,2.0947494948567438
2025-03-23 15:03:09.424,3.9918678022153826
2025-03-23 15:03:09.424,2.160725741318647
2025-03-23 15:03:09.425,-2.7000665416380807
2025-03-23 15:03:09.425,-5.823855814427175
2025-03-23 15:03:09.434,-3.2868784957851878
2025-03-23 15:03:09.434,2.9067712158521886
2025-03-23 15:03:09.434,6.318476030884358
2025-03-23 15:03:09.435,3.2496547857478646
2025-03-23 15:03:09.435,-2.8172324215766853
2025-03-23 15:03:09.444,-5.171851728197813
2025-03-23 15:03:09.444,-1.7244714917294255
2025-03-23 15:03:09.444,2.737347099071537
2025-03-23 15:03:09.444,2.6966371567838463
2025-03-23 15:03:09.445,-1.1553054486532666
2025-03-23 15:03:09.454,-2.997295379881878
2025-03-23 15:03:09.454,0.2595237880591491
2025-03-23 15:03:09.454,4.500730173335505
2025-03-23 15:03:09.455,3.5251098606250437
2025-03-23 15:03:09.455,-2.5698624874959135
2025-03-23 15:03:09.464,-6.828604991850019
2025-03-23 15:03:09.464,-3.871048540733564
2025-03-23 15:03:09.464,3.364309164998072
2025-03-23 15:03:09.465,7.097564369310604
2025-03-23 15:03:09.465,3.7543843848063077
2025-03-23 15:03:09.472,-2.5752557487430074
2025-03-23 15:03:09.473,-5.512283022769755
2025-03-23 15:03:09.473,-3.173070402987493
2025-03-23 15:03:09.473,1.103732742735966
2025-03-23 15:03:09.473,3.2184526791977732
2025-03-23 15:03:09.482,2.103769040626994
2025-03-23 15:03:09.482,-0.28510864297964705
2025-03-23 15:03:09.483,-1.4163232181229608
2025-03-23 15:03:09.483,-0.5281918682498266
2025-03-23 15:03:09.492,0.8060126619991007
2025-03-23 15:03:09.492,0.5325810958116097
2025-03-23 15:03:09.493,-1.179407320228104
2025-03-23 15:03:09.493,-1.8540719890856623
2025-03-23 15:03:09.493,-0.07699559672028691
2025-03-23 15:03:09.502,2.1184034431151253
2025-03-23 15:03:09.502,1.8113148876859746
2025-03-23 15:03:09.502,-0.5607231349604407
2025-03-23 15:03:09.503,-1.69477899149491
2025-03-23 15:03:09.503,-0.21481407790717055
2025-03-23 15:03:09.512,1.3863668700365706
2025-03-23 15:03:09.512,0.5506239277145446
2025-03-23 15:03:09.513,-1.617363189141225
2025-03-23 15:03:09.513,-2.091043466754987
2025-03-23 15:03:09.513,-0.11826402591891992
2025-03-23 15:03:09.522,2.1809776913492662
2025-03-23 15:03:09.522,2.762101453657044
2025-03-23 15:03:09.522,1.4015197996618425
2025-03-23 15:03:09.523,-1.1516646473751049
2025-03-23 15:03:09.523,-3.726340168593888
2025-03-23 15:03:09.532,-4.2224784839906775
2025-03-23 15:03:09.532,-0.8673321844723818
2025-03-23 15:03:09.532,4.669112173085496
2025-03-23 15:03:09.533,7.1702541829338475
2025-03-23 15:03:09.533,3.099596407148493
2025-03-23 15:03:09.542,-4.557136776477087
2025-03-23 15:03:09.542,-8.609797537231895
2025-03-23 15:03:09.542,-5.0858289149144795
2025-03-23 15:03:09.543,2.7822295309683027
2025-03-23 15:03:09.543,8.025421073780807
2025-03-23 15:03:09.550,6.471304351436466
2025-03-23 15:03:09.551,-0.03869643682098989
2025-03-23 15:03:09.551,-5.836318928128116
2025-03-23 15:03:09.551,-6.482326843956514
2025-03-23 15:03:09.551,-2.2713995917427
2025-03-23 15:03:09.560,2.7084958903465255
2025-03-23 15:03:09.561,4.659841824975511
2025-03-23 15:03:09.561,3.0712380462925477
2025-03-23 15:03:09.561,0.15063997683416788
2025-03-23 15:03:09.561,-1.7901258215974019
2025-03-23 15:03:09.570,-2.087239640518084
2025-03-23 15:03:09.571,-1.4599102306570904
2025-03-23 15:03:09.571,-0.6936918703640635
2025-03-23 15:03:09.571,0.11241734405287107
2025-03-23 15:03:09.571,1.0724767554884154
2025-03-23 15:03:09.580,1.748921006730732
2025-03-23 15:03:09.581,1.4051573583680994
2025-03-23 15:03:09.581,0.05460910668502806
2025-03-23 15:03:09.581,-1.2483220348214477
2025-03-23 15:03:09.590,-1.4852728642491444
2025-03-23 15:03:09.591,-0.7712619394189179
2025-03-23 15:03:09.591,-0.026861332883161972
2025-03-23 15:03:09.591,0.2649481278055501
2025-03-23 15:03:09.591,0.485330165657495
2025-03-23 15:03:09.600,0.9841552008031588
2025-03-23 15:03:09.600,1.26270179583347
2025-03-23 15:03:09.601,0.5359941098172829
2025-03-23 15:03:09.601,-1.0059169296215582
2025-03-23 15:03:09.601,-2.0446130371673967
2025-03-23 15:03:09.610,-1.497550766548307
2025-03-23 15:03:09.610,0.26416394770434765
2025-03-23 15:03:09.611,1.7920738246184624
2025-03-23 15:03:09.611,1.887387414783449
2025-03-23 15:03:09.611,0.47638802158855725
2025-03-23 15:03:09.620,-1.286623475099085
2025-03-23 15:03:09.621,-1.6849914413406821
2025-03-23 15:03:09.621,-0.13159007787020716
2025-03-23 15:03:09.621,1.5235869382553084
2025-03-23 15:03:09.621,0.7432940277483774
2025-03-23 15:03:09.630,-1.9165738136691512
2025-03-23 15:03:09.631,-2.536783064142312
2025-03-23 15:03:09.631,0.9752701418168885
2025-03-23 15:03:09.631,4.896131873985493
2025-03-23 15:03:09.631,3.5912900958530836
2025-03-23 15:03:09.640,-2.754427813181761
2025-03-23 15:03:09.640,-7.140659577868863
2025-03-23 15:03:09.641,-3.9210877863901015
2025-03-23 15:03:09.641,3.8238838669532162
2025-03-23 15:03:09.641,7.435953683239084
2025-03-23 15:03:09.650,2.9459272987928316
2025-03-23 15:03:09.651,-4.173405692063361
2025-03-23 15:03:09.651,-5.7286628758824625
2025-03-23 15:03:09.651,-0.6497636595724228
2025-03-23 15:03:09.651,4.2160584968237735
2025-03-23 15:03:09.660,2.997058198134264
2025-03-23 15:03:09.660,-2.0958253819485924
2025-03-23 15:03:09.661,-4.168968333795586
2025-03-23 15:03:09.661,-0.6109706967697406
2025-03-23 15:03:09.661,3.9658023964366618
2025-03-23 15:03:09.670,3.942177881155921
2025-03-23 15:03:09.670,-0.4577088341339667
2025-03-23 15:03:09.671,-4.054454538285258
2025-03-23 15:03:09.671,-3.275620981151545
2025-03-23 15:03:09.671,0.17584176212813646
2025-03-23 15:03:09.680,2.332834754020433
2025-03-23 15:03:09.680,1.8727199449713454
2025-03-23 15:03:09.680,0.7115293620502425
2025-03-23 15:03:09.681,0.4706260682089745
2025-03-23 15:03:09.681,0.24421174837314163
2025-03-23 15:03:09.690,-1.3609343977136414
2025-03-23 15:03:09.690,-3.217250562834052
2025-03-23 15:03:09.691,-2.46404309030552
2025-03-23 15:03:09.691,1.44499503449282
2025-03-23 15:03:09.691,4.9169690564991875
2025-03-23 15:03:09.700,3.8343417598259033
2025-03-23 15:03:09.700,-1.2695375808533509
2025-03-23 15:03:09.700,-5.153452640130382
2025-03-23 15:03:09.701,-3.7080039182849722
2025-03-23 15:03:09.701,1.2158623711478198
2025-03-23 15:03:09.710,4.096023078462322
2025-03-23 15:03:09.710,2.3171551495413936
2025-03-23 15:03:09.710,-1.2230785781179416
2025-03-23 15:03:09.711,-2.337720105467994
2025-03-23 15:03:09.711,-0.6362629127772081
2025-03-23 15:03:09.720,0.9198598795048072
2025-03-23 15:03:09.720,0.5225395458686859
2025-03-23 15:03:09.720,-0.4198914870370001
2025-03-23 15:03:09.721,-0.027071486469517184
2025-03-23 15:03:09.721,1.0075085142955569
2025-03-23 15:03:09.729,0.596885084057683
2025-03-23 15:03:09.729,-1.2439790827441868
2025-03-23 15:03:09.729,-1.9923911824022353
2025-03-23 15:03:09.729,-0.18447342010325063
2025-03-23 15:03:09.729,2.1615275381939734
2025-03-23 15:03:09.738,2.0169050038284033
2025-03-23 15:03:09.739,-0.5114219617794362
2025-03-23 15:03:09.739,-2.170876078677648
2025-03-23 15:03:09.739,-0.8843977610143068
2025-03-23 15:03:09.748,1.4220649861418695
2025-03-23 15:03:09.748,1.4057889810127522
2025-03-23 15:03:09.749,-1.0558319219615777
2025-03-23 15:03:09.749,-2.4686870514576147
2025-03-23 15:03:09.749,-0.3829383760219769
2025-03-23 15:03:09.758,2.98465195719417
2025-03-23 15:03:09.758,3.289609585645015
2025-03-23 15:03:09.759,-0.2851290242632394
2025-03-23 15:03:09.759,-3.7919798018386524
2025-03-23 15:03:09.759,-3.42297787071628
2025-03-23 15:03:09.768,0.021879488309427847
2025-03-23 15:03:09.769,2.740493042611748
2025-03-23 15:03:09.769,2.715528537595556
2025-03-23 15:03:09.769,1.1498274039738856
2025-03-23 15:03:09.769,-0.27190423684217696
2025-03-23 15:03:09.778,-1.4107484680635503
2025-03-23 15:03:09.778,-2.422696618321095
2025-03-23 15:03:09.779,-2.266169779108449
2025-03-23 15:03:09.779,-0.02466808748728966
2025-03-23 15:03:09.779,2.9208336134697954
2025-03-23 15:03:09.779,3.69112315939881
2025-03-23 15:03:09.788,1.2228919182880795
2025-03-23 15:03:09.789,-2.263541377573045
2025-03-23 15:03:09.789,-3.6647316968090102
2025-03-23 15:03:09.789,-2.164331180292585
2025-03-23 15:03:09.798,0.5488532680892763
2025-03-23 15:03:09.799,2.5048460639982184
2025-03-23 15:03:09.799,2.9112519245550628
2025-03-23 15:03:09.799,1.750878198699181
2025-03-23 15:03:09.799,-0.6849692689613558
2025-03-23 15:03:09.808,-3.2479070793833396
2025-03-23 15:03:09.809,-3.854553049688682
2025-03-23 15:03:09.809,-1.2531476052022223
2025-03-23 15:03:09.809,2.945056365179742
2025-03-23 15:03:09.809,4.9604327368224945
2025-03-23 15:03:09.818,2.511616228395324
2025-03-23 15:03:09.818,-2.279680331711885
2025-03-23 15:03:09.819,-4.586852233544576
2025-03-23 15:03:09.819,-2.1205565445913446
2025-03-23 15:03:09.819,1.9739362127097215
2025-03-23 15:03:09.828,2.701209087511902
2025-03-23 15:03:09.829,-0.4347955367243492
2025-03-23 15:03:09.829,-2.5527663208563287
2025-03-23 15:03:09.829,0.04486720214150683
2025-03-23 15:03:09.829,4.256247518187164
2025-03-23 15:03:09.838,3.7642697730121335
2025-03-23 15:03:09.838,-2.210342801892452
2025-03-23 15:03:09.839,-6.981128069446061
2025-03-23 15:03:09.839,-4.6224490705186305
2025-03-23 15:03:09.839,2.4184072980206195
2025-03-23 15:03:09.848,6.513556435270713
2025-03-23 15:03:09.848,4.245966720847975
2025-03-23 15:03:09.849,-0.5511063237529348
2025-03-23 15:03:09.849,-2.9496454968841777
2025-03-23 15:03:09.849,-2.6636212014947027
2025-03-23 15:03:09.858,-2.12841651535615
2025-03-23 15:03:09.859,-1.6149061482034435
2025-03-23 15:03:09.859,0.630089749280081
2025-03-23 15:03:09.859,4.077218598385306
2025-03-23 15:03:09.859,4.950774014692901
2025-03-23 15:03:09.868,0.9678351802545343
2025-03-23 15:03:09.868,-4.649870165081098
2025-03-23 15:03:09.869,-6.0177330007118846
2025-03-23 15:03:09.869,-1.4266862968541973
2025-03-23 15:03:09.869,4.286089871459427
2025-03-23 15:03:09.878,5.095537562220688
2025-03-23 15:03:09.878,0.6080123315286323
2025-03-23 15:03:09.878,-3.786771740037338
2025-03-23 15:03:09.879,-3.381115015931093
2025-03-23 15:03:09.879,0.7159860667131729
2025-03-23 15:03:09.886,3.544410544354507
2025-03-23 15:03:09.887,2.2266922170110846
2025-03-23 15:03:09.887,-1.3396668577331345
2025-03-23 15:03:09.887,-3.312009942440653
2025-03-23 15:03:09.897,-2.0788350714825365
2025-03-23 15:03:09.897,0.7248077319686558
2025-03-23 15:03:09.897,2.4744423325323592
2025-03-23 15:03:09.897,2.102122651886923
2025-03-23 15:03:09.897,0.575274488389653
2025-03-23 15:03:09.897,-0.6204335937742343
2025-03-23 15:03:09.906,-1.1077478615708443
2025-03-23 15:03:09.907,-1.5312515562114282
2025-03-23 15:03:09.907,-1.9796093150866108
2025-03-23 15:03:09.907,-1.2601550119104181
2025-03-23 15:03:09.916,1.4151636851840288
2025-03-23 15:03:09.917,4.30855421649895
2025-03-23 15:03:09.917,4.110711100901106
2025-03-23 15:03:09.917,-0.17496558962546516
2025-03-23 15:03:09.917,-5.1147309587480665
2025-03-23 15:03:09.926,-5.8697519075163305
2025-03-23 15:03:09.926,-1.4367097235089448
2025-03-23 15:03:09.927,4.003683285426213
2025-03-23 15:03:09.927,5.439332823384495
2025-03-23 15:03:09.927,2.2223240339210424
2025-03-23 15:03:09.936,-1.7730438388258538
2025-03-23 15:03:09.937,-2.9311850186167194
2025-03-23 15:03:09.937,-1.6178982413951106
2025-03-23 15:03:09.937,-0.505598178315579
2025-03-23 15:03:09.937,-0.44457322114821646
2025-03-23 15:03:09.946,0.15145693017939182
2025-03-23 15:03:09.946,1.972338211674955
2025-03-23 15:03:09.947,3.0140096217462014
2025-03-23 15:03:09.947,1.2793082497768749
2025-03-23 15:03:09.947,-2.0203929593439702
2025-03-23 15:03:09.956,-3.583509671642622
2025-03-23 15:03:09.956,-1.9885218800303275
2025-03-23 15:03:09.957,0.846590831857849
2025-03-23 15:03:09.957,2.2793695815639685
2025-03-23 15:03:09.957,1.7650803476790737
2025-03-23 15:03:09.965,0.5341183917093955
2025-03-23 15:03:09.965,-0.4517355789180002
2025-03-23 15:03:09.965,-1.1055803893868614
2025-03-23 15:03:09.965,-1.2815221233563996
2025-03-23 15:03:09.965,-0.5688381449134279
2025-03-23 15:03:09.976,0.7183428830695715
2025-03-23 15:03:09.976,1.3339062445778649
2025-03-23 15:03:09.976,0.5401676356535015
2025-03-23 15:03:09.977,-0.7615712030203136
2025-03-23 15:03:09.977,-1.0413101685487214
2025-03-23 15:03:09.984,-0.04981873089655445
2025-03-23 15:03:09.985,0.9578439658702006
2025-03-23 15:03:09.985,0.8466618170697863
2025-03-23 15:03:09.985,-0.20532473238242527
2025-03-23 15:03:09.994,-1.1903183939440893
2025-03-23 15:03:09.995,-1.2894252357190212
2025-03-23 15:03:09.995,-0.2587082938860587
2025-03-23 15:03:09.995,1.4557035027739056
2025-03-23 15:03:09.995,2.5516622969029776
2025-03-23 15:03:10.004,1.5356964020900004
2025-03-23 15:03:10.004,-1.5164195226172124
2025-03-23 15:03:10.005,-4.07818601415256
2025-03-23 15:03:10.005,-3.185863522589123
2025-03-23 15:03:10.005,1.1179330523860767
2025-03-23 15:03:10.014,5.028872705835289
2025-03-23 15:03:10.014,4.527144580277436
2025-03-23 15:03:10.015,-0.3117062769217307
2025-03-23 15:03:10.015,-5.045176364876812
2025-03-23 15:03:10.015,-5.139571632357358
2025-03-23 15:03:10.024,-0.49144405828006726
2025-03-23 15:03:10.024,4.385233330682645
2025-03-23 15:03:10.025,4.836550043328479
2025-03-23 15:03:10.025,0.78132420479795
2025-03-23 15:03:10.025,-3.351442941685893
2025-03-23 15:03:10.034,-3.5319745358843173
2025-03-23 15:03:10.034,-0.3709046087366391
2025-03-23 15:03:10.035,2.1423180185228348
2025-03-23 15:03:10.035,1.5547724629191693
2025-03-23 15:03:10.035,-0.5958664684412026
2025-03-23 15:03:10.043,-1.308432977536771
2025-03-23 15:03:10.043,0.1369457264827296
2025-03-23 15:03:10.043,1.7410354129872292
2025-03-23 15:03:10.043,1.464846216505601
2025-03-23 15:03:10.043,-0.5367938324851285
2025-03-23 15:03:10.053,-2.3070223905599483
2025-03-23 15:03:10.053,-2.176214173331324
2025-03-23 15:03:10.053,-0.33015926285834346
2025-03-23 15:03:10.053,1.5334602211340866
2025-03-23 15:03:10.053,2.012074502316581
2025-03-23 15:03:10.062,1.2857621544259392
2025-03-23 15:03:10.063,0.4185954164585908
2025-03-23 15:03:10.063,-0.2511027315096562
2025-03-23 15:03:10.063,-1.2392769868867968
2025-03-23 15:03:10.072,-2.3728060776465933
2025-03-23 15:03:10.073,-2.181487912067514
2025-03-23 15:03:10.073,0.23365984056013187
2025-03-23 15:03:10.073,3.2064180456055302
2025-03-23 15:03:10.073,3.6855320350493512
2025-03-23 15:03:10.082,0.8040043037244613
2025-03-23 15:03:10.082,-2.683116887625509
2025-03-23 15:03:10.083,-3.3539264533639006
2025-03-23 15:03:10.083,-1.0117069887616965
2025-03-23 15:03:10.083,1.3626543634810209
2025-03-23 15:03:10.092,1.4388055781033289
2025-03-23 15:03:10.093,0.15251416874087453
2025-03-23 15:03:10.093,-0.10567456327373366
2025-03-23 15:03:10.093,0.9882896641410949
2025-03-23 15:03:10.093,1.3294968172675785
2025-03-23 15:03:10.102,-0.40584341967535337
2025-03-23 15:03:10.102,-2.550253745625618
2025-03-23 15:03:10.102,-2.450333325016102
2025-03-23 15:03:10.103,-0.00017376450106612595
2025-03-23 15:03:10.103,2.198875617608624
2025-03-23 15:03:10.112,2.239048902952922
2025-03-23 15:03:10.112,1.0103507748887837
2025-03-23 15:03:10.113,0.15634653698541978
2025-03-23 15:03:10.113,-0.6189139044113346
2025-03-23 15:03:10.113,-2.3330261285753373
2025-03-23 15:03:10.122,-3.5462284917904556
2025-03-23 15:03:10.122,-1.2886794865644768
2025-03-23 15:03:10.123,3.858146898540096
2025-03-23 15:03:10.123,6.363283011179786
2025-03-23 15:03:10.123,2.1276654698851267
2025-03-23 15:03:10.132,-5.126319396809156
2025-03-23 15:03:10.132,-7.233123219156585
2025-03-23 15:03:10.133,-1.5843505990152686
2025-03-23 15:03:10.133,5.350484315220097
2025-03-23 15:03:10.133,5.954198929079665
2025-03-23 15:03:10.140,0.4848694043800307
2025-03-23 15:03:10.141,-4.2130537965462365
2025-03-23 15:03:10.141,-3.5752363801048426
2025-03-23 15:03:10.141,0.15189827960347463
2025-03-23 15:03:10.150,2.263557024963747
2025-03-23 15:03:10.151,1.5099340797318948
2025-03-23 15:03:10.151,0.08220570185719564
2025-03-23 15:03:10.151,-0.4259464778229299
2025-03-23 15:03:10.151,-0.5963023476363783
2025-03-23 15:03:10.160,-1.0187162574287174
2025-03-23 15:03:10.161,-0.7978093544504351
2025-03-23 15:03:10.161,0.7674963016858068
2025-03-23 15:03:10.161,2.296020840333803
2025-03-23 15:03:10.161,1.611729494905447
2025-03-23 15:03:10.170,-1.2465529725065516
2025-03-23 15:03:10.171,-3.4607530237937514
2025-03-23 15:03:10.171,-2.405305432597374
2025-03-23 15:03:10.171,1.2348819873935013
2025-03-23 15:03:10.171,3.9158657618622845
2025-03-23 15:03:10.180,2.961377767928775
2025-03-23 15:03:10.180,-0.5597443882660029
2025-03-23 15:03:10.181,-3.1321461453320807
2025-03-23 15:03:10.181,-2.682117719979595
2025-03-23 15:03:10.181,-0.3871923720418554
2025-03-23 15:03:10.190,1.338708527602148
2025-03-23 15:03:10.191,1.5537426531919445
2025-03-23 15:03:10.191,0.9579759221398718
2025-03-23 15:03:10.191,0.3166608166434738
2025-03-23 15:03:10.191,-0.2439604109256463
2025-03-23 15:03:10.200,-0.679446180154466
2025-03-23 15:03:10.200,-0.7517253551445253
2025-03-23 15:03:10.201,-0.4897276908824151
2025-03-23 15:03:10.201,-0.27661639639066193
2025-03-23 15:03:10.201,-0.17649782843279832
2025-03-23 15:03:10.210,0.29873863575072007
2025-03-23 15:03:10.211,1.2589829082501676
2025-03-23 15:03:10.211,1.6902435371803897
2025-03-23 15:03:10.211,0.4877500383329713
2025-03-23 15:03:10.211,-1.7168990088928893
2025-03-23 15:03:10.220,-2.678204084565324
2025-03-23 15:03:10.220,-1.0968519784151047
2025-03-23 15:03:10.221,1.5226789010683148
2025-03-23 15:03:10.221,2.4507011427530503
2025-03-23 15:03:10.221,0.9666409640337019
2025-03-23 15:03:10.230,-0.9388857051964359
2025-03-23 15:03:10.230,-1.218382317728503
2025-03-23 15:03:10.231,-0.1507023956632639
2025-03-23 15:03:10.231,0.4682876465023345
2025-03-23 15:03:10.231,-0.1713822054226633
2025-03-23 15:03:10.240,-0.993800370687015
2025-03-23 15:03:10.240,-0.5434556882545482
2025-03-23 15:03:10.241,1.0964008568456207
2025-03-23 15:03:10.241,2.147630331325658
2025-03-23 15:03:10.241,1.0557001836648612
2025-03-23 15:03:10.250,-1.4658986284077518
2025-03-23 15:03:10.251,-2.8447729641607857
2025-03-23 15:03:10.251,-1.5174853456255575
2025-03-23 15:03:10.251,1.1630922911878256
2025-03-23 15:03:10.251,2.5926928821509607
2025-03-23 15:03:10.260,1.9079256472865493
2025-03-23 15:03:10.260,0.2393742877364798
2025-03-23 15:03:10.260,-1.4291225382179087
2025-03-23 15:03:10.261,-2.8370741232661376
2025-03-23 15:03:10.261,-2.9058872741263273
2025-03-23 15:03:10.270,-0.0774292022432287
2025-03-23 15:03:10.270,4.468484139239939
2025-03-23 15:03:10.270,6.0234238524703665
2025-03-23 15:03:10.271,1.4040097810311425
2025-03-23 15:03:10.271,-5.831994653535073
2025-03-23 15:03:10.279,-8.034150956383849
2025-03-23 15:03:10.279,-2.21948738499505
2025-03-23 15:03:10.279,5.79955292993962
2025-03-23 15:03:10.279,7.722925630058452
2025-03-23 15:03:10.279,2.168067096235195
2025-03-23 15:03:10.289,-4.253285941546512
2025-03-23 15:03:10.289,-5.112076535636275
2025-03-23 15:03:10.289,-1.1380851168294677
2025-03-23 15:03:10.289,2.0788424868355135
2025-03-23 15:03:10.298,1.5166963773993014
2025-03-23 15:03:10.299,-0.47163231890905477
2025-03-23 15:03:10.299,-0.4431542176174359
2025-03-23 15:03:10.299,1.4026915539601041
2025-03-23 15:03:10.299,2.0081241367461886
2025-03-23 15:03:10.299,-0.11299360970892681
2025-03-23 15:03:10.309,-2.8122799927957884
2025-03-23 15:03:10.309,-2.8969726278965124
2025-03-23 15:03:10.309,0.05736135456857433
2025-03-23 15:03:10.309,3.0718553841505942
2025-03-23 15:03:10.318,2.9123977418309637
2025-03-23 15:03:10.319,-0.3317222552976851
2025-03-23 15:03:10.319,-3.1157537710759287
2025-03-23 15:03:10.319,-2.2513380384636124
2025-03-23 15:03:10.319,1.3293535791095512
2025-03-23 15:03:10.328,3.430980473498329
2025-03-23 15:03:10.328,1.4754133244385095
2025-03-23 15:03:10.329,-2.385614583516345
2025-03-23 15:03:10.329,-3.8081107797187363
2025-03-23 15:03:10.329,-1.268258268829782
2025-03-23 15:03:10.338,2.5310396309764736
2025-03-23 15:03:10.338,3.98409332937257
2025-03-23 15:03:10.339,2.0730055819974935
2025-03-23 15:03:10.339,-1.5020824307219016
2025-03-23 15:03:10.339,-4.170645828544085
2025-03-23 15:03:10.348,-3.8577179566428588
2025-03-23 15:03:10.348,-0.12390749739771548
2025-03-23 15:03:10.349,4.576224806368137
2025-03-23 15:03:10.349,5.8471385679460495
2025-03-23 15:03:10.349,1.590336483759161
2025-03-23 15:03:10.358,-4.74897364166831
2025-03-23 15:03:10.358,-6.906381089399901
2025-03-23 15:03:10.359,-2.4569603074625896
2025-03-23 15:03:10.359,4.242678887266322
2025-03-23 15:03:10.359,6.554714197534252
2025-03-23 15:03:10.368,2.5207477191014696
2025-03-23 15:03:10.368,-3.37762144600789
2025-03-23 15:03:10.369,-5.229912962409921
2025-03-23 15:03:10.369,-1.7802182696115787
2025-03-23 15:03:10.369,2.7445575206945927
2025-03-23 15:03:10.378,3.5392071248646118
2025-03-23 15:03:10.378,0.40128899061600326
2025-03-23 15:03:10.379,-2.451893679274275
2025-03-23 15:03:10.379,-1.648389642793514
2025-03-23 15:03:10.379,1.2830803970407518
2025-03-23 15:03:10.386,2.1299350797253433
2025-03-23 15:03:10.387,-0.33243741465407545
2025-03-23 15:03:10.387,-2.68793590910987
2025-03-23 15:03:10.387,-1.4953951649366612
2025-03-23 15:03:10.396,1.9882676706809872
2025-03-23 15:03:10.397,3.3154898294780835
2025-03-23 15:03:10.397,0.619797710252436
2025-03-23 15:03:10.397,-2.9233409920003295
2025-03-23 15:03:10.397,-3.0934205409834066
2025-03-23 15:03:10.406,0.17625730421184305
2025-03-23 15:03:10.407,2.956905957949683
2025-03-23 15:03:10.407,2.2645918766965942
2025-03-23 15:03:10.407,-0.6279746432437382
2025-03-23 15:03:10.407,-2.2216495843330666
2025-03-23 15:03:10.416,-1.0736614426042947
2025-03-23 15:03:10.416,0.8906701271612341
2025-03-23 15:03:10.417,1.115948273801575
2025-03-23 15:03:10.417,-0.40545948853069397
2025-03-23 15:03:10.417,-1.2783607229471654
2025-03-23 15:03:10.426,0.07865435696571692
2025-03-23 15:03:10.426,2.1023836795821698
2025-03-23 15:03:10.427,1.7900665986102493
2025-03-23 15:03:10.427,-1.2794787943158719
2025-03-23 15:03:10.427,-3.7207788043788774
2025-03-23 15:03:10.436,-2.1416228936404513
2025-03-23 15:03:10.436,2.3039958675632217
2025-03-23 15:03:10.437,4.67137330773991
2025-03-23 15:03:10.437,2.0300374820353264
2025-03-23 15:03:10.437,-2.7777092889052137
2025-03-23 15:03:10.444,-4.396980336071978
2025-03-23 15:03:10.445,-1.3101524186395561
2025-03-23 15:03:10.445,2.602316375595177
2025-03-23 15:03:10.445,2.9764552944399405
2025-03-23 15:03:10.454,0.029685959675781942
2025-03-23 15:03:10.455,-2.2403572983574396
2025-03-23 15:03:10.455,-1.2034779454118216
2025-03-23 15:03:10.455,1.4322566237226364
2025-03-23 15:03:10.455,2.1199231150803928
2025-03-23 15:03:10.455,-0.06656247844211943
2025-03-23 15:03:10.464,-2.471778830563377
2025-03-23 15:03:10.465,-2.1821877886789456
2025-03-23 15:03:10.465,0.5928989114808471
2025-03-23 15:03:10.465,2.868166093207419
2025-03-23 15:03:10.475,2.2265611285723206
2025-03-23 15:03:10.475,-0.6450369831489213
2025-03-23 15:03:10.475,-2.8124605311197595
2025-03-23 15:03:10.475,-2.23107844979361
2025-03-23 15:03:10.475,0.28542526354717973
2025-03-23 15:03:10.475,2.2794395346354865
2025-03-23 15:03:10.484,2.318548533464169
2025-03-23 15:03:10.485,0.8689625411547427
2025-03-23 15:03:10.485,-1.0389872577748576
2025-03-23 15:03:10.485,-2.6885292060818413
2025-03-23 15:03:10.494,-2.9991083941387418
2025-03-23 15:03:10.495,-0.7168866826812985
2025-03-23 15:03:10.495,3.319577241951509
2025-03-23 15:03:10.495,5.344989642302467
2025-03-23 15:03:10.495,2.329782361037789
2025-03-23 15:03:10.504,-3.602121567810237
2025-03-23 15:03:10.505,-6.522779010104701
2025-03-23 15:03:10.505,-3.2642838934679883
2025-03-23 15:03:10.505,2.8319075394596465
2025-03-23 15:03:10.505,5.761229790207885
2025-03-23 15:03:10.515,3.372466139081483
2025-03-23 15:03:10.515,-1.1749669051004927
2025-03-23 15:03:10.515,-3.6441093546665644
2025-03-23 15:03:10.515,-2.766746455301162
2025-03-23 15:03:10.515,-0.20908954106287728
2025-03-23 15:03:10.524,1.7432249441126226
2025-03-23 15:03:10.525,1.7677575277221258
2025-03-23 15:03:10.525,0.07547598968752561
2025-03-23 15:03:10.525,-1.5151506613629582
2025-03-23 15:03:10.525,-0.9062556031555482
2025-03-23 15:03:10.534,1.6910583283242606
2025-03-23 15:03:10.534,3.1144641782617706
2025-03-23 15:03:10.535,0.7047746495495069
2025-03-23 15:03:10.535,-3.7347672310831475
2025-03-23 15:03:10.535,-5.172993491521417
2025-03-23 15:03:10.544,-1.2507266089098148
2025-03-23 15:03:10.544,4.401243870182686
2025-03-23 15:03:10.545,5.990776750358427
2025-03-23 15:03:10.545,2.041006836747236
2025-03-23 15:03:10.545,-3.2552576311500805
2025-03-23 15:03:10.554,-4.952049557645703
2025-03-23 15:03:10.555,-2.3240910184641197
2025-03-23 15:03:10.555,1.3601299382175498
2025-03-23 15:03:10.555,2.8352437237570807
2025-03-23 15:03:10.555,1.6706526128641954
2025-03-23 15:03:10.564,-0.28533830827805173
2025-03-23 15:03:10.564,-1.1139190532779215
2025-03-23 15:03:10.565,-0.35997632453211703
2025-03-23 15:03:10.565,0.8326656060089785
2025-03-23 15:03:10.565,0.8226916090385874
2025-03-23 15:03:10.574,-0.7839687598210349
2025-03-23 15:03:10.574,-2.344935994690599
2025-03-23 15:03:10.575,-1.7394317351842015
2025-03-23 15:03:10.575,1.0219041491319962
2025-03-23 15:03:10.575,3.3480915082254956
2025-03-23 15:03:10.582,2.7344442450893114
2025-03-23 15:03:10.583,-0.4163057055081937
2025-03-23 15:03:10.583,-3.1055892545625787
2025-03-23 15:03:10.583,-2.8243983308663676
2025-03-23 15:03:10.594,-0.05429589703576182
2025-03-23 15:03:10.594,2.3200374487166746
2025-03-23 15:03:10.594,1.9553933394514862
2025-03-23 15:03:10.595,-0.5724212958919519
2025-03-23 15:03:10.595,-2.301546299299359
2025-03-23 15:03:10.595,-1.0005031626854457
2025-03-23 15:03:10.603,2.1524093039909316
2025-03-23 15:03:10.603,3.4800806575579886
2025-03-23 15:03:10.603,0.8930209058233681
2025-03-23 15:03:10.603,-3.353469131310823
2025-03-23 15:03:10.603,-4.845210725850064
2025-03-23 15:03:10.614,-1.8592321146349875
2025-03-23 15:03:10.614,2.843382190641904
2025-03-23 15:03:10.615,5.113432495709185
2025-03-23 15:03:10.615,3.372858939308724
2025-03-23 15:03:10.615,-0.6580157917236227
2025-03-23 15:03:10.623,-3.998534012440396
2025-03-23 15:03:10.623,-4.485801583409863
2025-03-23 15:03:10.623,-1.8348046888386205
2025-03-23 15:03:10.623,2.108806183116841
2025-03-23 15:03:10.633,4.384028816109086
2025-03-23 15:03:10.633,3.2371695301136865
2025-03-23 15:03:10.633,-0.2398786908380094
2025-03-23 15:03:10.633,-3.11028844141368
2025-03-23 15:03:10.633,-3.240056472250652
2025-03-23 15:03:10.642,-0.895179545250306
2025-03-23 15:03:10.643,1.7846614169281507
2025-03-23 15:03:10.643,2.5392809137005603
2025-03-23 15:03:10.643,0.814341619347388
2025-03-23 15:03:10.643,-1.5442467766964254
2025-03-23 15:03:10.653,-1.8935448396473278
2025-03-23 15:03:10.653,0.2473103134789851
2025-03-23 15:03:10.653,2.3101283180283803
2025-03-23 15:03:10.653,1.5799825508883245
2025-03-23 15:03:10.653,-1.3606245375703583
2025-03-23 15:03:10.662,-3.1364535498601374
2025-03-23 15:03:10.663,-1.5761135620729254
2025-03-23 15:03:10.663,1.7640471174278691
2025-03-23 15:03:10.663,3.448276002087058
2025-03-23 15:03:10.663,1.8537869850829765
2025-03-23 15:03:10.672,-1.4253313299852635
2025-03-23 15:03:10.673,-3.3834237907996356
2025-03-23 15:03:10.673,-2.3597846799835116
2025-03-23 15:03:10.673,0.6768846688517778
2025-03-23 15:03:10.673,3.0860748531012536
2025-03-23 15:03:10.682,2.839655808302692
2025-03-23 15:03:10.682,0.2544033681856225
2025-03-23 15:03:10.683,-2.3376682594921734
2025-03-23 15:03:10.683,-2.7585749568072897
2025-03-23 15:03:10.683,-0.9965425415138175
2025-03-23 15:03:10.692,0.9888359755355906
2025-03-23 15:03:10.693,1.5338503370848007
2025-03-23 15:03:10.693,0.9803022422583413
2025-03-23 15:03:10.693,0.6699464367767947
2025-03-23 15:03:10.693,0.6988912353580907
2025-03-23 15:03:10.702,-0.13872094312265112
2025-03-23 15:03:10.702,-1.9748323317675058
2025-03-23 15:03:10.703,-2.818678821057406
2025-03-23 15:03:10.703,-0.9709164040900938
2025-03-23 15:03:10.703,2.280693582395614
2025-03-23 15:03:10.712,3.745676172778341
2025-03-23 15:03:10.712,1.9917927140304144
2025-03-23 15:03:10.713,-1.2440452890824079
2025-03-23 15:03:10.713,-3.3388168952971444
2025-03-23 15:03:10.713,-3.202025325201992
2025-03-23 15:03:10.722,-1.1378092468544627
2025-03-23 15:03:10.723,2.070603457920729
2025-03-23 15:03:10.723,4.743077665047865
2025-03-23 15:03:10.723,4.269780205381785
2025-03-23 15:03:10.723,-0.3442391263020139
2025-03-23 15:03:10.732,-5.867885436741615
2025-03-23 15:03:10.732,-6.8396119543979585
2025-03-23 15:03:10.733,-1.471536118158979
2025-03-23 15:03:10.733,5.490608589596641
2025-03-23 15:03:10.733,7.411836674529804
2025-03-23 15:03:10.741,2.947614791266573
2025-03-23 15:03:10.741,-3.0208223720807723
2025-03-23 15:03:10.741,-5.494914553586653
2025-03-23 15:03:10.741,-4.145883170390443
2025-03-23 15:03:10.750,-1.2948106607376153
2025-03-23 15:03:10.751,2.024077707334017
2025-03-23 15:03:10.751,5.359820574716199
2025-03-23 15:03:10.751,6.098567288598071
2025-03-23 15:03:10.751,1.488617554310483
2025-03-23 15:03:10.751,-6.087931953159822
2025-03-23 15:03:10.761,-9.354240128237308
2025-03-23 15:03:10.761,-3.954431250672065
2025-03-23 15:03:10.761,5.542137088694653
2025-03-23 15:03:10.761,9.825794818416867
2025-03-23 15:03:10.761,4.8687586699914815
2025-03-23 15:03:10.771,-3.92206058151786
2025-03-23 15:03:10.771,-7.9209443529479024
2025-03-23 15:03:10.771,-4.313824081819244
2025-03-23 15:03:10.771,2.0298581351679292
2025-03-23 15:03:10.780,4.850086240043922
2025-03-23 15:03:10.781,2.9310078453068766
2025-03-23 15:03:10.781,-0.21936510327403566
2025-03-23 15:03:10.781,-1.5472288333532955
2025-03-23 15:03:10.781,-1.4278747222021062
2025-03-23 15:03:10.790,-1.5173121944236605
2025-03-23 15:03:10.791,-1.551588997717924
2025-03-23 15:03:10.791,0.11412176753725463
2025-03-23 15:03:10.791,3.1427196135142443
2025-03-23 15:03:10.791,4.239068424920748
2025-03-23 15:03:10.800,0.9168543921245829
2025-03-23 15:03:10.800,-4.393960313844412
2025-03-23 15:03:10.801,-5.9985582287110075
2025-03-23 15:03:10.801,-1.5138352882956543
2025-03-23 15:03:10.801,4.668744953555476
2025-03-23 15:03:10.810,6.042839848082113
2025-03-23 15:03:10.810,1.4490865947464977
2025-03-23 15:03:10.811,-3.7968936042281127
2025-03-23 15:03:10.811,-4.26885716858767
2025-03-23 15:03:10.811,-0.3793197507654327
2025-03-23 15:03:10.819,2.7988233984425497
2025-03-23 15:03:10.819,1.7267668188508463
2025-03-23 15:03:10.819,-1.7742181528069814
2025-03-23 15:03:10.819,-2.9911334768904907
2025-03-23 15:03:10.819,0.09050604340175569
2025-03-23 15:03:10.829,4.282402689037269
2025-03-23 15:03:10.829,4.52486453376332
2025-03-23 15:03:10.829,-0.3778999641707501
2025-03-23 15:03:10.829,-5.886943310330771
2025-03-23 15:03:10.839,-6.209358879071587
2025-03-23 15:03:10.839,-0.5702504744315214
2025-03-23 15:03:10.839,5.715236868917863
2025-03-23 15:03:10.839,6.715658413553695
2025-03-23 15:03:10.839,1.863301490716651
2025-03-23 15:03:10.840,-3.9327845860041006
2025-03-23 15:03:10.849,-5.60613426740908
2025-03-23 15:03:10.849,-2.6105509142320864
2025-03-23 15:03:10.849,1.532659928824841
2025-03-23 15:03:10.849,3.324418591682608
2025-03-23 15:03:10.849,2.2745615118589098
2025-03-23 15:03:10.859,0.31127272550723933
2025-03-23 15:03:10.859,-0.7727410944995063
2025-03-23 15:03:10.859,-0.8565917377363375
2025-03-23 15:03:10.859,-0.8468367436157094
2025-03-23 15:03:10.869,-1.117059189308322
2025-03-23 15:03:10.869,-1.0096437380167844
2025-03-23 15:03:10.869,0.10321429505651762
2025-03-23 15:03:10.869,1.684469116685078
2025-03-23 15:03:10.869,2.363145436125541
2025-03-23 15:03:10.878,1.3480343689548704
2025-03-23 15:03:10.879,-0.7475456166655666
2025-03-23 15:03:10.879,-2.4700454404246486
2025-03-23 15:03:10.879,-2.7011731011950477
2025-03-23 15:03:10.879,-1.3055690407224168
2025-03-23 15:03:10.888,1.004404297770637
2025-03-23 15:03:10.889,3.0521346547295667
2025-03-23 15:03:10.889,3.537047117635948
2025-03-23 15:03:10.889,1.676890737860349
2025-03-23 15:03:10.889,-1.8434752187228414
2025-03-23 15:03:10.899,-4.676291100638881
2025-03-23 15:03:10.899,-4.319797629923459
2025-03-23 15:03:10.899,-0.48680320937498134
2025-03-23 15:03:10.899,4.010556525671531
2025-03-23 15:03:10.899,5.365119592051555
2025-03-23 15:03:10.908,2.409259942168762
2025-03-23 15:03:10.909,-1.998803292473563
2025-03-23 15:03:10.909,-3.903682751603029
2025-03-23 15:03:10.909,-2.4711672452034694
2025-03-23 15:03:10.909,-0.3103106371573262
2025-03-23 15:03:10.919,0.4286423591392134
2025-03-23 15:03:10.919,0.6443824715822403
2025-03-23 15:03:10.919,1.963740004604233
2025-03-23 15:03:10.919,3.2954478698663423
2025-03-23 15:03:10.919,1.8550047561504677
2025-03-23 15:03:10.928,-2.4253903545907622
2025-03-23 15:03:10.929,-5.535006783907749
2025-03-23 15:03:10.929,-3.670051800612561
2025-03-23 15:03:10.929,1.9186154226099519
2025-03-23 15:03:10.929,5.737263281106577
2025-03-23 15:03:10.938,3.9512409122116514
2025-03-23 15:03:10.939,-1.3584465200695475
2025-03-23 15:03:10.939,-4.529673061088326
2025-03-23 15:03:10.939,-2.6231335377379112
2025-03-23 15:03:10.939,1.5323618873382712
2025-03-23 15:03:10.948,2.9901230353825423
2025-03-23 15:03:10.949,0.5520142986147722
2025-03-23 15:03:10.949,-2.2013678861890393
2025-03-23 15:03:10.949,-1.7326677554688674
2025-03-23 15:03:10.949,1.015561215682361
2025-03-23 15:03:10.958,2.187968990967501
2025-03-23 15:03:10.959,0.3797965995150533
2025-03-23 15:03:10.959,-1.4972840966063008
2025-03-23 15:03:10.959,-0.5276983085984914
2025-03-23 15:03:10.959,1.7132768078739233
2025-03-23 15:03:10.968,1.201838904701146
2025-03-23 15:03:10.969,-2.374611424632585
2025-03-23 15:03:10.969,-4.245842775742403
2025-03-23 15:03:10.969,-0.760154718328014
2025-03-23 15:03:10.969,4.934781285071633
2025-03-23 15:03:10.978,5.999625552684218
2025-03-23 15:03:10.978,0.4898547320485024
2025-03-23 15:03:10.979,-5.7231571732236715
2025-03-23 15:03:10.979,-5.878628475438746
2025-03-23 15:03:10.979,-0.35720605286583673
2025-03-23 15:03:10.988,4.376578778835646
2025-03-23 15:03:10.989,3.9518141139755296
2025-03-23 15:03:10.989,0.4497954068694854
2025-03-23 15:03:10.989,-1.7116143320443968
2025-03-23 15:03:10.989,-1.4405398309714874
2025-03-23 15:03:10.998,-0.7867868980728749
2025-03-23 15:03:10.999,-0.8895092860189806
2025-03-23 15:03:10.999,-0.6020917478960153
2025-03-23 15:03:10.999,0.9671561713946984
2025-03-23 15:03:10.999,2.4868543674315924
2025-03-23 15:03:11.008,1.9283075628088118
2025-03-23 15:03:11.009,-0.6585081533306154
2025-03-23 15:03:11.009,-2.8456057592342554
2025-03-23 15:03:11.009,-2.443923644021892
2025-03-23 15:03:11.009,0.04323997688401937
2025-03-23 15:03:11.018,2.033601358521324
2025-03-23 15:03:11.018,1.8715036275489751
2025-03-23 15:03:11.019,0.5307462879543994
2025-03-23 15:03:11.019,-0.18013022564110875
2025-03-23 15:03:11.019,-0.29971580979652823
2025-03-23 15:03:11.027,-1.1569307617206257
2025-03-23 15:03:11.027,-2.340345332065544
2025-03-23 15:03:11.027,-1.4043223015070323
2025-03-23 15:03:11.027,2.204603646228314
2025-03-23 15:03:11.027,4.766817360842143
2025-03-23 15:03:11.037,2.293364761505616
2025-03-23 15:03:11.037,-3.56350358991307
2025-03-23 15:03:11.037,-6.301754507878621
2025-03-23 15:03:11.037,-2.2485915531634144
2025-03-23 15:03:11.046,4.5043507838413115
2025-03-23 15:03:11.047,6.582218783755527
2025-03-23 15:03:11.047,1.8288674293378913
2025-03-23 15:03:11.047,-4.469976674422707
2025-03-23 15:03:11.047,-5.811170026292913
2025-03-23 15:03:11.056,-1.423540352780185
2025-03-23 15:03:11.057,3.641294036917417
2025-03-23 15:03:11.057,4.440610435698501
2025-03-23 15:03:11.057,1.026087429400946
2025-03-23 15:03:11.057,-2.5622015747829545
2025-03-23 15:03:11.066,-3.0241073434477994
2025-03-23 15:03:11.067,-0.6731194739008136
2025-03-23 15:03:11.067,1.7979374051849446
2025-03-23 15:03:11.067,2.1939002103278087
2025-03-23 15:03:11.067,0.4105992972157362
2025-03-23 15:03:11.076,-1.7832000147024067
2025-03-23 15:03:11.077,-2.1678598253935393
2025-03-23 15:03:11.077,-0.07706758039041249
2025-03-23 15:03:11.077,2.5219159483042186
2025-03-23 15:03:11.077,2.621623447540813
2025-03-23 15:03:11.086,-0.4470513882246488
2025-03-23 15:03:11.087,-3.657039979011521
2025-03-23 15:03:11.087,-3.2348782436124077
2025-03-23 15:03:11.087,0.9450959696346617
2025-03-23 15:03:11.087,4.7154446765996525
2025-03-23 15:03:11.096,3.9100464856741732
2025-03-23 15:03:11.097,-1.0044163651816087
2025-03-23 15:03:11.097,-5.183670477151978
2025-03-23 15:03:11.097,-4.421159883439249
2025-03-23 15:03:11.097,0.47291282676529334
2025-03-23 15:03:11.106,4.647756027453347
2025-03-23 15:03:11.106,4.341534474242052
2025-03-23 15:03:11.107,0.44494648197415154
2025-03-23 15:03:11.107,-3.09468827203376
2025-03-23 15:03:11.107,-3.5551243101139667
2025-03-23 15:03:11.116,-1.459072390110195
2025-03-23 15:03:11.117,1.016830960621857
2025-03-23 15:03:11.117,2.371060930484431
2025-03-23 15:03:11.117,2.2942809231858936
2025-03-23 15:03:11.117,0.9667801220491874
2025-03-23 15:03:11.125,-1.0981132625458734
2025-03-23 15:03:11.125,-2.6643926158768774
2025-03-23 15:03:11.125,-2.3000467971211633
2025-03-23 15:03:11.125,0.014360050513068046
2025-03-23 15:03:11.125,2.27384398381775
2025-03-23 15:03:11.136,2.338653398252271
2025-03-23 15:03:11.136,0.4308196362050811
2025-03-23 15:03:11.137,-1.1049379397093029
2025-03-23 15:03:11.137,-0.7860730237056749
2025-03-23 15:03:11.137,0.18037767359411433
2025-03-23 15:03:11.145,-0.18891497622688577
2025-03-23 15:03:11.145,-1.6028623382749143
2025-03-23 15:03:11.145,-1.6864683780973806
2025-03-23 15:03:11.145,0.6582735012954326
2025-03-23 15:03:11.146,3.3202430902504987
2025-03-23 15:03:11.155,3.232968696712475
2025-03-23 15:03:11.155,0.014123404198629258
2025-03-23 15:03:11.155,-3.4390871978117077
2025-03-23 15:03:11.155,-3.929812640255834
2025-03-23 15:03:11.164,-1.125286934273417
2025-03-23 15:03:11.165,2.2727123002054332
2025-03-23 15:03:11.165,3.3237268942728906
2025-03-23 15:03:11.165,1.6711436302838514
2025-03-23 15:03:11.165,-0.5648611455513504
2025-03-23 15:03:11.175,-1.5037240728312071
2025-03-23 15:03:11.175,-1.3536625757320666
2025-03-23 15:03:11.175,-1.1878582102222832
2025-03-23 15:03:11.175,-0.8494337875164704
2025-03-23 15:03:11.175,0.6000973749300486
2025-03-23 15:03:11.176,2.5704999332469183
2025-03-23 15:03:11.185,2.7537769864565362
2025-03-23 15:03:11.185,0.10472551799856365
2025-03-23 15:03:11.185,-3.0881114153777434
2025-03-23 15:03:11.185,-3.4658236993796447
2025-03-23 15:03:11.195,-0.5971462037515032
2025-03-23 15:03:11.195,2.5275255783230586
2025-03-23 15:03:11.195,3.0177806375811516
2025-03-23 15:03:11.195,0.9577889264740062
2025-03-23 15:03:11.195,-1.4403070323076308
2025-03-23 15:03:11.204,-2.3328423910475617
2025-03-23 15:03:11.205,-1.3223541679524347
2025-03-23 15:03:11.205,0.7967664563920769
2025-03-23 15:03:11.205,2.359130712976785
2025-03-23 15:03:11.205,1.7155751815016584
2025-03-23 15:03:11.214,-0.9585424349283108
2025-03-23 15:03:11.215,-3.089053996313539
2025-03-23 15:03:11.215,-2.1082823166134244
2025-03-23 15:03:11.215,1.4636175308294799
2025-03-23 15:03:11.215,4.092616886903805
2025-03-23 15:03:11.225,2.6919497245753767
2025-03-23 15:03:11.225,-2.017818246131725
2025-03-23 15:03:11.225,-5.550574353464638
2025-03-23 15:03:11.225,-3.6271710122585463
2025-03-23 15:03:11.225,2.8992609539698044
2025-03-23 15:03:11.234,7.5534628002506485
2025-03-23 15:03:11.235,4.560628054285002
2025-03-23 15:03:11.235,-3.9475391273681844
2025-03-23 15:03:11.235,-9.091606558298079
2025-03-23 15:03:11.235,-4.963235414152827
2025-03-23 15:03:11.244,4.2792587917157325
2025-03-23 15:03:11.245,8.91346692531329
2025-03-23 15:03:11.245,4.583172545857218
2025-03-23 15:03:11.245,-3.3664741936056006
2025-03-23 15:03:11.245,-6.7205140416214535
2025-03-23 15:03:11.254,-3.4619581394409895
2025-03-23 15:03:11.255,1.4840936123522421
2025-03-23 15:03:11.255,3.229791801881423
2025-03-23 15:03:11.255,2.011369051344876
2025-03-23 15:03:11.255,0.7979131815256902
2025-03-23 15:03:11.264,0.3361753638110434
2025-03-23 15:03:11.265,-0.9517779424430028
2025-03-23 15:03:11.265,-2.9604894287481867
2025-03-23 15:03:11.265,-2.873807214063102
2025-03-23 15:03:11.265,0.6675827284201264
2025-03-23 15:03:11.274,4.47702886664718
2025-03-23 15:03:11.275,4.062055244585185
2025-03-23 15:03:11.275,-0.6863502607114764
2025-03-23 15:03:11.275,-4.949997600122026
2025-03-23 15:03:11.275,-4.369444659193105
2025-03-23 15:03:11.284,0.2874634859172311
2025-03-23 15:03:11.284,4.342245740131284
2025-03-23 15:03:11.285,4.238787819777744
2025-03-23 15:03:11.285,0.6643343655308042
2025-03-23 15:03:11.285,-2.8790120121811094
2025-03-23 15:03:11.294,-3.68255844234518
2025-03-23 15:03:11.295,-1.802928946183757
2025-03-23 15:03:11.295,0.8644972244928444
2025-03-23 15:03:11.295,2.6125004818722863
2025-03-23 15:03:11.295,2.7924047341209466
2025-03-23 15:03:11.303,1.37411918094361
2025-03-23 15:03:11.303,-1.2174300151817128
2025-03-23 15:03:11.303,-3.5043551466542286
2025-03-23 15:03:11.303,-3.3149240917958487
2025-03-23 15:03:11.313,-0.027453704555473968
2025-03-23 15:03:11.313,3.788004630108678
2025-03-23 15:03:11.313,4.331413919354967
2025-03-23 15:03:11.313,0.7300838635265261
2025-03-23 15:03:11.313,-3.552128228434522
2025-03-23 15:03:11.323,-4.217816112431598
2025-03-23 15:03:11.323,-0.7808392993195844
2025-03-23 15:03:11.323,2.9691356415306887
2025-03-23 15:03:11.323,3.2225869502262823
2025-03-23 15:03:11.323,0.2645817416860323
2025-03-23 15:03:11.333,-2.202462358149075
2025-03-23 15:03:11.333,-1.603864241125499
2025-03-23 15:03:11.333,0.5998456566360173
2025-03-23 15:03:11.333,1.191014319779001
2025-03-23 15:03:11.333,-0.3701881379696683
2025-03-23 15:03:11.342,-1.3656166599042185
2025-03-23 15:03:11.343,0.06253442958401238
2025-03-23 15:03:11.343,2.0117454633279777
2025-03-23 15:03:11.343,1.4922850818827378
2025-03-23 15:03:11.343,-1.1465880465448641
2025-03-23 15:03:11.353,-2.5403705474919125
2025-03-23 15:03:11.353,-0.9110250624489663
2025-03-23 15:03:11.353,1.6195130151190795
2025-03-23 15:03:11.353,1.9807684591554777
2025-03-23 15:03:11.353,0.03077445030347073
2025-03-23 15:03:11.362,-1.6177926401970038
2025-03-23 15:03:11.363,-1.042641717760882
2025-03-23 15:03:11.363,0.816039356557721
2025-03-23 15:03:11.363,1.5643475055215537
2025-03-23 15:03:11.363,0.27722772943998164
2025-03-23 15:03:11.372,-1.4891749455216452
2025-03-23 15:03:11.373,-1.5669005005794268
2025-03-23 15:03:11.373,0.2703073884982569
2025-03-23 15:03:11.373,1.93587712928959
2025-03-23 15:03:11.373,1.365715050396726
2025-03-23 15:03:11.382,-0.9307210381172761
2025-03-23 15:03:11.382,-2.1616977913304427
2025-03-23 15:03:11.383,-0.5299951549809657
2025-03-23 15:03:11.383,2.129735547935331
2025-03-23 15:03:11.383,2.0972095596355467
2025-03-23 15:03:11.391,-1.3356598684093846
2025-03-23 15:03:11.391,-3.983763611897897
2025-03-23 15:03:11.391,-1.5725243645714926
2025-03-23 15:03:11.391,4.015461518418225
2025-03-23 15:03:11.392,5.9003070901244286
2025-03-23 15:03:11.401,0.7194914724621309
2025-03-23 15:03:11.401,-6.266128320725773
2025-03-23 15:03:11.401,-6.9323653400396665
2025-03-23 15:03:11.401,-0.14402747097115676
2025-03-23 15:03:11.411,6.778238593002319
2025-03-23 15:03:11.411,6.66031036298093
2025-03-23 15:03:11.411,0.3128758079924399
2025-03-23 15:03:11.411,-5.3412165862150385
2025-03-23 15:03:11.411,-5.374925235763998
2025-03-23 15:03:11.420,-1.2075739172463194
2025-03-23 15:03:11.421,2.6055343029841684
2025-03-23 15:03:11.421,3.632701448675474
2025-03-23 15:03:11.421,2.5683881551787353
2025-03-23 15:03:11.421,0.5911968857045399
2025-03-23 15:03:11.431,-1.9492947878232265
2025-03-23 15:03:11.431,-4.031500828120076
2025-03-23 15:03:11.431,-3.379143445480223
2025-03-23 15:03:11.431,0.7612858447833585
2025-03-23 15:03:11.431,5.109876848233865
2025-03-23 15:03:11.441,4.940709268024974
2025-03-23 15:03:11.441,-0.22069187641033278
2025-03-23 15:03:11.441,-5.220734746244807
2025-03-23 15:03:11.441,-4.881467010930656
2025-03-23 15:03:11.441,0.04165421295205618
2025-03-23 15:03:11.451,4.0183696855436555
2025-03-23 15:03:11.451,3.394509542556137
2025-03-23 15:03:11.451,0.09673021089344824
2025-03-23 15:03:11.451,-1.7394341561796653
2025-03-23 15:03:11.451,-1.0903482534675755
2025-03-23 15:03:11.461,-0.3006291972771495
2025-03-23 15:03:11.461,-0.7996867342022609
2025-03-23 15:03:11.461,-1.013905670117547
2025-03-23 15:03:11.461,0.6029312216588301
2025-03-23 15:03:11.461,2.4689211496763166
2025-03-23 15:03:11.471,1.8301783633252784
2025-03-23 15:03:11.471,-0.9929718645615423
2025-03-23 15:03:11.471,-2.583875052689944
2025-03-23 15:03:11.471,-1.010808473966467
2025-03-23 15:03:11.471,1.447098093968589
2025-03-23 15:03:11.480,1.411257273534241
2025-03-23 15:03:11.481,-0.8707469075181863
2025-03-23 15:03:11.481,-1.8111113460702444
2025-03-23 15:03:11.481,0.3987574677211768
2025-03-23 15:03:11.481,2.8634664059199246
2025-03-23 15:03:11.490,1.6763469472126469
2025-03-23 15:03:11.491,-2.3929307896611096
2025-03-23 15:03:11.491,-4.176150096746986
2025-03-23 15:03:11.491,-0.7358669699784656
2025-03-23 15:03:11.491,4.194122639916553
2025-03-23 15:03:11.500,4.40346028938132
2025-03-23 15:03:11.501,-0.7993306424664071
2025-03-23 15:03:11.501,-5.2522271628879595
2025-03-23 15:03:11.501,-3.4883015070718635
2025-03-23 15:03:11.501,2.3256951125022116
2025-03-23 15:03:11.511,5.077249465740272
2025-03-23 15:03:11.511,1.6535953914629133
2025-03-23 15:03:11.511,-3.3426821193294143
2025-03-23 15:03:11.511,-3.7389384067963376
2025-03-23 15:03:11.511,0.4290624986544882
2025-03-23 15:03:11.520,3.558614365478392
2025-03-23 15:03:11.521,2.058503135797103
2025-03-23 15:03:11.521,-1.5766536408267702
2025-03-23 15:03:11.521,-2.9033500491276873
2025-03-23 15:03:11.521,-1.1619946653450866
2025-03-23 15:03:11.530,1.00960853440352
2025-03-23 15:03:11.531,1.7552249708952696
2025-03-23 15:03:11.531,1.4730836134612395
2025-03-23 15:03:11.531,0.7446155601593548
2025-03-23 15:03:11.531,-0.6979033849961597
2025-03-23 15:03:11.540,-2.385196378381032
2025-03-23 15:03:11.541,-2.4469465618453965
2025-03-23 15:03:11.541,0.06292552598567476
2025-03-23 15:03:11.541,3.0855587429749636
2025-03-23 15:03:11.541,3.332150921199673
2025-03-23 15:03:11.550,0.19169380034636385
2025-03-23 15:03:11.551,-3.1994343745412808
2025-03-23 15:03:11.551,-3.3231077760947643
2025-03-23 15:03:11.551,-0.2204256158784736
2025-03-23 15:03:11.551,2.6226232055378995
2025-03-23 15:03:11.560,2.3584189337553982
2025-03-23 15:03:11.560,-0.022096225042915474
2025-03-23 15:03:11.561,-1.3046405217358088
2025-03-23 15:03:11.561,-0.37582902189098344
2025-03-23 15:03:11.561,0.5496593294574392
2025-03-23 15:03:11.569,-0.4972497213711889
2025-03-23 15:03:11.569,-2.000777725427071
2025-03-23 15:03:11.569,-0.9934653855859572
2025-03-23 15:03:11.569,2.2398129121733614
2025-03-23 15:03:11.569,3.695572827462409
2025-03-23 15:03:11.579,0.7957161096228532
2025-03-23 15:03:11.579,-3.584837811055116
2025-03-23 15:03:11.579,-4.128041033752806
2025-03-23 15:03:11.579,0.21093923058452554
2025-03-23 15:03:11.588,4.471380887429531
2025-03-23 15:03:11.589,3.547734574546197
2025-03-23 15:03:11.589,-1.5308645177985363
2025-03-23 15:03:11.589,-4.7853871805076365
2025-03-23 15:03:11.589,-2.5064331731932596
2025-03-23 15:03:11.599,2.407516105518327
2025-03-23 15:03:11.599,4.215906351750077
2025-03-23 15:03:11.599,1.2989527965293388
2025-03-23 15:03:11.599,-2.3669977919630836
2025-03-23 15:03:11.599,-2.627539671654057
2025-03-23 15:03:11.608,-0.10635221975879311
2025-03-23 15:03:11.609,1.4626823892941632
2025-03-23 15:03:11.609,0.5481119220573898
2025-03-23 15:03:11.609,-0.6758714662990738
2025-03-23 15:03:11.609,-0.13679903378128358
2025-03-23 15:03:11.618,1.0459335810356465
2025-03-23 15:03:11.619,0.6298460341884976
2025-03-23 15:03:11.619,-1.0407908143106244
2025-03-23 15:03:11.619,-1.5000423006714023
2025-03-23 15:03:11.619,0.039909745596030846
2025-03-23 15:03:11.627,1.5041313310979871
2025-03-23 15:03:11.627,1.052233605972176
2025-03-23 15:03:11.627,-0.43830655852813805
2025-03-23 15:03:11.627,-1.00695712672335
2025-03-23 15:03:11.627,-0.41866245328169754
2025-03-23 15:03:11.638,0.033246097145955805
2025-03-23 15:03:11.638,-0.15215291763023334
2025-03-23 15:03:11.639,-0.08316436119487776
2025-03-23 15:03:11.639,0.7267512906979422
2025-03-23 15:03:11.639,1.2739809863936242
2025-03-23 15:03:11.647,0.4906768827669374
2025-03-23 15:03:11.647,-1.030765813809846
2025-03-23 15:03:11.647,-1.668616583329104
2025-03-23 15:03:11.647,-0.8132674496769974
2025-03-23 15:03:11.657,0.5600448281037709
2025-03-23 15:03:11.657,1.2551890310977245
2025-03-23 15:03:11.657,1.0231552014453376
2025-03-23 15:03:11.657,0.30522556698792036
2025-03-23 15:03:11.657,-0.48476883311623686
2025-03-23 15:03:11.666,-1.0764829731203092
2025-03-23 15:03:11.667,-1.1196507799795459
2025-03-23 15:03:11.667,-0.31809274618274386
2025-03-23 15:03:11.667,1.0532598271638742
2025-03-23 15:03:11.667,1.9109646069334678
2025-03-23 15:03:11.677,1.0908530128114415
2025-03-23 15:03:11.677,-1.2165425663068459
2025-03-23 15:03:11.677,-2.9189198208648284
2025-03-23 15:03:11.677,-1.778189629360423
2025-03-23 15:03:11.677,1.7428781257745523
2025-03-23 15:03:11.687,4.081166672444122
2025-03-23 15:03:11.687,2.201513521097464
2025-03-23 15:03:11.687,-2.4131414100735733
2025-03-23 15:03:11.687,-4.7955333716645185
2025-03-23 15:03:11.687,-2.2083306009602186
2025-03-23 15:03:11.696,2.445501433275463
2025-03-23 15:03:11.697,4.214812493342541
2025-03-23 15:03:11.697,2.039504900867194
2025-03-23 15:03:11.697,-0.8772551269175213
2025-03-23 15:03:11.697,-2.0378601424185985
2025-03-23 15:03:11.707,-2.1968064709022967
2025-03-23 15:03:11.707,-2.3168771096581215
2025-03-23 15:03:11.707,-0.996525405594176
2025-03-23 15:03:11.707,2.6874034239511055
2025-03-23 15:03:11.707,5.648634251782082
2025-03-23 15:03:11.716,3.5379780112494124
2025-03-23 15:03:11.717,-2.8800781307770604
2025-03-23 15:03:11.717,-7.1389665550803185
2025-03-23 15:03:11.717,-4.444527102824752
2025-03-23 15:03:11.717,2.258337709211024
2025-03-23 15:03:11.725,5.779163826259365
2025-03-23 15:03:11.725,3.337071953393996
2025-03-23 15:03:11.725,-0.8714950538699733
2025-03-23 15:03:11.726,-2.0123056957028105
2025-03-23 15:03:11.726,-0.7253864897164812
2025-03-23 15:03:11.736,-0.8443207567259821
2025-03-23 15:03:11.737,-2.716972174109308
2025-03-23 15:03:11.737,-2.284277860531913
2025-03-23 15:03:11.737,2.385525360577192
2025-03-23 15:03:11.737,6.648334791943273
2025-03-23 15:03:11.745,4.366548698413019
2025-03-23 15:03:11.745,-3.4156153856421017
2025-03-23 15:03:11.745,-8.344424491547818
2025-03-23 15:03:11.745,-4.583077977755365
2025-03-23 15:03:11.755,3.766643682157933
2025-03-23 15:03:11.755,7.471815671496365
2025-03-23 15:03:11.755,3.1262466592818354
2025-03-23 15:03:11.755,-3.476472834311154
2025-03-23 15:03:11.755,-4.977856671890734
2025-03-23 15:03:11.764,-0.9162348046634214
2025-03-23 15:03:11.765,2.88498416828355
2025-03-23 15:03:11.765,2.04812844929594
2025-03-23 15:03:11.765,-1.3982119809381046
2025-03-23 15:03:11.765,-2.332616264657496
2025-03-23 15:03:11.774,0.6078401260728312
2025-03-23 15:03:11.775,3.3364554464508926
2025-03-23 15:03:11.775,1.817262596184696
2025-03-23 15:03:11.775,-2.4206878724063507
2025-03-23 15:03:11.775,-4.107313411190325
2025-03-23 15:03:11.785,-1.1228678101914662
2025-03-23 15:03:11.785,2.78285998402618
2025-03-23 15:03:11.785,3.088914197702541
2025-03-23 15:03:11.785,0.2640734043728302
2025-03-23 15:03:11.785,-1.6022995048902644
2025-03-23 15:03:11.795,-0.7266478615401986
2025-03-23 15:03:11.795,0.5125136353156474
2025-03-23 15:03:11.795,-0.21445883775626093
2025-03-23 15:03:11.795,-1.641935879709556
2025-03-23 15:03:11.795,-1.0429039190633773
2025-03-23 15:03:11.804,1.4723154893827666
2025-03-23 15:03:11.805,2.7942482614954174
2025-03-23 15:03:11.805,1.0147196355649943
2025-03-23 15:03:11.805,-1.7982096092264102
2025-03-23 15:03:11.805,-2.158313018016533
2025-03-23 15:03:11.815,0.13401502998864553
2025-03-23 15:03:11.815,1.5423417852944916
2025-03-23 15:03:11.815,-0.24854833765783207
2025-03-23 15:03:11.815,-2.5141919986736863
2025-03-23 15:03:11.815,-0.8809080855809054
2025-03-23 15:03:11.825,3.812404388737761
2025-03-23 15:03:11.825,5.202335360971118
2025-03-23 15:03:11.825,-0.2645430802123346
2025-03-23 15:03:11.825,-7.16516340777957
2025-03-23 15:03:11.825,-6.765965618921038
2025-03-23 15:03:11.834,1.638712402003756
2025-03-23 15:03:11.835,8.785372790547676
2025-03-23 15:03:11.835,6.379656689544018
2025-03-23 15:03:11.835,-2.7106736210882088
2025-03-23 15:03:11.835,-8.030105957369178
2025-03-23 15:03:11.844,-4.235516784866857
2025-03-23 15:03:11.845,3.1105643722041068
2025-03-23 15:03:11.845,5.299179792321072
2025-03-23 15:03:11.845,1.1505854089730483
2025-03-23 15:03:11.845,-2.7970740757863775
2025-03-23 15:03:11.854,-1.642625580814057
2025-03-23 15:03:11.855,1.875176251283709
2025-03-23 15:03:11.855,2.0482246445916203
2025-03-23 15:03:11.855,-1.6490562822624262
2025-03-23 15:03:11.855,-4.008649028721041
2025-03-23 15:03:11.864,-1.3054256140497942
2025-03-23 15:03:11.865,3.6848682810068345
2025-03-23 15:03:11.865,5.103622874633033
2025-03-23 15:03:11.865,1.0070409186027485
2025-03-23 15:03:11.865,-4.486124047380209
2025-03-23 15:03:11.874,-5.701191059748144
2025-03-23 15:03:11.875,-1.268657296795829
2025-03-23 15:03:11.875,4.507921767311185
2025-03-23 15:03:11.875,5.95692647977759
2025-03-23 15:03:11.875,1.767063058339984
2025-03-23 15:03:11.883,-3.775183328641965
2025-03-23 15:03:11.883,-5.39940392432775
2025-03-23 15:03:11.883,-2.147072156457073
2025-03-23 15:03:11.883,2.3382042248950796
2025-03-23 15:03:11.884,4.046122011468916
2025-03-23 15:03:11.894,2.2038458877441034
2025-03-23 15:03:11.895,-0.9187791291338644
2025-03-23 15:03:11.895,-2.614808708383195
2025-03-23 15:03:11.895,-1.8964802976016293
2025-03-23 15:03:11.895,0.1534202719863348
2025-03-23 15:03:11.903,1.606508390527893
2025-03-23 15:03:11.903,1.408294047062696
2025-03-23 15:03:11.903,0.12929598137809983
2025-03-23 15:03:11.903,-0.909840305310728
2025-03-23 15:03:11.913,-1.0190905618198076
2025-03-23 15:03:11.913,-0.4372753156537133
2025-03-23 15:03:11.913,0.3518364476416072
2025-03-23 15:03:11.913,0.9610046093056174
2025-03-23 15:03:11.914,0.8980030315443662
2025-03-23 15:03:11.914,-0.12572126972579528
2025-03-23 15:03:11.923,-1.3701013579841694
2025-03-23 15:03:11.923,-1.3039492605415997
2025-03-23 15:03:11.923,0.5318529768393534
2025-03-23 15:03:11.923,2.247057141591645
2025-03-23 15:03:11.932,1.3807085973166595
2025-03-23 15:03:11.933,-1.670123361736293
2025-03-23 15:03:11.933,-3.2655618283690173
2025-03-23 15:03:11.933,-0.831178894954191
2025-03-23 15:03:11.933,3.2329693620644133
2025-03-23 15:03:11.942,3.865023848131196
2025-03-23 15:03:11.943,-0.2580805060904564
2025-03-23 15:03:11.943,-4.533658112323329
2025-03-23 15:03:11.943,-3.80752367654925
2025-03-23 15:03:11.943,1.2738956731393003
2025-03-23 15:03:11.952,4.967086005960293
2025-03-23 15:03:11.953,3.2576114713155118
2025-03-23 15:03:11.953,-1.6475188826609473
2025-03-23 15:03:11.953,-4.311667064446178
2025-03-23 15:03:11.953,-2.4046678866469122
2025-03-23 15:03:11.961,1.2513595950095955
2025-03-23 15:03:11.961,2.675390669675889
2025-03-23 15:03:11.961,1.2784321802050362
2025-03-23 15:03:11.961,-0.37156633792742555
2025-03-23 15:03:11.962,-0.42960666383032553
2025-03-23 15:03:11.971,0.12451826580344799
2025-03-23 15:03:11.971,-0.4345606999972902
2025-03-23 15:03:11.971,-1.70893190001302
2025-03-23 15:03:11.971,-1.62808594440166
2025-03-23 15:03:11.981,0.5553082214368971
2025-03-23 15:03:11.981,2.9045438768614535
2025-03-23 15:03:11.981,2.8529416389916022
2025-03-23 15:03:11.981,0.11927785433868282
2025-03-23 15:03:11.981,-2.8291669904665073
2025-03-23 15:03:11.991,-3.207961684596729
2025-03-23 15:03:11.991,-0.7692577920666581
2025-03-23 15:03:11.991,1.8733732408180415
2025-03-23 15:03:11.991,2.0765716698898506
2025-03-23 15:03:11.992,0.2509133094156309
2025-03-23 15:03:12.001,-0.6911801582461926
2025-03-23 15:03:12.001,0.618656386075273
2025-03-23 15:03:12.001,1.7096834000078258
2025-03-23 15:03:12.001,-0.3734864462379266
2025-03-23 15:03:12.001,-4.0266510266663955
2025-03-23 15:03:12.011,-4.045386897373937
2025-03-23 15:03:12.011,1.31186246388386
2025-03-23 15:03:12.011,6.617527584430352
2025-03-23 15:03:12.011,5.221586501901967
2025-03-23 15:03:12.011,-2.068988766690412
2025-03-23 15:03:12.020,-7.2457562936990305
2025-03-23 15:03:12.021,-4.580229054502181
2025-03-23 15:03:12.021,2.5997126314338233
2025-03-23 15:03:12.021,6.178433255518026
2025-03-23 15:03:12.021,2.7797548555754483
2025-03-23 15:03:12.031,-3.048440216642605
2025-03-23 15:03:12.031,-4.785600651654148
2025-03-23 15:03:12.031,-1.1135743718751272
2025-03-23 15:03:12.031,3.482794666230079
2025-03-23 15:03:12.031,4.10268756318591
2025-03-23 15:03:12.041,0.40739463498048134
2025-03-23 15:03:12.041,-3.5552412214829414
2025-03-23 15:03:12.041,-3.835167491790723
2025-03-23 15:03:12.041,-0.5458482182787397
2025-03-23 15:03:12.041,2.6929584403242854
2025-03-23 15:03:12.051,2.9496191146248085
2025-03-23 15:03:12.051,0.8993220191025507
2025-03-23 15:03:12.051,-0.7734590476409511
2025-03-23 15:03:12.051,-1.0091371814792267
2025-03-23 15:03:12.051,-1.0697688845153286
2025-03-23 15:03:12.061,-1.6674409169936246
2025-03-23 15:03:12.061,-1.2678318436495664
2025-03-23 15:03:12.061,1.3152125905003764
2025-03-23 15:03:12.061,3.8369213033010716
2025-03-23 15:03:12.061,2.619604504797852
2025-03-23 15:03:12.071,-2.0632349038520035
2025-03-23 15:03:12.071,-5.027860735146197
2025-03-23 15:03:12.071,-2.3149370197784798
2025-03-23 15:03:12.071,3.2078558875333134
2025-03-23 15:03:12.071,4.8760929586518715
2025-03-23 15:03:12.080,0.6551304450101985
2025-03-23 15:03:12.081,-4.12425099238019
2025-03-23 15:03:12.081,-3.6062831986656874
2025-03-23 15:03:12.081,1.195115502234221
2025-03-23 15:03:12.081,4.137488557937059
2025-03-23 15:03:12.091,2.0074032155619426
2025-03-23 15:03:12.091,-1.9858806371197635
2025-03-23 15:03:12.091,-3.0898261094618813
2025-03-23 15:03:12.091,-0.8520929197946127
2025-03-23 15:03:12.091,1.420704130435109
2025-03-23 15:03:12.100,1.4845833307189378
2025-03-23 15:03:12.101,0.32581332072066765
2025-03-23 15:03:12.101,-0.21222027326015125
2025-03-23 15:03:12.101,-0.028976620331310765
2025-03-23 15:03:12.101,-0.18206108664669451
2025-03-23 15:03:12.110,-0.7981591607072651
2025-03-23 15:03:12.111,-0.8033439529545039
2025-03-23 15:03:12.111,0.3154054294184202
2025-03-23 15:03:12.111,1.3800003105428496
2025-03-23 15:03:12.111,0.8142114181238789
2025-03-23 15:03:12.119,-1.052194564873248
2025-03-23 15:03:12.119,-1.8335403355519608
2025-03-23 15:03:12.119,-0.01041501866536551
2025-03-23 15:03:12.120,2.517403944690313
2025-03-23 15:03:12.120,2.2497378086119704
2025-03-23 15:03:12.129,-1.2415901409432284
2025-03-23 15:03:12.129,-4.007404455391292
2025-03-23 15:03:12.129,-2.3180190359907
2025-03-23 15:03:12.130,2.3586568151479272
2025-03-23 15:03:12.139,4.694047609551028
2025-03-23 15:03:12.139,1.870617290404827
2025-03-23 15:03:12.139,-2.943875640910963
2025-03-23 15:03:12.139,-4.3871407527533846
2025-03-23 15:03:12.139,-1.185694792507967
2025-03-23 15:03:12.149,2.748834408322465
2025-03-23 15:03:12.149,3.2993836196942676
2025-03-23 15:03:12.149,0.6723881431744663
2025-03-23 15:03:12.149,-1.7324197374243695
2025-03-23 15:03:12.149,-1.7641385023051999
2025-03-23 15:03:12.159,-0.3925004079834634
2025-03-23 15:03:12.159,0.48195802610434374
2025-03-23 15:03:12.159,0.421851628274125
2025-03-23 15:03:12.159,0.1022203302905817
2025-03-23 15:03:12.159,-0.12461741750975386
2025-03-23 15:03:12.168,-0.2052203864774419
2025-03-23 15:03:12.169,0.2687894193063885
2025-03-23 15:03:12.169,1.3334518435346678
2025-03-23 15:03:12.169,1.6242068405496042
2025-03-23 15:03:12.169,-0.33947762269790044
2025-03-23 15:03:12.179,-3.466683236873229
2025-03-23 15:03:12.179,-4.155656031981825
2025-03-23 15:03:12.179,-0.334744473603702
2025-03-23 15:03:12.179,5.101528394794897
2025-03-23 15:03:12.179,6.472364646184201
2025-03-23 15:03:12.188,1.5583042198474688
2025-03-23 15:03:12.189,-5.252894213772708
2025-03-23 15:03:12.189,-7.204664269467883
2025-03-23 15:03:12.189,-2.4496869356055115
2025-03-23 15:03:12.189,3.956822510008754
2025-03-23 15:03:12.197,5.732556561946622
2025-03-23 15:03:12.197,2.106648632566412
2025-03-23 15:03:12.197,-2.0998120917090484
2025-03-23 15:03:12.198,-2.620648412348902
2025-03-23 15:03:12.198,-0.3592252751629968
2025-03-23 15:03:12.207,0.794366174744947
2025-03-23 15:03:12.207,-0.58299134783761
2025-03-23 15:03:12.207,-1.9372605538435688
2025-03-23 15:03:12.207,-0.6507856639809998
2025-03-23 15:03:12.217,2.236650857816291
2025-03-23 15:03:12.217,3.370569988657173
2025-03-23 15:03:12.217,1.3999791359681841
2025-03-23 15:03:12.217,-1.5213937117354168
2025-03-23 15:03:12.217,-2.7202041760153994
2025-03-23 15:03:12.227,-2.0964603125631345
2025-03-23 15:03:12.227,-1.2170762819475809
2025-03-23 15:03:12.227,-0.3363518115315525
2025-03-23 15:03:12.227,1.7104017786329748
2025-03-23 15:03:12.227,4.424196293640112
2025-03-23 15:03:12.236,4.583084510257965
2025-03-23 15:03:12.237,0.08491144790747858
2025-03-23 15:03:12.237,-6.004455760385643
2025-03-23 15:03:12.237,-7.566176884071239
2025-03-23 15:03:12.237,-2.318784925151383
2025-03-23 15:03:12.247,4.938503114293694
2025-03-23 15:03:12.247,7.311218353577066
2025-03-23 15:03:12.247,3.2972991918556795
2025-03-23 15:03:12.247,-2.1796777636198525
2025-03-23 15:03:12.247,-3.9766637980616126
2025-03-23 15:03:12.257,-2.1475464653518705
2025-03-23 15:03:12.257,-0.3374605924127973
2025-03-23 15:03:12.257,-0.32769867531023944
2025-03-23 15:03:12.257,-0.31164129286826564
2025-03-23 15:03:12.257,1.4069047043211491
2025-03-23 15:03:12.266,3.209996902513268
2025-03-23 15:03:12.267,2.2565883131749906
2025-03-23 15:03:12.267,-1.1965966428175552
2025-03-23 15:03:12.267,-3.5775292980000875
2025-03-23 15:03:12.267,-2.3947547341565376
2025-03-23 15:03:12.276,0.6809442817863585
2025-03-23 15:03:12.277,2.0892465750523934
2025-03-23 15:03:12.277,0.8231234147163573
2025-03-23 15:03:12.277,-0.7450385432329276
2025-03-23 15:03:12.277,-0.3420583960885378
2025-03-23 15:03:12.285,1.2775900387132553
2025-03-23 15:03:12.285,1.5896344867434105
2025-03-23 15:03:12.285,-0.30784450182444567
2025-03-23 15:03:12.285,-2.570741755347118
2025-03-23 15:03:12.295,-2.7766925454404303
2025-03-23 15:03:12.295,-0.4932898527800863
2025-03-23 15:03:12.295,2.4427580896042924
2025-03-23 15:03:12.295,3.6702996519955415
2025-03-23 15:03:12.296,2.106190420092269
2025-03-23 15:03:12.296,-1.3401766005752112
2025-03-23 15:03:12.305,-4.0993572387061
2025-03-23 15:03:12.305,-3.4667816289565785
2025-03-23 15:03:12.305,0.7201303430295871
2025-03-23 15:03:12.305,4.649731980017474
2025-03-23 15:03:12.314,3.6294901015689383
2025-03-23 15:03:12.315,-2.047303477039592
2025-03-23 15:03:12.315,-5.937294520021244
2025-03-23 15:03:12.315,-2.533953183680396
2025-03-23 15:03:12.315,5.118148124055185
2025-03-23 15:03:12.323,7.835936542913357
2025-03-23 15:03:12.323,1.2627894311673484
2025-03-23 15:03:12.323,-7.982740714400062
2025-03-23 15:03:12.323,-9.394217155281737
2025-03-23 15:03:12.324,-0.8763725198292243
2025-03-23 15:03:12.333,8.629005603502797
2025-03-23 15:03:12.333,9.336907566076558
2025-03-23 15:03:12.333,1.316800543540348
2025-03-23 15:03:12.333,-6.556857936801257
2025-03-23 15:03:12.343,-7.0512120341237035
2025-03-23 15:03:12.343,-1.6433998207593583
2025-03-23 15:03:12.343,2.9844032812941768
2025-03-23 15:03:12.343,3.179918613094743
2025-03-23 15:03:12.344,1.13306564592968
2025-03-23 15:03:12.353,0.315884449766709
2025-03-23 15:03:12.353,0.7450401188987664
2025-03-23 15:03:12.353,0.06581262737915412
2025-03-23 15:03:12.353,-2.129538949124857
2025-03-23 15:03:12.354,-3.2724577752557336
2025-03-23 15:03:12.363,-1.3440448843694406
2025-03-23 15:03:12.363,2.1437234169093156
2025-03-23 15:03:12.363,3.756619065811514
2025-03-23 15:03:12.363,2.1117245063182084
2025-03-23 15:03:12.363,-0.8382173224980571
2025-03-23 15:03:12.373,-2.4115800352495143
2025-03-23 15:03:12.373,-2.0035658123279045
2025-03-23 15:03:12.373,-0.829860706105627
2025-03-23 15:03:12.373,0.1715399482662207
2025-03-23 15:03:12.374,1.0578953573289889
2025-03-23 15:03:12.382,1.784267666624459
2025-03-23 15:03:12.383,1.6549246081937317
2025-03-23 15:03:12.383,0.338317892384835
2025-03-23 15:03:12.383,-1.3395315724736963
2025-03-23 15:03:12.383,-2.175381205355346
2025-03-23 15:03:12.393,-1.7064659602388816
2025-03-23 15:03:12.393,-0.23890796386356283
2025-03-23 15:03:12.393,1.551516398869479
2025-03-23 15:03:12.393,2.589242808693819
2025-03-23 15:03:12.394,1.8120517080025675
2025-03-23 15:03:12.403,-0.5318580769425664
2025-03-23 15:03:12.403,-2.5335654218258683
2025-03-23 15:03:12.403,-2.430360679276133
2025-03-23 15:03:12.403,-0.4938747401385827
2025-03-23 15:03:12.403,1.467947762644901
2025-03-23 15:03:12.413,2.0983084559929206
2025-03-23 15:03:12.413,1.3800181628060957
2025-03-23 15:03:12.413,0.0021086657232956205
2025-03-23 15:03:12.413,-1.2836699006701355
2025-03-23 15:03:12.414,-1.768454829545691
2025-03-23 15:03:12.422,-1.0850871543389398
2025-03-23 15:03:12.423,0.3078083660773924
2025-03-23 15:03:12.423,1.3792856536396105
2025-03-23 15:03:12.423,1.4686639343956918
2025-03-23 15:03:12.423,0.7063581947154784
2025-03-23 15:03:12.433,-0.42368272289044123
2025-03-23 15:03:12.433,-1.3985828771118416
2025-03-23 15:03:12.433,-1.5618854886299307
2025-03-23 15:03:12.433,-0.5036786326425852
2025-03-23 15:03:12.433,1.1380123402880074
2025-03-23 15:03:12.443,1.8837968298511674
2025-03-23 15:03:12.443,0.9328068363466546
2025-03-23 15:03:12.443,-0.8073052827111936
2025-03-23 15:03:12.443,-1.6095648016621567
2025-03-23 15:03:12.443,-0.7656215367082518
2025-03-23 15:03:12.453,0.7025433019581088
2025-03-23 15:03:12.453,1.183197314271811
2025-03-23 15:03:12.453,0.21057152292910059
2025-03-23 15:03:12.453,-1.0435094447886626
2025-03-23 15:03:12.454,-1.0658990172499094
2025-03-23 15:03:12.462,0.29853214677702167
2025-03-23 15:03:12.463,1.630013799653967
2025-03-23 15:03:12.463,1.4389921783353379
2025-03-23 15:03:12.463,-0.28072151102377707
2025-03-23 15:03:12.463,-2.034573275702239
2025-03-23 15:03:12.473,-2.205152018999946
2025-03-23 15:03:12.473,-0.48483766223824876
2025-03-23 15:03:12.473,1.8068397798130138
2025-03-23 15:03:12.473,2.8006571947947743
2025-03-23 15:03:12.473,1.6933171387684298
2025-03-23 15:03:12.481,-0.6178309195033469
2025-03-23 15:03:12.481,-2.4528298484620032
2025-03-23 15:03:12.482,-2.6708955347600774
2025-03-23 15:03:12.482,-1.1976237204454765
2025-03-23 15:03:12.482,1.073272007575444
2025-03-23 15:03:12.493,2.655090852216616
2025-03-23 15:03:12.493,2.440770948328074
2025-03-23 15:03:12.493,0.7472545282680105
2025-03-23 15:03:12.493,-1.0562170221889036
2025-03-23 15:03:12.493,-2.082408451823767
2025-03-23 15:03:12.503,-2.3803320951576867
2025-03-23 15:03:12.503,-1.826029304181642
2025-03-23 15:03:12.503,0.17363698282152437
2025-03-23 15:03:12.503,3.109890192546666
2025-03-23 15:03:12.503,4.548441510631284
2025-03-23 15:03:12.511,2.3327152931389543
2025-03-23 15:03:12.511,-2.396828651524
2025-03-23 15:03:12.511,-5.549113463581361
2025-03-23 15:03:12.512,-4.094592311485757
2025-03-23 15:03:12.512,0.6835670422179511
2025-03-23 15:03:12.521,4.438332962676867
2025-03-23 15:03:12.521,4.0990858447194825
2025-03-23 15:03:12.521,0.6563254840453976
2025-03-23 15:03:12.521,-2.2555769123997504
2025-03-23 15:03:12.531,-2.222780431010389
2025-03-23 15:03:12.531,-0.33229904785609876
2025-03-23 15:03:12.531,0.4772594573870425
2025-03-23 15:03:12.531,-0.800632658499316
2025-03-23 15:03:12.532,-1.8005578487387832
2025-03-23 15:03:12.532,0.11354768433630162
2025-03-23 15:03:12.541,3.709640327537575
2025-03-23 15:03:12.541,4.4619826271760425
2025-03-23 15:03:12.541,0.17199108070851157
2025-03-23 15:03:12.542,-5.269797157046979
2025-03-23 15:03:12.551,-5.733282916312059
2025-03-23 15:03:12.551,-0.35648820406552345
2025-03-23 15:03:12.551,4.940810928158478
2025-03-23 15:03:12.551,4.481271935636478
2025-03-23 15:03:12.552,-0.34063644618689926
2025-03-23 15:03:12.561,-3.2314821005772223
2025-03-23 15:03:12.561,-1.2318767339107963
2025-03-23 15:03:12.561,1.8768579803660959
2025-03-23 15:03:12.561,1.2588769231195562
2025-03-23 15:03:12.561,-2.2097136600786556
2025-03-23 15:03:12.571,-3.3273633293462814
2025-03-23 15:03:12.571,0.0694145583916354
2025-03-23 15:03:12.571,4.0230571290442425
2025-03-23 15:03:12.571,3.664159523908467
2025-03-23 15:03:12.572,-0.5544161429104602
2025-03-23 15:03:12.581,-3.6806694086482152
2025-03-23 15:03:12.581,-2.5498685877736467
2025-03-23 15:03:12.581,0.7033968197923783
2025-03-23 15:03:12.581,1.923000798060268
2025-03-23 15:03:12.581,0.3219450296973989
2025-03-23 15:03:12.591,-0.9767552216521066
2025-03-23 15:03:12.591,0.3137463000982034
2025-03-23 15:03:12.591,2.1893305657397133
2025-03-23 15:03:12.591,1.148032983414078
2025-03-23 15:03:12.591,-2.3986872962268415
2025-03-23 15:03:12.601,-3.889913841210646
2025-03-23 15:03:12.601,-0.6474526225421384
2025-03-23 15:03:12.601,3.858867563513549
2025-03-23 15:03:12.601,3.9805667586111144
2025-03-23 15:03:12.602,-0.6682372850369316
2025-03-23 15:03:12.611,-4.412550991189196
2025-03-23 15:03:12.611,-2.707104988282757
2025-03-23 15:03:12.611,2.1953629366410925
2025-03-23 15:03:12.611,4.322008102820276
2025-03-23 15:03:12.612,1.3429785799896092
2025-03-23 15:03:12.620,-3.075140305681112
2025-03-23 15:03:12.621,-4.0256664318636775
2025-03-23 15:03:12.621,-0.8506226490770215
2025-03-23 15:03:12.621,2.7696020857170507
2025-03-23 15:03:12.621,3.3463542838684845
2025-03-23 15:03:12.631,1.075680524926942
2025-03-23 15:03:12.631,-1.2938952370104988
2025-03-23 15:03:12.631,-1.9782681748309128
2025-03-23 15:03:12.631,-1.4603622613291407
2025-03-23 15:03:12.631,-0.6989239293235191
2025-03-23 15:03:12.640,0.35198751789746396
2025-03-23 15:03:12.641,1.7308894090487401
2025-03-23 15:03:12.641,2.237643897343604
2025-03-23 15:03:12.641,0.7205079095700517
2025-03-23 15:03:12.641,-1.7603136640856754
2025-03-23 15:03:12.651,-2.6102126831542987
2025-03-23 15:03:12.651,-0.8960020508368884
2025-03-23 15:03:12.651,1.3714470553620572
2025-03-23 15:03:12.651,1.8277736448338446
2025-03-23 15:03:12.651,0.595478131946327
2025-03-23 15:03:12.660,-0.478410008455971
2025-03-23 15:03:12.661,-0.6184751350349704
2025-03-23 15:03:12.661,-0.6475004480632991
2025-03-23 15:03:12.661,-0.888807840760942
2025-03-23 15:03:12.661,-0.3000984597801672
2025-03-23 15:03:12.669,1.4907535485213503
2025-03-23 15:03:12.669,2.613693345806927
2025-03-23 15:03:12.670,0.9558653852799532
2025-03-23 15:03:12.670,-2.5974262308895617
2025-03-23 15:03:12.670,-4.369294898794064
2025-03-23 15:03:12.681,-1.874005089543038
2025-03-23 15:03:12.681,3.041478522763749
2025-03-23 15:03:12.681,5.650172467700388
2025-03-23 15:03:12.681,3.0609710708209272
2025-03-23 15:03:12.681,-2.586519017420958
2025-03-23 15:03:12.691,-5.91065140969234
2025-03-23 15:03:12.691,-3.6649351187682337
2025-03-23 15:03:12.691,1.7564845551559871
2025-03-23 15:03:12.691,4.79499084464628
2025-03-23 15:03:12.691,2.8141926901237633
2025-03-23 15:03:12.699,-1.171435314192954
2025-03-23 15:03:12.699,-2.475043569389092
2025-03-23 15:03:12.699,-0.4779866578353593
2025-03-23 15:03:12.700,1.1655537013165125
2025-03-23 15:03:12.709,-0.1333393696024328
2025-03-23 15:03:12.709,-2.3788477576754876
2025-03-23 15:03:12.709,-1.896670796238068
2025-03-23 15:03:12.709,1.5861319724175087
2025-03-23 15:03:12.709,4.435554389303353
2025-03-23 15:03:12.719,3.3808671238949697
2025-03-23 15:03:12.719,-0.966961845682922
2025-03-23 15:03:12.719,-4.895109472141521
2025-03-23 15:03:12.719,-5.0343793234633
2025-03-23 15:03:12.719,-1.11599559958125
2025-03-23 15:03:12.729,3.7870902185737862
2025-03-23 15:03:12.729,5.661472978891772
2025-03-23 15:03:12.729,3.021335510030663
2025-03-23 15:03:12.729,-1.6883212328259913
2025-03-23 15:03:12.729,-4.5077424643817015
2025-03-23 15:03:12.739,-3.683823833511747
2025-03-23 15:03:12.739,-0.6073693197711227
2025-03-23 15:03:12.739,2.2874145680967692
2025-03-23 15:03:12.739,3.400237466699131
2025-03-23 15:03:12.740,2.1958460166716143
2025-03-23 15:03:12.749,-0.6613922923723806
2025-03-23 15:03:12.749,-2.998849648714106
2025-03-23 15:03:12.749,-2.5179753114873105
2025-03-23 15:03:12.749,0.5261058621602812
2025-03-23 15:03:12.749,2.943624860715445
2025-03-23 15:03:12.759,1.971185304556081
2025-03-23 15:03:12.759,-1.3735079150749159
2025-03-23 15:03:12.759,-3.2643557665674625
2025-03-23 15:03:12.759,-1.4445812902247126
2025-03-23 15:03:12.760,2.155436320739059
2025-03-23 15:03:12.769,3.6163119001699244
2025-03-23 15:03:12.769,1.3987011561203053
2025-03-23 15:03:12.769,-2.1167128472598566
2025-03-23 15:03:12.769,-3.426740190577078
2025-03-23 15:03:12.769,-1.6394368652315232
2025-03-23 15:03:12.779,1.0259607446465657
2025-03-23 15:03:12.779,2.1713153140282353
2025-03-23 15:03:12.779,1.7140868560554345
2025-03-23 15:03:12.779,0.9439550358129106
2025-03-23 15:03:12.779,0.10617347201782763
2025-03-23 15:03:12.789,-1.463770097038058
2025-03-23 15:03:12.789,-3.008642032174301
2025-03-23 15:03:12.789,-2.2989185757873205
2025-03-23 15:03:12.789,1.0418007954318
2025-03-23 15:03:12.789,3.832898622811946
2025-03-23 15:03:12.799,2.832217296948505
2025-03-23 15:03:12.799,-0.8106124595834502
2025-03-23 15:03:12.799,-2.725449067511786
2025-03-23 15:03:12.799,-1.0646159211305377
2025-03-23 15:03:12.799,1.1317733831060295
2025-03-23 15:03:12.809,0.4623541591095593
2025-03-23 15:03:12.809,-1.829494414643314
2025-03-23 15:03:12.809,-1.6936119643176841
2025-03-23 15:03:12.809,1.5609892354532677
2025-03-23 15:03:12.809,3.751325253031236
2025-03-23 15:03:12.817,1.4922610390767783
2025-03-23 15:03:12.817,-2.7571903733242715
2025-03-23 15:03:12.817,-3.590278520458804
2025-03-23 15:03:12.818,0.11163615918597147
2025-03-23 15:03:12.818,3.4525412226431187
2025-03-23 15:03:12.827,1.9066338343775822
2025-03-23 15:03:12.827,-2.5835192741385535
2025-03-23 15:03:12.827,-3.9846618693211133
2025-03-23 15:03:12.828,-0.025866490544856457
2025-03-23 15:03:12.837,4.689028719699611
2025-03-23 15:03:12.837,4.3247700134041125
2025-03-23 15:03:12.837,-1.006132110925245
2025-03-23 15:03:12.838,-5.433726371981709
2025-03-23 15:03:12.838,-4.295419930003082
2025-03-23 15:03:12.847,0.8131973890552039
2025-03-23 15:03:12.847,4.481465802867928
2025-03-23 15:03:12.847,3.6635431202702224
2025-03-23 15:03:12.847,0.20206315232958652
2025-03-23 15:03:12.847,-2.2409322995185916
2025-03-23 15:03:12.857,-2.21697142696227
2025-03-23 15:03:12.857,-0.9997826409083478
2025-03-23 15:03:12.857,-0.18740478672235836
2025-03-23 15:03:12.857,0.07330988786272614
2025-03-23 15:03:12.858,0.5894332663609253
2025-03-23 15:03:12.866,1.6177305933432646
2025-03-23 15:03:12.867,2.20405791900234
2025-03-23 15:03:12.867,1.0780914860196547
2025-03-23 15:03:12.867,-1.6246450337848852
2025-03-23 15:03:12.867,-3.7420117364292977
2025-03-23 15:03:12.877,-2.9463100562916957
2025-03-23 15:03:12.877,0.5290195822287588
2025-03-23 15:03:12.877,3.7338640394405096
2025-03-23 15:03:12.877,3.9489987796675563
2025-03-23 15:03:12.877,1.2155430213092986
2025-03-23 15:03:12.887,-2.211409823881698
2025-03-23 15:03:12.887,-4.002001207529335
2025-03-23 15:03:12.887,-3.0515088406988826
2025-03-23 15:03:12.887,0.1186853331564632
2025-03-23 15:03:12.887,3.354993991844323
2025-03-23 15:03:12.897,4.094842071184798
2025-03-23 15:03:12.897,1.6763259478235542
2025-03-23 15:03:12.897,-1.7976458830785007
2025-03-23 15:03:12.897,-3.5157934195639786
2025-03-23 15:03:12.897,-2.6492125917988654
2025-03-23 15:03:12.905,-0.5963134722916342
2025-03-23 15:03:12.905,1.0495045552373332
2025-03-23 15:03:12.905,2.058619799586154
2025-03-23 15:03:12.906,2.8984023532672136
2025-03-23 15:03:12.906,2.967823190546755
2025-03-23 15:03:12.915,0.5741053017372543
2025-03-23 15:03:12.915,-4.244934093756668
2025-03-23 15:03:12.915,-7.478133802249518
2025-03-23 15:03:12.916,-4.2583102746602695
2025-03-23 15:03:12.925,4.432155974967978
2025-03-23 15:03:12.925,10.434324614806888
2025-03-23 15:03:12.925,6.736774465974647
2025-03-23 15:03:12.925,-3.607019893659024
2025-03-23 15:03:12.925,-10.00343541767779
2025-03-23 15:03:12.935,-6.285970025471993
2025-03-23 15:03:12.935,2.498277459473261
2025-03-23 15:03:12.935,6.656961099112278
2025-03-23 15:03:12.935,3.1244378458629485
2025-03-23 15:03:12.935,-2.2442850110021126
2025-03-23 15:03:12.945,-2.912649013952654
2025-03-23 15:03:12.945,0.7020346656885532
2025-03-23 15:03:12.945,3.070882115515902
2025-03-23 15:03:12.945,1.0732634833997272
2025-03-23 15:03:12.945,-2.7475188578485525
2025-03-23 15:03:12.955,-4.083007357213251
2025-03-23 15:03:12.955,-1.7307864036303198
2025-03-23 15:03:12.955,2.043180490479605
2025-03-23 15:03:12.955,4.28668917171211
2025-03-23 15:03:12.955,3.513218545781401
2025-03-23 15:03:12.965,0.300536943436154
2025-03-23 15:03:12.965,-3.0719581665275193
2025-03-23 15:03:12.965,-4.134398412911545
2025-03-23 15:03:12.965,-2.2830133537435127
2025-03-23 15:03:12.965,0.72600940375145
2025-03-23 15:03:12.975,2.5593680582187295
2025-03-23 15:03:12.975,2.360081750713448
2025-03-23 15:03:12.975,1.0532129504558512
2025-03-23 15:03:12.975,0.040489179578536594
2025-03-23 15:03:12.975,-0.25724647344463764
2025-03-23 15:03:12.983,-0.613093173151785
2025-03-23 15:03:12.983,-1.6202539323856875
2025-03-23 15:03:12.983,-2.3739764558602454
2025-03-23 15:03:12.984,-1.3976803279621408
2025-03-23 15:03:12.984,1.0512823835370904
2025-03-23 15:03:12.995,2.8314602130279116
2025-03-23 15:03:12.995,2.5520811908729266
2025-03-23 15:03:12.995,1.079395154433401
2025-03-23 15:03:12.995,-0.27319507610877125
2025-03-23 15:03:12.995,-1.553941714216375
2025-03-23 15:03:13.003,-2.915965929455466
2025-03-23 15:03:13.003,-2.9583956230969806
2025-03-23 15:03:13.004,-0.40995211068957316
2025-03-23 15:03:13.004,3.0311836222812714
2025-03-23 15:03:13.004,3.8428422408817786
2025-03-23 15:03:13.015,1.180399097074935
2025-03-23 15:03:13.015,-1.6983612915032706
2025-03-23 15:03:13.015,-1.6475508050006717
2025-03-23 15:03:13.015,0.24479357078379058
2025-03-23 15:03:13.015,0.45496034706232424
2025-03-23 15:03:13.025,-1.8296002811864125
2025-03-23 15:03:13.025,-3.3366165109037156
2025-03-23 15:03:13.025,-0.8989212038386677
2025-03-23 15:03:13.025,4.162769067897975
2025-03-23 15:03:13.025,6.780990844912405
2025-03-23 15:03:13.033,3.3378840573523383
2025-03-23 15:03:13.033,-4.072438422326996
2025-03-23 15:03:13.034,-8.903818034269838
2025-03-23 15:03:13.034,-6.2593206873832585
2025-03-23 15:03:13.034,1.961197817961919
2025-03-23 15:03:13.043,8.434855570112045
2025-03-23 15:03:13.043,7.479534349893019
2025-03-23 15:03:13.044,0.5929500977276205
