timestamp,bandpass_and_notch
2025-03-23 14:50:35.458,-0.25316924212432723
2025-03-23 14:50:35.458,5.090479524549535
2025-03-23 14:50:35.458,6.812789999089228
2025-03-23 14:50:35.458,-1.3329337817670053
2025-03-23 14:50:35.467,-15.817394771727736
2025-03-23 14:50:35.468,-17.50474118297911
2025-03-23 14:50:35.468,5.8078405453240824
2025-03-23 14:50:35.468,34.397847736016175
2025-03-23 14:50:35.468,31.951810604714453
2025-03-23 14:50:35.476,-8.70327385765164
2025-03-23 14:50:35.476,-48.78458041839503
2025-03-23 14:50:35.476,-43.99770048786271
2025-03-23 14:50:35.476,3.8467662050952582
2025-03-23 14:50:35.485,47.32887003535503
2025-03-23 14:50:35.486,45.53420978280658
2025-03-23 14:50:35.486,5.7926482262865004
2025-03-23 14:50:35.486,-30.215595140755493
2025-03-23 14:50:35.486,-33.39863153138901
2025-03-23 14:50:35.495,-11.69889920146246
2025-03-23 14:50:35.496,8.528293795467048
2025-03-23 14:50:35.496,13.64925124594684
2025-03-23 14:50:35.496,9.994757455920926
2025-03-23 14:50:35.496,7.259859335180884
2025-03-23 14:50:35.503,5.146816027678003
2025-03-23 14:50:35.504,-1.4983529243785503
2025-03-23 14:50:35.504,-11.056317240584947
2025-03-23 14:50:35.504,-14.83046881017256
2025-03-23 14:50:35.513,-7.7579506384379355
2025-03-23 14:50:35.514,4.7801421465811735
2025-03-23 14:50:35.514,12.512330816798215
2025-03-23 14:50:35.514,10.68571873365424
2025-03-23 14:50:35.514,3.1998845179205047
2025-03-23 14:50:35.522,-3.362146649854783
2025-03-23 14:50:35.522,-6.188183069608273
2025-03-23 14:50:35.522,-6.299656585532286
2025-03-23 14:50:35.522,-4.70981773961302
2025-03-23 14:50:35.523,-1.1135231368173906
2025-03-23 14:50:35.532,3.760822427690443
2025-03-23 14:50:35.532,6.834768353109263
2025-03-23 14:50:35.532,5.352057693183474
2025-03-23 14:50:35.532,0.32109635870716746
2025-03-23 14:50:35.533,-4.063910894078027
2025-03-23 14:50:35.542,-4.636116530214977
2025-03-23 14:50:35.542,-2.0865426623010155
2025-03-23 14:50:35.542,0.5733534779860066
2025-03-23 14:50:35.542,1.4937924500891067
2025-03-23 14:50:35.552,1.2866279931148639
2025-03-23 14:50:35.552,1.2666102486122723
2025-03-23 14:50:35.552,1.3603217392907432
2025-03-23 14:50:35.552,0.4182861967318561
2025-03-23 14:50:35.552,-1.6145060644325708
2025-03-23 14:50:35.562,-2.8735420177412063
2025-03-23 14:50:35.562,-1.6587842169562368
2025-03-23 14:50:35.562,1.2001109356297033
2025-03-23 14:50:35.562,3.055004621610947
2025-03-23 14:50:35.562,2.384613177586603
2025-03-23 14:50:35.572,0.10242308377283722
2025-03-23 14:50:35.572,-2.028027576642197
2025-03-23 14:50:35.572,-3.0743990654405255
2025-03-23 14:50:35.572,-2.619537625503027
2025-03-23 14:50:35.572,-0.20351519352663758
2025-03-23 14:50:35.573,3.4455475609386306
2025-03-23 14:50:35.582,5.382317793491255
2025-03-23 14:50:35.582,2.8138989197972837
2025-03-23 14:50:35.582,-2.9249369630156554
2025-03-23 14:50:35.582,-6.515647040851543
2025-03-23 14:50:35.592,-4.201394727672919
2025-03-23 14:50:35.592,1.6539915238141638
2025-03-23 14:50:35.592,5.075509622571244
2025-03-23 14:50:35.592,3.292302501514285
2025-03-23 14:50:35.592,-0.5701321715091684
2025-03-23 14:50:35.601,-2.00473115228529
2025-03-23 14:50:35.602,-0.6162084336924032
2025-03-23 14:50:35.602,0.41084596000863915
2025-03-23 14:50:35.602,-0.6667882216015906
2025-03-23 14:50:35.602,-1.934729799233278
2025-03-23 14:50:35.612,-0.9923323339114392
2025-03-23 14:50:35.612,1.539801311859963
2025-03-23 14:50:35.612,2.912918337377729
2025-03-23 14:50:35.612,1.7111051545555407
2025-03-23 14:50:35.612,-0.8012775817503907
2025-03-23 14:50:35.621,-2.432199785796926
2025-03-23 14:50:35.622,-2.144091256690203
2025-03-23 14:50:35.622,-0.44795909516164667
2025-03-23 14:50:35.622,1.3643870879531823
2025-03-23 14:50:35.622,2.0848549551732565
2025-03-23 14:50:35.632,1.300645791928677
2025-03-23 14:50:35.632,-0.2918230988324899
2025-03-23 14:50:35.632,-1.445521797173939
2025-03-23 14:50:35.632,-1.4230927757462248
2025-03-23 14:50:35.632,-0.4763563203215797
2025-03-23 14:50:35.641,0.5522462885619528
2025-03-23 14:50:35.642,0.8855177505659207
2025-03-23 14:50:35.642,0.3588754976926421
2025-03-23 14:50:35.642,-0.2921400276253761
2025-03-23 14:50:35.642,-0.010420622119682962
2025-03-23 14:50:35.651,1.128201647361822
2025-03-23 14:50:35.652,1.3777060668658587
2025-03-23 14:50:35.652,-0.6826438464720368
2025-03-23 14:50:35.652,-3.4924990676980108
2025-03-23 14:50:35.652,-3.3385633825421053
2025-03-23 14:50:35.661,0.9653376853504422
2025-03-23 14:50:35.662,5.3360488120558704
2025-03-23 14:50:35.662,4.495118800852657
2025-03-23 14:50:35.662,-1.2335524787536989
2025-03-23 14:50:35.662,-5.513868882445554
2025-03-23 14:50:35.671,-3.513900425517154
2025-03-23 14:50:35.672,2.0150756250645383
2025-03-23 14:50:35.672,4.230204734854086
2025-03-23 14:50:35.672,0.8756930929023062
2025-03-23 14:50:35.672,-3.170410100932955
2025-03-23 14:50:35.680,-2.593980682180434
2025-03-23 14:50:35.680,1.537379970775008
2025-03-23 14:50:35.680,3.6850606240963626
2025-03-23 14:50:35.680,1.3178537657899974
2025-03-23 14:50:35.690,-2.2302323032909053
2025-03-23 14:50:35.690,-2.691681533247867
2025-03-23 14:50:35.690,-0.28879201102826485
2025-03-23 14:50:35.690,1.361436003135044
2025-03-23 14:50:35.690,0.505795049002021
2025-03-23 14:50:35.699,-0.7761452351154682
2025-03-23 14:50:35.700,-0.09417849180750414
2025-03-23 14:50:35.700,1.629483864390487
2025-03-23 14:50:35.700,1.55090940603303
2025-03-23 14:50:35.700,-0.8102665749822462
2025-03-23 14:50:35.710,-2.5697950169588046
2025-03-23 14:50:35.710,-1.3201651345504084
2025-03-23 14:50:35.710,1.4462369109831414
2025-03-23 14:50:35.710,2.1575842875379827
2025-03-23 14:50:35.710,-0.081722790089365
2025-03-23 14:50:35.718,-2.2090159743325573
2025-03-23 14:50:35.718,-1.2229487717345975
2025-03-23 14:50:35.718,1.8037076746551044
2025-03-23 14:50:35.718,3.0429238138145664
2025-03-23 14:50:35.719,0.7723380264729751
2025-03-23 14:50:35.728,-2.5540513629426167
2025-03-23 14:50:35.728,-3.4065994797200916
2025-03-23 14:50:35.728,-1.184319566855864
2025-03-23 14:50:35.728,1.6689117888282672
2025-03-23 14:50:35.729,2.800242200726487
2025-03-23 14:50:35.738,2.0372870413316515
2025-03-23 14:50:35.738,0.45756085939624813
2025-03-23 14:50:35.738,-1.2696787175756763
2025-03-23 14:50:35.738,-2.7108465906685324
2025-03-23 14:50:35.748,-2.6918582519065954
2025-03-23 14:50:35.748,-0.23795039077864855
2025-03-23 14:50:35.748,3.1313264288437455
2025-03-23 14:50:35.748,3.777731656804172
2025-03-23 14:50:35.748,0.24081579077079626
2025-03-23 14:50:35.758,-3.7793526290581405
2025-03-23 14:50:35.758,-3.1268690334923894
2025-03-23 14:50:35.758,1.8897525896267522
2025-03-23 14:50:35.758,4.887419165312629
2025-03-23 14:50:35.758,1.3319956840801823
2025-03-23 14:50:35.767,-4.962177255338689
2025-03-23 14:50:35.768,-6.017402885509839
2025-03-23 14:50:35.768,0.24059783599660467
2025-03-23 14:50:35.768,7.010830404493756
2025-03-23 14:50:35.768,6.595217839464816
2025-03-23 14:50:35.778,-0.6497529201072183
2025-03-23 14:50:35.778,-6.987477929234857
2025-03-23 14:50:35.778,-6.1647074095646985
2025-03-23 14:50:35.778,0.11029573989676927
2025-03-23 14:50:35.778,4.950068765861065
2025-03-23 14:50:35.787,4.25749220909761
2025-03-23 14:50:35.788,0.4396108105307622
2025-03-23 14:50:35.788,-1.7145660265140763
2025-03-23 14:50:35.788,-1.0064210542559149
2025-03-23 14:50:35.788,-0.17882803018381904
2025-03-23 14:50:35.797,-1.1528558320431124
2025-03-23 14:50:35.797,-2.223262708848706
2025-03-23 14:50:35.798,-0.876033318012197
2025-03-23 14:50:35.798,2.1908640201815164
2025-03-23 14:50:35.798,3.6400473692820285
2025-03-23 14:50:35.806,1.7580823799470242
2025-03-23 14:50:35.806,-1.4256671907316145
2025-03-23 14:50:35.806,-2.726800017354329
2025-03-23 14:50:35.807,-1.4648957731483567
2025-03-23 14:50:35.807,0.2978348384565949
2025-03-23 14:50:35.816,0.6942239084515847
2025-03-23 14:50:35.816,0.12848123344659018
2025-03-23 14:50:35.816,0.08307389194947762
2025-03-23 14:50:35.816,0.7597285896903686
2025-03-23 14:50:35.825,0.9587279722620495
2025-03-23 14:50:35.826,0.07810833790897576
2025-03-23 14:50:35.826,-0.9203583270757356
2025-03-23 14:50:35.826,-0.8898498847844235
2025-03-23 14:50:35.826,-0.02390015168588132
2025-03-23 14:50:35.835,0.5415978244807855
2025-03-23 14:50:35.836,0.20326246744599533
2025-03-23 14:50:35.836,-0.5349996833307079
2025-03-23 14:50:35.836,-0.7681712578348414
2025-03-23 14:50:35.836,-0.09256881073346912
2025-03-23 14:50:35.845,1.09019797608871
2025-03-23 14:50:35.846,1.8074178979694118
2025-03-23 14:50:35.846,1.1234568750349028
2025-03-23 14:50:35.846,-0.9422417506552178
2025-03-23 14:50:35.846,-2.889005046453655
2025-03-23 14:50:35.855,-2.6954391703274543
2025-03-23 14:50:35.856,0.054066066384316436
2025-03-23 14:50:35.856,3.160767452949639
2025-03-23 14:50:35.856,3.6289306146184424
2025-03-23 14:50:35.856,0.8179140080191323
2025-03-23 14:50:35.865,-2.586623812925772
2025-03-23 14:50:35.866,-3.2479369141755767
2025-03-23 14:50:35.866,-0.7667346933421605
2025-03-23 14:50:35.866,1.9289908884356617
2025-03-23 14:50:35.866,1.9464771237210174
2025-03-23 14:50:35.876,-0.35340849085063275
2025-03-23 14:50:35.876,-1.9670028692757138
2025-03-23 14:50:35.876,-0.818251909890053
2025-03-23 14:50:35.876,1.8402598324196409
2025-03-23 14:50:35.876,2.802083716681809
2025-03-23 14:50:35.885,0.5284889975109937
2025-03-23 14:50:35.886,-2.896720166869317
2025-03-23 14:50:35.886,-3.7632635259462206
2025-03-23 14:50:35.886,-0.7930885575909499
2025-03-23 14:50:35.886,3.163769461376226
2025-03-23 14:50:35.894,4.012486539576132
2025-03-23 14:50:35.894,0.9403774932848186
2025-03-23 14:50:35.894,-2.657719245848003
2025-03-23 14:50:35.894,-3.131771351325434
2025-03-23 14:50:35.895,-0.6434172505799294
2025-03-23 14:50:35.904,1.6054917498711787
2025-03-23 14:50:35.904,1.5418160415352826
2025-03-23 14:50:35.904,0.15760418477069957
2025-03-23 14:50:35.904,-0.6281120244985127
2025-03-23 14:50:35.914,-0.40422734060769155
2025-03-23 14:50:35.914,0.06735665077928765
2025-03-23 14:50:35.914,0.35370729513929183
2025-03-23 14:50:35.914,0.4725757436511745
2025-03-23 14:50:35.914,0.21093835831599728
2025-03-23 14:50:35.923,-0.5777112847365197
2025-03-23 14:50:35.924,-1.2315958550199582
2025-03-23 14:50:35.924,-0.8210451825558853
2025-03-23 14:50:35.924,0.5049107997815009
2025-03-23 14:50:35.924,1.4987282063647114
2025-03-23 14:50:35.934,1.2899427410417537
2025-03-23 14:50:35.934,0.22723360629864797
2025-03-23 14:50:35.934,-0.8361826485973243
2025-03-23 14:50:35.934,-1.367189361647616
2025-03-23 14:50:35.934,-1.1058178978959785
2025-03-23 14:50:35.943,-0.019083847828425652
2025-03-23 14:50:35.944,1.2390508212461355
2025-03-23 14:50:35.944,1.4675537731339146
2025-03-23 14:50:35.944,0.2307008193688026
2025-03-23 14:50:35.944,-1.246919963134042
2025-03-23 14:50:35.953,-1.2694608377795344
2025-03-23 14:50:35.954,0.19778774549162953
2025-03-23 14:50:35.954,1.354803410938066
2025-03-23 14:50:35.954,0.858877268992134
2025-03-23 14:50:35.954,-0.48304012983946076
2025-03-23 14:50:35.962,-1.0096625595226942
2025-03-23 14:50:35.962,-0.5327199915836432
2025-03-23 14:50:35.962,-0.2130021360590426
2025-03-23 14:50:35.962,-0.3299859513254539
2025-03-23 14:50:35.963,0.2978591174249705
2025-03-23 14:50:35.972,1.9877331530278035
2025-03-23 14:50:35.972,2.6353827008361894
2025-03-23 14:50:35.972,0.15495068099728565
2025-03-23 14:50:35.973,-3.880673140425904
2025-03-23 14:50:35.973,-5.001258306738377
2025-03-23 14:50:35.982,-1.0835298543816754
2025-03-23 14:50:35.982,4.466429598155523
2025-03-23 14:50:35.982,6.11072035965867
2025-03-23 14:50:35.982,2.2806131497659377
2025-03-23 14:50:35.983,-3.118967293154016
2025-03-23 14:50:35.993,-5.232880863384244
2025-03-23 14:50:35.994,-3.1035043286607054
2025-03-23 14:50:35.994,0.44443812298819024
2025-03-23 14:50:35.994,2.6322620561718426
2025-03-23 14:50:35.994,3.047109200326839
2025-03-23 14:50:36.002,2.352370085212294
2025-03-23 14:50:36.002,0.5263063954976912
2025-03-23 14:50:36.002,-2.2867388531277393
2025-03-23 14:50:36.002,-4.121636404477293
2025-03-23 14:50:36.012,-2.553754772192177
2025-03-23 14:50:36.012,1.6915456505385085
2025-03-23 14:50:36.012,4.293070031456776
2025-03-23 14:50:36.012,2.1785586647256494
2025-03-23 14:50:36.012,-2.1255329294411918
2025-03-23 14:50:36.021,-3.1826602532827684
2025-03-23 14:50:36.022,0.32140335358386657
2025-03-23 14:50:36.022,3.5845818414542143
2025-03-23 14:50:36.022,1.8608549247396606
2025-03-23 14:50:36.022,-3.1659112534468457
2025-03-23 14:50:36.031,-5.2497405351266915
2025-03-23 14:50:36.032,-1.3622275176576197
2025-03-23 14:50:36.032,4.487195626520283
2025-03-23 14:50:36.032,6.021337543787266
2025-03-23 14:50:36.032,1.8811751435749315
2025-03-23 14:50:36.041,-3.440723276215472
2025-03-23 14:50:36.042,-5.164534940994372
2025-03-23 14:50:36.042,-2.8489170352744937
2025-03-23 14:50:36.042,0.6575243748142146
2025-03-23 14:50:36.042,2.9113625810333237
2025-03-23 14:50:36.051,3.3366814955041257
2025-03-23 14:50:36.052,2.1901244820203916
2025-03-23 14:50:36.052,-0.17719079371210694
2025-03-23 14:50:36.052,-2.790367942061732
2025-03-23 14:50:36.052,-3.8458955610416905
2025-03-23 14:50:36.060,-2.041875448138689
2025-03-23 14:50:36.060,1.665330543203282
2025-03-23 14:50:36.060,4.184167288236117
2025-03-23 14:50:36.061,2.9982668681378843
2025-03-23 14:50:36.061,-0.9505269933259018
2025-03-23 14:50:36.071,-3.7121737708033677
2025-03-23 14:50:36.072,-2.422023733121862
2025-03-23 14:50:36.072,1.297563920709587
2025-03-23 14:50:36.072,3.019261492754302
2025-03-23 14:50:36.072,0.7670758381217113
2025-03-23 14:50:36.080,-2.5269829889317443
2025-03-23 14:50:36.080,-2.620256535628217
2025-03-23 14:50:36.080,0.7880771468422177
2025-03-23 14:50:36.080,3.705047632384248
2025-03-23 14:50:36.081,2.709333858467486
2025-03-23 14:50:36.090,-1.1121565533418412
2025-03-23 14:50:36.090,-3.7757534544575058
2025-03-23 14:50:36.090,-3.012362092224727
2025-03-23 14:50:36.091,-0.0765921343171552
2025-03-23 14:50:36.091,2.5061190871815997
2025-03-23 14:50:36.100,3.30381515120012
2025-03-23 14:50:36.100,2.008093555351845
2025-03-23 14:50:36.100,-0.8988361785389642
2025-03-23 14:50:36.100,-3.523036695807487
2025-03-23 14:50:36.110,-3.2952794927432145
2025-03-23 14:50:36.110,0.06321908246890165
2025-03-23 14:50:36.110,3.3175271744219264
2025-03-23 14:50:36.110,3.117242217848059
2025-03-23 14:50:36.110,0.049173266391786874
2025-03-23 14:50:36.119,-2.298220198383586
2025-03-23 14:50:36.120,-1.9295867602609638
2025-03-23 14:50:36.120,-0.2673503766423179
2025-03-23 14:50:36.120,0.669527756280568
2025-03-23 14:50:36.120,0.8352860507733035
2025-03-23 14:50:36.130,0.9991647628796417
2025-03-23 14:50:36.130,0.7854491393663795
2025-03-23 14:50:36.130,-0.4682161693458658
2025-03-23 14:50:36.130,-1.8095723043898533
2025-03-23 14:50:36.130,-1.4437496172365953
2025-03-23 14:50:36.139,0.6289373910731179
2025-03-23 14:50:36.140,2.176721116840276
2025-03-23 14:50:36.140,1.4222835907086908
2025-03-23 14:50:36.140,-0.7507622769115209
2025-03-23 14:50:36.140,-1.9783651854189814
2025-03-23 14:50:36.150,-1.277577911459932
2025-03-23 14:50:36.150,0.1701090011614676
2025-03-23 14:50:36.150,0.9862601645727953
2025-03-23 14:50:36.150,1.2352520088567163
2025-03-23 14:50:36.150,1.4883306757622246
2025-03-23 14:50:36.159,1.1530134864650188
2025-03-23 14:50:36.160,-0.8486319231124823
2025-03-23 14:50:36.160,-3.644523512514803
2025-03-23 14:50:36.160,-4.129945011616844
2025-03-23 14:50:36.160,-0.3927245592661962
2025-03-23 14:50:36.169,5.028564657314692
2025-03-23 14:50:36.170,6.799102153073072
2025-03-23 14:50:36.170,2.3681057862065495
2025-03-23 14:50:36.170,-4.742985556442594
2025-03-23 14:50:36.170,-7.995180568408615
2025-03-23 14:50:36.179,-4.254080989727687
2025-03-23 14:50:36.180,3.0523488430785983
2025-03-23 14:50:36.180,7.256041713211767
2025-03-23 14:50:36.180,4.902746466432779
2025-03-23 14:50:36.180,-1.1512431345656795
2025-03-23 14:50:36.189,-5.030195395494288
2025-03-23 14:50:36.190,-3.8272565242984395
2025-03-23 14:50:36.190,0.10657171917001013
2025-03-23 14:50:36.190,2.4977161482367896
2025-03-23 14:50:36.190,1.7644543850065226
2025-03-23 14:50:36.198,-0.13885297957954978
2025-03-23 14:50:36.198,-0.7436608784864283
2025-03-23 14:50:36.198,0.10818893687359271
2025-03-23 14:50:36.199,0.6784399946697585
2025-03-23 14:50:36.199,-0.07830610514547767
2025-03-23 14:50:36.208,-1.1282276104593725
2025-03-23 14:50:36.208,-0.8449406008677169
2025-03-23 14:50:36.208,0.6100180657863019
2025-03-23 14:50:36.209,1.2995319059595714
2025-03-23 14:50:36.209,0.1553882567265196
2025-03-23 14:50:36.218,-1.331974652936381
2025-03-23 14:50:36.218,-1.0028989941900268
2025-03-23 14:50:36.218,0.9260644830532173
2025-03-23 14:50:36.218,1.9844034117396017
2025-03-23 14:50:36.228,0.6915827202524406
2025-03-23 14:50:36.228,-1.4908503164293447
2025-03-23 14:50:36.228,-2.0392819742526895
2025-03-23 14:50:36.228,-0.4731132320216823
2025-03-23 14:50:36.228,1.2530813933427434
2025-03-23 14:50:36.238,1.297512231021055
2025-03-23 14:50:36.238,0.05454383483440954
2025-03-23 14:50:36.238,-0.664830968751444
2025-03-23 14:50:36.238,-0.06627718992164083
2025-03-23 14:50:36.238,0.7613987867057901
2025-03-23 14:50:36.247,0.4258176078826458
2025-03-23 14:50:36.248,-0.95787574755865
2025-03-23 14:50:36.248,-1.8735050816101042
2025-03-23 14:50:36.248,-1.0686594227741724
2025-03-23 14:50:36.248,1.1098442042896914
2025-03-23 14:50:36.257,2.9026560692250745
2025-03-23 14:50:36.258,2.558749831613326
2025-03-23 14:50:36.258,-0.1307238706911431
2025-03-23 14:50:36.258,-3.320748915819219
2025-03-23 14:50:36.258,-4.253554308823789
2025-03-23 14:50:36.267,-1.6011278002976614
2025-03-23 14:50:36.268,2.8566215945920668
2025-03-23 14:50:36.268,5.269004463470818
2025-03-23 14:50:36.268,3.1927683896317203
2025-03-23 14:50:36.268,-1.7353528028985399
2025-03-23 14:50:36.276,-5.039259991320556
2025-03-23 14:50:36.276,-3.744137492359482
2025-03-23 14:50:36.276,0.6114036032041178
2025-03-23 14:50:36.277,3.652179938224896
2025-03-23 14:50:36.277,2.8187006738343814
2025-03-23 14:50:36.286,-0.17033172833744942
2025-03-23 14:50:36.286,-1.7334999249669347
2025-03-23 14:50:36.286,-0.6905358420623152
2025-03-23 14:50:36.287,0.7184906547281987
2025-03-23 14:50:36.287,0.07875025004823447
2025-03-23 14:50:36.296,-1.8642850774979862
2025-03-23 14:50:36.296,-2.0487759157230867
2025-03-23 14:50:36.296,0.7788146123702588
2025-03-23 14:50:36.297,3.8826593037175283
2025-03-23 14:50:36.297,3.4471119545786606
2025-03-23 14:50:36.306,-0.7036812793593716
2025-03-23 14:50:36.306,-4.5000882256339105
2025-03-23 14:50:36.306,-4.0981616999244315
2025-03-23 14:50:36.306,-0.07387173801535732
2025-03-23 14:50:36.316,3.516209554158716
2025-03-23 14:50:36.316,3.6618445470330827
2025-03-23 14:50:36.316,1.0447969046850423
2025-03-23 14:50:36.316,-1.5913575943356775
2025-03-23 14:50:36.316,-2.46463729843185
2025-03-23 14:50:36.326,-1.6852023695904639
2025-03-23 14:50:36.326,-0.2150289495686951
2025-03-23 14:50:36.326,1.0718937090901577
2025-03-23 14:50:36.326,1.6169099930140485
2025-03-23 14:50:36.326,1.2772539643301175
2025-03-23 14:50:36.336,0.30847974115501364
2025-03-23 14:50:36.336,-0.8874243634789246
2025-03-23 14:50:36.336,-1.7893109464316388
2025-03-23 14:50:36.336,-1.6486634927149733
2025-03-23 14:50:36.336,-0.06787326471842164
2025-03-23 14:50:36.344,2.048412014541712
2025-03-23 14:50:36.344,2.792109517738127
2025-03-23 14:50:36.344,1.1054182738360692
2025-03-23 14:50:36.344,-1.8573679884628282
2025-03-23 14:50:36.345,-3.598579335011273
2025-03-23 14:50:36.355,-2.494566194288243
2025-03-23 14:50:36.356,0.8098745360417607
2025-03-23 14:50:36.356,3.839961497193594
2025-03-23 14:50:36.356,4.104637220888855
2025-03-23 14:50:36.356,1.125136009342607
2025-03-23 14:50:36.364,-2.9241038323475204
2025-03-23 14:50:36.364,-4.90123167949917
2025-03-23 14:50:36.364,-3.3447146740955676
2025-03-23 14:50:36.364,0.49551492166649413
2025-03-23 14:50:36.365,3.9174426845728094
2025-03-23 14:50:36.374,4.7226084494983915
2025-03-23 14:50:36.374,2.4623089895428576
2025-03-23 14:50:36.374,-1.3516972761181822
2025-03-23 14:50:36.375,-4.189419126122714
2025-03-23 14:50:36.375,-4.240898140107107
2025-03-23 14:50:36.384,-1.6344166930656423
2025-03-23 14:50:36.384,1.843328478855432
2025-03-23 14:50:36.384,4.036397647631358
2025-03-23 14:50:36.385,3.6587802647445367
2025-03-23 14:50:36.385,0.9609807170418196
2025-03-23 14:50:36.394,-2.3321213015724744
2025-03-23 14:50:36.394,-3.960108060571742
2025-03-23 14:50:36.394,-2.7216663426333914
2025-03-23 14:50:36.394,0.36006348477462524
2025-03-23 14:50:36.403,2.7125921611060946
2025-03-23 14:50:36.404,2.6103428099554513
2025-03-23 14:50:36.404,0.8258621469069587
2025-03-23 14:50:36.404,-0.5814940013226995
2025-03-23 14:50:36.404,-0.8469695606367148
2025-03-23 14:50:36.414,-0.9727440478347045
2025-03-23 14:50:36.414,-1.5912042338042913
2025-03-23 14:50:36.414,-1.567455990186089
2025-03-23 14:50:36.414,0.3406488718358435
2025-03-23 14:50:36.414,3.025552248485963
2025-03-23 14:50:36.424,3.5725855971848617
2025-03-23 14:50:36.424,0.6776299268604877
2025-03-23 14:50:36.424,-3.3014787559965355
2025-03-23 14:50:36.424,-4.512302965607116
2025-03-23 14:50:36.424,-1.6790978215602
2025-03-23 14:50:36.434,2.531843019958286
2025-03-23 14:50:36.434,4.269754772878866
2025-03-23 14:50:36.434,2.2731760094123437
2025-03-23 14:50:36.434,-1.2348925703296658
2025-03-23 14:50:36.434,-3.0907874105661373
2025-03-23 14:50:36.444,-2.1939615927921685
2025-03-23 14:50:36.444,0.012743470456852285
2025-03-23 14:50:36.444,1.4803512794378573
2025-03-23 14:50:36.444,1.452423627139841
2025-03-23 14:50:36.444,0.593125314893761
2025-03-23 14:50:36.453,-0.1560881203646605
2025-03-23 14:50:36.454,-0.44187863039541786
2025-03-23 14:50:36.454,-0.3884351931048058
2025-03-23 14:50:36.454,-0.17826302828198415
2025-03-23 14:50:36.454,-0.05513422368322498
2025-03-23 14:50:36.463,-0.32495134682041044
2025-03-23 14:50:36.464,-0.7873360513737734
2025-03-23 14:50:36.464,-0.4936514609796511
2025-03-23 14:50:36.464,1.0621683550333034
2025-03-23 14:50:36.464,2.5640401637808727
2025-03-23 14:50:36.474,1.7996219100440216
2025-03-23 14:50:36.474,-1.4276560553653521
2025-03-23 14:50:36.474,-4.133049367499327
2025-03-23 14:50:36.474,-3.0617185772117352
2025-03-23 14:50:36.474,1.2769452186889112
2025-03-23 14:50:36.482,4.614551618200237
2025-03-23 14:50:36.482,3.5293724163890574
2025-03-23 14:50:36.482,-0.7266308848686686
2025-03-23 14:50:36.482,-3.7845304513216185
2025-03-23 14:50:36.492,-3.0063615389807916
2025-03-23 14:50:36.492,0.1615637398491499
2025-03-23 14:50:36.492,2.411642464687892
2025-03-23 14:50:36.492,2.0490521651832205
2025-03-23 14:50:36.493,-0.0018874826288560742
2025-03-23 14:50:36.493,-1.7127315028417125
2025-03-23 14:50:36.502,-1.7055376831519278
2025-03-23 14:50:36.502,0.03708386479199563
2025-03-23 14:50:36.502,2.19352373885347
2025-03-23 14:50:36.502,2.7229371732539063
2025-03-23 14:50:36.512,0.4654322223474352
2025-03-23 14:50:36.512,-3.16222020307032
2025-03-23 14:50:36.512,-4.659288159261548
2025-03-23 14:50:36.512,-1.747184952009027
2025-03-23 14:50:36.512,3.5775874705120065
2025-03-23 14:50:36.522,6.190823032888367
2025-03-23 14:50:36.522,2.9982459329187257
2025-03-23 14:50:36.522,-3.2057298587320306
2025-03-23 14:50:36.522,-6.1607186216326015
2025-03-23 14:50:36.522,-2.9693239980061343
2025-03-23 14:50:36.532,2.4919639144329118
2025-03-23 14:50:36.532,4.15821234429913
2025-03-23 14:50:36.532,1.0707878936622581
2025-03-23 14:50:36.532,-1.8756464398620616
2025-03-23 14:50:36.532,-0.761319633163007
2025-03-23 14:50:36.542,2.114408486373302
2025-03-23 14:50:36.542,1.705382495219594
2025-03-23 14:50:36.542,-2.4485560119223595
2025-03-23 14:50:36.542,-5.173084268671576
2025-03-23 14:50:36.542,-2.297770686892328
2025-03-23 14:50:36.552,3.8347475996437166
2025-03-23 14:50:36.552,6.8381616010070685
2025-03-23 14:50:36.552,3.4073721351346498
2025-03-23 14:50:36.552,-3.158074316515192
2025-03-23 14:50:36.552,-6.5321967658629045
2025-03-23 14:50:36.562,-3.883876181202486
2025-03-23 14:50:36.562,1.5410335165362112
2025-03-23 14:50:36.562,4.313345299401058
2025-03-23 14:50:36.562,2.691413698899094
2025-03-23 14:50:36.562,-0.20806823770838503
2025-03-23 14:50:36.572,-0.965064923579421
2025-03-23 14:50:36.572,-0.0842995942177425
2025-03-23 14:50:36.572,-0.4078301793268474
2025-03-23 14:50:36.572,-2.226614616530671
2025-03-23 14:50:36.572,-2.424884360154674
2025-03-23 14:50:36.581,0.700197500845195
2025-03-23 14:50:36.582,4.017961535743709
2025-03-23 14:50:36.582,3.233313765005631
2025-03-23 14:50:36.582,-1.0689474356198259
2025-03-23 14:50:36.582,-3.8001735491810447
2025-03-23 14:50:36.591,-2.0122720223352526
2025-03-23 14:50:36.592,1.4005709812859861
2025-03-23 14:50:36.592,1.9793354140114097
2025-03-23 14:50:36.592,-0.26277817444877694
2025-03-23 14:50:36.592,-1.4161738412791427
2025-03-23 14:50:36.600,0.38215601742551364
2025-03-23 14:50:36.600,2.2971379100558678
2025-03-23 14:50:36.600,1.0468671822200888
2025-03-23 14:50:36.600,-2.199695666524699
2025-03-23 14:50:36.610,-3.220591386275975
2025-03-23 14:50:36.610,-0.4265953586766428
2025-03-23 14:50:36.610,2.9321477728363017
2025-03-23 14:50:36.610,2.8818982459226725
2025-03-23 14:50:36.611,-0.3245700273557276
2025-03-23 14:50:36.619,-2.714418451818465
2025-03-23 14:50:36.620,-1.66869139054358
2025-03-23 14:50:36.620,1.0207059275534816
2025-03-23 14:50:36.620,1.8268844205231776
2025-03-23 14:50:36.620,0.11419116345920716
2025-03-23 14:50:36.630,-1.381364943433026
2025-03-23 14:50:36.630,-0.5396119281138189
2025-03-23 14:50:36.630,1.3045802517697438
2025-03-23 14:50:36.630,1.4083121760358777
2025-03-23 14:50:36.630,-0.5348672255899422
2025-03-23 14:50:36.639,-2.0793375152980658
2025-03-23 14:50:36.640,-1.3853646328043
2025-03-23 14:50:36.640,0.586941126746121
2025-03-23 14:50:36.640,1.7481263481523441
2025-03-23 14:50:36.640,1.5057457362089943
2025-03-23 14:50:36.650,0.6822326336855279
2025-03-23 14:50:36.650,-0.3360668692991249
2025-03-23 14:50:36.650,-1.7668389826408617
2025-03-23 14:50:36.650,-2.7713836589714385
2025-03-23 14:50:36.650,-1.4671346691337477
2025-03-23 14:50:36.659,2.1753292931170694
2025-03-23 14:50:36.660,4.702631945810482
2025-03-23 14:50:36.660,2.6119534371623327
2025-03-23 14:50:36.660,-2.653478809017668
2025-03-23 14:50:36.660,-5.419232271128901
2025-03-23 14:50:36.670,-2.4760009911093817
2025-03-23 14:50:36.670,2.7656163035970125
2025-03-23 14:50:36.670,4.452861549801574
2025-03-23 14:50:36.670,1.3987611925108818
2025-03-23 14:50:36.670,-2.121572940529348
2025-03-23 14:50:36.678,-2.3265208800272164
2025-03-23 14:50:36.678,-0.25614095386674735
2025-03-23 14:50:36.678,0.7859733736845788
2025-03-23 14:50:36.679,0.11280349348871584
2025-03-23 14:50:36.688,-0.16717919983299534
2025-03-23 14:50:36.688,0.8866778633946665
2025-03-23 14:50:36.688,1.3911404275606434
2025-03-23 14:50:36.688,-0.2982794845304897
2025-03-23 14:50:36.689,-2.5748862793731377
2025-03-23 14:50:36.689,-2.2411080234917153
2025-03-23 14:50:36.698,1.1419142690148265
2025-03-23 14:50:36.698,4.010581611561981
2025-03-23 14:50:36.698,2.752881833793911
2025-03-23 14:50:36.699,-1.6810540850399458
2025-03-23 14:50:36.708,-4.486026505858866
2025-03-23 14:50:36.708,-2.6727902325083215
2025-03-23 14:50:36.708,1.3584721532046802
2025-03-23 14:50:36.708,3.085611205494615
2025-03-23 14:50:36.709,1.5741095483389733
2025-03-23 14:50:36.709,-0.10051010315267189
2025-03-23 14:50:36.718,0.1338986768995401
2025-03-23 14:50:36.718,0.45788932396080295
2025-03-23 14:50:36.718,-1.4152608897525945
2025-03-23 14:50:36.718,-3.8192553810568666
2025-03-23 14:50:36.728,-2.730589254909085
2025-03-23 14:50:36.728,2.316906344132703
2025-03-23 14:50:36.728,6.335628304573126
2025-03-23 14:50:36.728,4.349660070277399
2025-03-23 14:50:36.729,-2.3070906230760055
2025-03-23 14:50:36.738,-6.8929909568660435
2025-03-23 14:50:36.738,-4.663279101367535
2025-03-23 14:50:36.738,1.8242751233172487
2025-03-23 14:50:36.738,5.678320939929271
2025-03-23 14:50:36.738,3.407066662921019
2025-03-23 14:50:36.748,-1.5751220601199756
2025-03-23 14:50:36.748,-3.4817607961365113
2025-03-23 14:50:36.748,-0.9603398209648547
2025-03-23 14:50:36.748,1.965146374849396
2025-03-23 14:50:36.749,1.4229209612917328
2025-03-23 14:50:36.757,-1.5420432327038684
2025-03-23 14:50:36.758,-2.727325120817903
2025-03-23 14:50:36.758,-0.3454672935172396
2025-03-23 14:50:36.758,2.8243640827393373
2025-03-23 14:50:36.758,3.0895083797532754
2025-03-23 14:50:36.768,0.27737503674556147
2025-03-23 14:50:36.768,-2.458162702944623
2025-03-23 14:50:36.768,-2.5622962748917946
2025-03-23 14:50:36.768,-0.6034531252630552
2025-03-23 14:50:36.768,1.124918531921475
2025-03-23 14:50:36.778,1.4165858087090304
2025-03-23 14:50:36.778,0.852725327851148
2025-03-23 14:50:36.778,0.25714117913790213
2025-03-23 14:50:36.778,-0.3988286324983441
2025-03-23 14:50:36.778,-1.2164199126780362
2025-03-23 14:50:36.788,-1.392364439763013
2025-03-23 14:50:36.788,-0.04354863485579391
2025-03-23 14:50:36.788,2.0437575717214074
2025-03-23 14:50:36.788,2.50317227295428
2025-03-23 14:50:36.788,0.06213195595436306
2025-03-23 14:50:36.796,-3.192304346867525
2025-03-23 14:50:36.796,-3.466565103649761
2025-03-23 14:50:36.796,0.19135469848466685
2025-03-23 14:50:36.797,4.026507075693902
2025-03-23 14:50:36.797,3.6040461733171787
2025-03-23 14:50:36.806,-0.7178408545110796
2025-03-23 14:50:36.806,-3.9801831138540074
2025-03-23 14:50:36.806,-2.6113989795297092
2025-03-23 14:50:36.807,1.3296764940182613
2025-03-23 14:50:36.816,3.0191288119926667
2025-03-23 14:50:36.816,0.9473735944061488
2025-03-23 14:50:36.816,-1.6685985826848804
2025-03-23 14:50:36.816,-1.5453596384479433
2025-03-23 14:50:36.816,0.5490400323934863
2025-03-23 14:50:36.826,1.506993252305343
2025-03-23 14:50:36.826,0.3304569368969752
2025-03-23 14:50:36.826,-1.0544394037636302
2025-03-23 14:50:36.826,-1.0092524582066396
2025-03-23 14:50:36.826,-0.16739957764495467
2025-03-23 14:50:36.836,0.260915499261281
2025-03-23 14:50:36.836,0.43855084409345624
2025-03-23 14:50:36.836,1.004838781192588
2025-03-23 14:50:36.836,1.340649299980015
2025-03-23 14:50:36.836,0.25739833232972464
2025-03-23 14:50:36.846,-1.8398411033232218
2025-03-23 14:50:36.846,-2.8068478330957767
2025-03-23 14:50:36.846,-1.1832260884580057
2025-03-23 14:50:36.846,1.8666661332408394
2025-03-23 14:50:36.846,3.4788049945848787
2025-03-23 14:50:36.855,1.9468608782702193
2025-03-23 14:50:36.856,-1.3859049517424233
2025-03-23 14:50:36.856,-3.270237925773186
2025-03-23 14:50:36.856,-1.8842405415742272
2025-03-23 14:50:36.856,1.136169139966459
2025-03-23 14:50:36.864,2.494724130444383
2025-03-23 14:50:36.864,0.9740571912033454
2025-03-23 14:50:36.864,-1.3150527592722903
2025-03-23 14:50:36.864,-1.642681259472193
2025-03-23 14:50:36.865,0.08420704960052067
2025-03-23 14:50:36.874,1.5101143510299544
2025-03-23 14:50:36.874,0.992155749892304
2025-03-23 14:50:36.874,-0.5214548328764536
2025-03-23 14:50:36.875,-1.181412024848508
2025-03-23 14:50:36.875,-0.7082599304151245
2025-03-23 14:50:36.884,-0.0913506402270586
2025-03-23 14:50:36.884,0.37737109020761705
2025-03-23 14:50:36.884,1.1255747114722838
2025-03-23 14:50:36.885,1.5603494301332086
2025-03-23 14:50:36.885,0.26584657684367347
2025-03-23 14:50:36.896,-2.321556984382963
2025-03-23 14:50:36.896,-3.159758214548508
2025-03-23 14:50:36.896,-0.24244366530185682
2025-03-23 14:50:36.896,3.8134448556031817
2025-03-23 14:50:36.896,4.051572271764073
2025-03-23 14:50:36.906,-0.4967604020452883
2025-03-23 14:50:36.906,-4.7943814411471894
2025-03-23 14:50:36.906,-3.675214148522684
2025-03-23 14:50:36.906,1.5284051574802398
2025-03-23 14:50:36.906,4.520787750492873
2025-03-23 14:50:36.914,2.0387902991437454
2025-03-23 14:50:36.914,-2.2093853355996638
2025-03-23 14:50:36.914,-2.7904785494214135
2025-03-23 14:50:36.915,0.29796887751114165
2025-03-23 14:50:36.915,2.1779133535571353
2025-03-23 14:50:36.924,0.180607013223295
2025-03-23 14:50:36.924,-2.503051644784246
2025-03-23 14:50:36.924,-1.5012024754406432
2025-03-23 14:50:36.925,2.3719832594713455
2025-03-23 14:50:36.934,3.8940974777248787
2025-03-23 14:50:36.934,0.4464655520121611
2025-03-23 14:50:36.934,-4.115209957834572
2025-03-23 14:50:36.934,-4.111193285220851
2025-03-23 14:50:36.935,0.6614549562064842
2025-03-23 14:50:36.944,4.531462570380125
2025-03-23 14:50:36.944,3.060531982140997
2025-03-23 14:50:36.944,-1.550587789899881
2025-03-23 14:50:36.944,-3.5779643635661262
2025-03-23 14:50:36.945,-1.0500370259926413
2025-03-23 14:50:36.954,2.218741364634281
2025-03-23 14:50:36.954,1.9703290260294652
2025-03-23 14:50:36.954,-1.107717300088127
2025-03-23 14:50:36.954,-2.7280879422595223
2025-03-23 14:50:36.954,-0.7547832915360385
2025-03-23 14:50:36.962,2.3208246015274767
2025-03-23 14:50:36.962,2.888544259207888
2025-03-23 14:50:36.962,0.5753261227352611
2025-03-23 14:50:36.963,-1.9347956513685152
2025-03-23 14:50:36.963,-2.446523855639635
2025-03-23 14:50:36.974,-1.2217605856987248
2025-03-23 14:50:36.974,0.3311695577746902
2025-03-23 14:50:36.974,1.4573022696571738
2025-03-23 14:50:36.974,1.966128613042127
2025-03-23 14:50:36.974,1.4178013779377754
2025-03-23 14:50:36.982,-0.3834152368073407
2025-03-23 14:50:36.982,-2.292071626534145
2025-03-23 14:50:36.982,-2.3951902583945057
2025-03-23 14:50:36.983,-0.21763186574169924
2025-03-23 14:50:36.992,2.223108005760337
2025-03-23 14:50:36.992,2.3160253089314558
2025-03-23 14:50:36.992,-0.11035794001562463
2025-03-23 14:50:36.992,-2.245682207505316
2025-03-23 14:50:36.993,-1.4121077086273899
2025-03-23 14:50:37.002,1.4921528265431383
2025-03-23 14:50:37.002,2.7138866592808633
2025-03-23 14:50:37.002,0.2722910336272971
2025-03-23 14:50:37.002,-3.188633414126984
2025-03-23 14:50:37.002,-3.3610280887694817
2025-03-23 14:50:37.012,0.3821883288897366
2025-03-23 14:50:37.012,4.0369459309665645
2025-03-23 14:50:37.012,3.639329514586142
2025-03-23 14:50:37.012,-0.2722218332883368
2025-03-23 14:50:37.013,-3.606948378439137
2025-03-23 14:50:37.022,-3.3664640996173976
2025-03-23 14:50:37.022,-0.33627084917187344
2025-03-23 14:50:37.022,2.4855860163573005
2025-03-23 14:50:37.022,2.9483862418162525
2025-03-23 14:50:37.022,1.0733432250912571
2025-03-23 14:50:37.032,-1.5514755994233045
2025-03-23 14:50:37.032,-2.92553361933222
2025-03-23 14:50:37.032,-1.796499655652298
2025-03-23 14:50:37.032,1.218016073976906
2025-03-23 14:50:37.032,3.5005787514706763
2025-03-23 14:50:37.042,2.448194398520281
2025-03-23 14:50:37.042,-1.488412428553299
2025-03-23 14:50:37.042,-4.3652813150759435
2025-03-23 14:50:37.042,-2.705546238738592
2025-03-23 14:50:37.042,2.089754922272707
2025-03-23 14:50:37.051,4.7879698876820065
2025-03-23 14:50:37.052,2.3694330822799046
2025-03-23 14:50:37.052,-2.3435385517888596
2025-03-23 14:50:37.052,-4.189000335508754
2025-03-23 14:50:37.052,-1.7500270088099308
2025-03-23 14:50:37.060,1.6323603591560798
2025-03-23 14:50:37.060,2.5271721231073347
2025-03-23 14:50:37.061,1.193457556143263
2025-03-23 14:50:37.061,0.010849672130039442
2025-03-23 14:50:37.061,-0.26741369724814384
2025-03-23 14:50:37.071,-0.8742690312482383
2025-03-23 14:50:37.072,-2.031863799095124
2025-03-23 14:50:37.072,-1.7590393295647426
2025-03-23 14:50:37.072,1.1087253006986202
2025-03-23 14:50:37.072,3.9814504953552987
2025-03-23 14:50:37.082,2.812428970961804
2025-03-23 14:50:37.082,-2.280103730879151
2025-03-23 14:50:37.082,-5.713587470386553
2025-03-23 14:50:37.082,-2.6583701644107434
2025-03-23 14:50:37.082,4.245546814675403
2025-03-23 14:50:37.092,6.927471300033915
2025-03-23 14:50:37.092,1.4993174254393142
2025-03-23 14:50:37.092,-6.21928917603575
2025-03-23 14:50:37.092,-7.025709075968463
2025-03-23 14:50:37.092,0.41791803679748435
2025-03-23 14:50:37.100,7.4094937727599275
2025-03-23 14:50:37.100,5.554895307052981
2025-03-23 14:50:37.100,-2.8077156977213478
2025-03-23 14:50:37.101,-7.391185297924948
2025-03-23 14:50:37.110,-2.778021403992706
2025-03-23 14:50:37.110,4.9418803494526005
2025-03-23 14:50:37.110,6.123085741681408
2025-03-23 14:50:37.110,-0.2961483418188586
2025-03-23 14:50:37.110,-5.945567749379122
2025-03-23 14:50:37.120,-3.954922547809881
2025-03-23 14:50:37.120,2.709146587128669
2025-03-23 14:50:37.120,5.622530817270369
2025-03-23 14:50:37.120,1.5504108824338767
2025-03-23 14:50:37.120,-4.145332010290158
2025-03-23 14:50:37.130,-4.652389241359629
2025-03-23 14:50:37.130,0.23738950771757533
2025-03-23 14:50:37.130,4.623081045419509
2025-03-23 14:50:37.130,3.823087710967174
2025-03-23 14:50:37.131,-0.7054736760332634
2025-03-23 14:50:37.140,-3.9559926511921146
2025-03-23 14:50:37.140,-3.2534341146319385
2025-03-23 14:50:37.140,-0.2449776666275557
2025-03-23 14:50:37.140,2.150833815615949
2025-03-23 14:50:37.140,2.778442297172446
2025-03-23 14:50:37.150,1.9054261514013369
2025-03-23 14:50:37.150,-0.13996178941507662
2025-03-23 14:50:37.150,-2.514886040242033
2025-03-23 14:50:37.150,-3.2409230897429535
2025-03-23 14:50:37.151,-1.0036313985051137
2025-03-23 14:50:37.160,2.519717260915678
2025-03-23 14:50:37.160,3.7531754113118763
2025-03-23 14:50:37.160,1.224837569894606
2025-03-23 14:50:37.160,-2.4869178087171315
2025-03-23 14:50:37.160,-3.527487493153585
2025-03-23 14:50:37.170,-1.0112412834679696
2025-03-23 14:50:37.170,2.1744040723011753
2025-03-23 14:50:37.170,2.7080375096903877
2025-03-23 14:50:37.170,0.42690901813723026
2025-03-23 14:50:37.170,-1.7600714237030979
2025-03-23 14:50:37.179,-1.42132805716183
2025-03-23 14:50:37.180,0.5743790435918799
2025-03-23 14:50:37.180,1.4067173321822446
2025-03-23 14:50:37.180,0.07736765457450027
2025-03-23 14:50:37.180,-1.4071441978365866
2025-03-23 14:50:37.190,-0.9622712956460073
2025-03-23 14:50:37.190,0.7288725230056757
2025-03-23 14:50:37.190,1.3670805733897504
2025-03-23 14:50:37.190,0.30605904220508173
2025-03-23 14:50:37.190,-0.7651443876506165
2025-03-23 14:50:37.199,-0.4562940681348487
2025-03-23 14:50:37.200,0.3860116150666094
2025-03-23 14:50:37.200,0.20369063607085608
2025-03-23 14:50:37.200,-0.7320656087589026
2025-03-23 14:50:37.200,-0.7054224891858258
2025-03-23 14:50:37.210,0.6663072486231819
2025-03-23 14:50:37.210,1.5501138285276042
2025-03-23 14:50:37.210,0.45210273990457556
2025-03-23 14:50:37.210,-1.4596165321980794
2025-03-23 14:50:37.210,-1.7483802184275177
2025-03-23 14:50:37.218,0.0308424164001858
2025-03-23 14:50:37.218,1.724277573124549
2025-03-23 14:50:37.218,1.4156891983330628
2025-03-23 14:50:37.219,-0.21654650312385143
2025-03-23 14:50:37.219,-1.1035085011889396
2025-03-23 14:50:37.230,-0.6244164663645992
2025-03-23 14:50:37.230,-0.07028569094464501
2025-03-23 14:50:37.230,-0.34539263789665575
2025-03-23 14:50:37.230,-0.5079670184402829
2025-03-23 14:50:37.230,0.6065050037177842
2025-03-23 14:50:37.238,2.094379801737982
2025-03-23 14:50:37.238,1.6637935708164673
2025-03-23 14:50:37.238,-1.1650502648234868
2025-03-23 14:50:37.239,-3.6318236416241554
2025-03-23 14:50:37.248,-2.5422315878815502
2025-03-23 14:50:37.248,1.683095278227034
2025-03-23 14:50:37.248,4.787412183705046
2025-03-23 14:50:37.248,3.1218432161341307
2025-03-23 14:50:37.249,-2.047817286762464
2025-03-23 14:50:37.249,-5.468228747990673
2025-03-23 14:50:37.258,-3.4513110293223352
2025-03-23 14:50:37.258,2.0017907922543325
2025-03-23 14:50:37.258,5.3065347239415805
2025-03-23 14:50:37.259,3.3645976861150393
2025-03-23 14:50:37.268,-1.355503162076893
2025-03-23 14:50:37.268,-4.022557740413458
2025-03-23 14:50:37.268,-2.711326452134912
2025-03-23 14:50:37.268,0.35066655598808977
2025-03-23 14:50:37.269,2.072410325964878
2025-03-23 14:50:37.278,1.6573620923630157
2025-03-23 14:50:37.278,0.37682177194922417
2025-03-23 14:50:37.278,-0.4870183523095126
2025-03-23 14:50:37.278,-0.6019524516703051
2025-03-23 14:50:37.278,-0.2302429256523047
2025-03-23 14:50:37.288,0.06598273195376766
2025-03-23 14:50:37.288,-0.28129126212268896
2025-03-23 14:50:37.288,-0.9658728256529383
2025-03-23 14:50:37.288,-0.6613675937689989
2025-03-23 14:50:37.289,1.1624323203431963
2025-03-23 14:50:37.298,2.69212229304798
2025-03-23 14:50:37.298,1.519757036907258
2025-03-23 14:50:37.298,-1.9403123018653998
2025-03-23 14:50:37.298,-4.171259137938362
2025-03-23 14:50:37.298,-2.3628069759216648
2025-03-23 14:50:37.308,2.2096602319230176
2025-03-23 14:50:37.308,5.191122523497508
2025-03-23 14:50:37.308,3.3782755836430014
2025-03-23 14:50:37.308,-2.010036960103276
2025-03-23 14:50:37.308,-6.021074820509023
2025-03-23 14:50:37.318,-4.4109128011599275
2025-03-23 14:50:37.318,1.7918783443759987
2025-03-23 14:50:37.318,6.564722845690153
2025-03-23 14:50:37.318,4.918089322310228
2025-03-23 14:50:37.318,-1.4821529986475723
2025-03-23 14:50:37.328,-6.046315990056939
2025-03-23 14:50:37.328,-4.63739838664992
2025-03-23 14:50:37.328,0.39210627355426597
2025-03-23 14:50:37.328,3.9145599428664557
2025-03-23 14:50:37.328,3.817177911576959
2025-03-23 14:50:37.337,1.704967319517938
2025-03-23 14:50:37.338,-0.6090181630786725
2025-03-23 14:50:37.338,-2.794429082269621
2025-03-23 14:50:37.338,-4.17256733350133
2025-03-23 14:50:37.338,-2.774794559172643
2025-03-23 14:50:37.348,1.8652601663707165
2025-03-23 14:50:37.348,6.102475433135164
2025-03-23 14:50:37.348,5.010912091680715
2025-03-23 14:50:37.348,-1.4107475484178797
2025-03-23 14:50:37.348,-6.834329518959738
2025-03-23 14:50:37.358,-5.274946929168792
2025-03-23 14:50:37.358,1.6374842204800997
2025-03-23 14:50:37.358,6.216690291190147
2025-03-23 14:50:37.358,3.746871400616346
2025-03-23 14:50:37.358,-2.1881887814452132
2025-03-23 14:50:37.368,-4.6085583501042615
2025-03-23 14:50:37.368,-1.6074177778366086
2025-03-23 14:50:37.368,2.315938779782641
2025-03-23 14:50:37.368,2.6891657921435836
2025-03-23 14:50:37.368,0.14256196854758565
2025-03-23 14:50:37.376,-1.6893667845363336
2025-03-23 14:50:37.376,-1.1702316237440253
2025-03-23 14:50:37.376,0.22427358969071953
2025-03-23 14:50:37.377,0.7704288868379362
2025-03-23 14:50:37.386,0.46759521969733775
2025-03-23 14:50:37.386,0.08291977471445552
2025-03-23 14:50:37.386,-0.19884112615138558
2025-03-23 14:50:37.387,-0.4922623698117313
2025-03-23 14:50:37.387,-0.5030891527612699
2025-03-23 14:50:37.396,0.08268827054348474
2025-03-23 14:50:37.396,0.8484793190204586
2025-03-23 14:50:37.396,0.9065409015303818
2025-03-23 14:50:37.396,-0.0677865628534724
2025-03-23 14:50:37.397,-1.3076022426751333
2025-03-23 14:50:37.406,-1.5481419690873317
2025-03-23 14:50:37.406,-0.2336744273712421
2025-03-23 14:50:37.406,1.7234406160876854
2025-03-23 14:50:37.406,2.482162112250617
2025-03-23 14:50:37.407,0.9567394083858083
2025-03-23 14:50:37.416,-1.8044635373613893
2025-03-23 14:50:37.416,-3.2220096460337255
2025-03-23 14:50:37.416,-1.6908780303793973
2025-03-23 14:50:37.416,1.474161505888054
2025-03-23 14:50:37.416,3.1208725758214824
2025-03-23 14:50:37.426,1.620929094838825
2025-03-23 14:50:37.426,-1.1978996522734329
2025-03-23 14:50:37.426,-2.0366879591129066
2025-03-23 14:50:37.426,-0.057111213003552985
2025-03-23 14:50:37.427,1.8549433999924307
2025-03-23 14:50:37.435,0.511484091065073
2025-03-23 14:50:37.436,-3.0828818043788067
2025-03-23 14:50:37.436,-4.035131476523991
2025-03-23 14:50:37.436,0.527769713018001
2025-03-23 14:50:37.436,6.710125906428667
2025-03-23 14:50:37.444,7.133044138635327
2025-03-23 14:50:37.444,-0.3238067419067028
2025-03-23 14:50:37.444,-8.802731764425495
2025-03-23 14:50:37.445,-9.357825021462984
2025-03-23 14:50:37.445,-1.0431292263255643
2025-03-23 14:50:37.454,7.8657486549560005
2025-03-23 14:50:37.454,9.061474715552569
2025-03-23 14:50:37.454,2.7192865352965763
2025-03-23 14:50:37.455,-4.194782796793365
2025-03-23 14:50:37.464,-6.2270843391285835
2025-03-23 14:50:37.464,-3.8030205934861954
2025-03-23 14:50:37.464,-0.24775018247296401
2025-03-23 14:50:37.465,2.4363100536786577
2025-03-23 14:50:37.465,3.7893190819065206
2025-03-23 14:50:37.474,3.224411605967432
2025-03-23 14:50:37.474,0.49155867053115954
2025-03-23 14:50:37.474,-2.7116664565355917
2025-03-23 14:50:37.474,-3.6505026083671748
2025-03-23 14:50:37.474,-1.6318426476678112
2025-03-23 14:50:37.484,1.055940259383337
2025-03-23 14:50:37.484,1.9533238907812405
2025-03-23 14:50:37.484,1.2007051105457394
2025-03-23 14:50:37.484,0.5804216476873558
2025-03-23 14:50:37.484,0.5907449288462955
2025-03-23 14:50:37.494,-0.012006188608406118
2025-03-23 14:50:37.494,-1.6950496342677432
2025-03-23 14:50:37.494,-2.7110762688112
2025-03-23 14:50:37.494,-1.231188886582076
2025-03-23 14:50:37.494,1.8428463080319153
2025-03-23 14:50:37.502,3.5299195945490114
2025-03-23 14:50:37.502,2.209287009417145
2025-03-23 14:50:37.502,-0.7075515886164098
2025-03-23 14:50:37.502,-2.758165187961486
2025-03-23 14:50:37.512,-2.9215558332315847
2025-03-23 14:50:37.512,-1.5663993378671865
2025-03-23 14:50:37.512,0.8150773417569426
2025-03-23 14:50:37.512,3.4181604267453753
2025-03-23 14:50:37.513,4.2900841140509325
2025-03-23 14:50:37.522,1.5993776300573488
2025-03-23 14:50:37.522,-3.5329679184531524
2025-03-23 14:50:37.522,-6.6719310216595415
2025-03-23 14:50:37.522,-4.034454385564901
2025-03-23 14:50:37.522,2.9662417867955706
2025-03-23 14:50:37.531,8.089131544724271
2025-03-23 14:50:37.532,6.114419682985624
2025-03-23 14:50:37.532,-1.6013571488275975
2025-03-23 14:50:37.532,-8.014376669039908
2025-03-23 14:50:37.532,-7.230361191853329
2025-03-23 14:50:37.542,-0.2419993549776865
2025-03-23 14:50:37.542,6.353038157457036
2025-03-23 14:50:37.542,6.948314575962684
2025-03-23 14:50:37.542,1.8501783942060637
2025-03-23 14:50:37.542,-3.8672990663589926
2025-03-23 14:50:37.552,-5.489812716217576
2025-03-23 14:50:37.552,-2.5473792236859594
2025-03-23 14:50:37.552,1.6188217448702382
2025-03-23 14:50:37.552,3.45151976982438
2025-03-23 14:50:37.552,2.231692075468459
2025-03-23 14:50:37.560,-0.08431822053150712
2025-03-23 14:50:37.560,-1.4029172733998427
2025-03-23 14:50:37.560,-1.3321549655982032
2025-03-23 14:50:37.561,-0.7265313591475421
2025-03-23 14:50:37.571,-0.24608039834028123
2025-03-23 14:50:37.572,0.17450257217324777
2025-03-23 14:50:37.572,0.7742764341301499
2025-03-23 14:50:37.572,1.3580934153829853
2025-03-23 14:50:37.572,1.277633348224643
2025-03-23 14:50:37.572,0.007409599474037232
2025-03-23 14:50:37.580,-1.9932864832257113
2025-03-23 14:50:37.580,-3.017118122021672
2025-03-23 14:50:37.580,-1.4325563857610173
2025-03-23 14:50:37.581,2.148857885157435
2025-03-23 14:50:37.590,4.550762068771485
2025-03-23 14:50:37.590,2.9277217632114527
2025-03-23 14:50:37.590,-1.7869824602896136
2025-03-23 14:50:37.590,-5.13746113747041
2025-03-23 14:50:37.591,-3.6334750401776073
2025-03-23 14:50:37.600,1.218411197729777
2025-03-23 14:50:37.600,4.325063893478794
2025-03-23 14:50:37.600,2.7891629506039455
2025-03-23 14:50:37.600,-0.8222164570119317
2025-03-23 14:50:37.600,-2.0791234766882023
2025-03-23 14:50:37.610,-0.504133959750339
2025-03-23 14:50:37.610,0.41248898191613126
2025-03-23 14:50:37.610,-1.088108631889387
2025-03-23 14:50:37.611,-2.1500144197880453
2025-03-23 14:50:37.611,0.255755821039885
2025-03-23 14:50:37.620,4.056146883650953
2025-03-23 14:50:37.620,4.095499974450973
2025-03-23 14:50:37.620,-0.8248655233133164
2025-03-23 14:50:37.620,-5.598531121035809
2025-03-23 14:50:37.621,-4.73653242637371
2025-03-23 14:50:37.630,0.9199691780377945
2025-03-23 14:50:37.630,5.183485864455819
2025-03-23 14:50:37.630,3.8137700873150875
2025-03-23 14:50:37.630,-0.8824668985560721
2025-03-23 14:50:37.631,-3.3636252495657715
2025-03-23 14:50:37.640,-1.5550712216424643
2025-03-23 14:50:37.640,1.279745679171431
2025-03-23 14:50:37.640,1.3032962678537001
2025-03-23 14:50:37.640,-0.9931612567201213
2025-03-23 14:50:37.640,-1.9595441056764449
2025-03-23 14:50:37.650,0.0162178511250282
2025-03-23 14:50:37.650,2.412218958390317
2025-03-23 14:50:37.650,2.094045084899176
2025-03-23 14:50:37.650,-0.522669574291782
2025-03-23 14:50:37.650,-2.106402497548011
2025-03-23 14:50:37.658,-0.8512145285070967
2025-03-23 14:50:37.658,1.108141261747143
2025-03-23 14:50:37.659,0.6119494319338409
2025-03-23 14:50:37.659,-1.8911768646054028
2025-03-23 14:50:37.659,-2.4134292509095143
2025-03-23 14:50:37.670,1.1186048351116087
2025-03-23 14:50:37.670,5.075126016789235
2025-03-23 14:50:37.670,3.9351662893753807
2025-03-23 14:50:37.670,-2.316572388267297
2025-03-23 14:50:37.670,-7.031012183313144
2025-03-23 14:50:37.678,-4.522334764253983
2025-03-23 14:50:37.678,2.7071208060231458
2025-03-23 14:50:37.679,6.657899716532706
2025-03-23 14:50:37.679,3.4234983519999114
2025-03-23 14:50:37.679,-2.4557631681854417
2025-03-23 14:50:37.690,-4.202025783868019
2025-03-23 14:50:37.690,-1.089776385517931
2025-03-23 14:50:37.690,1.8174503372525965
2025-03-23 14:50:37.690,1.0986314303325577
2025-03-23 14:50:37.690,-1.0317658245095527
2025-03-23 14:50:37.698,-0.9207407575742615
2025-03-23 14:50:37.698,1.066948948119416
2025-03-23 14:50:37.698,1.6413230067499192
2025-03-23 14:50:37.699,-0.12495225118747631
2025-03-23 14:50:37.708,-1.5027124803787282
2025-03-23 14:50:37.708,-0.47391789012404806
2025-03-23 14:50:37.708,1.1182477458307882
2025-03-23 14:50:37.708,0.4515630339832481
2025-03-23 14:50:37.709,-1.73401219322468
2025-03-23 14:50:37.718,-1.886931332207856
2025-03-23 14:50:37.718,1.1083861584523527
2025-03-23 14:50:37.718,3.744978738709865
2025-03-23 14:50:37.718,2.276007206881872
2025-03-23 14:50:37.719,-2.0916274611507237
2025-03-23 14:50:37.728,-4.382531015590831
2025-03-23 14:50:37.728,-2.0505798292189463
2025-03-23 14:50:37.728,1.9636154831903223
2025-03-23 14:50:37.729,3.199473817971007
2025-03-23 14:50:37.729,1.166381144353757
2025-03-23 14:50:37.738,-0.8449239481973472
2025-03-23 14:50:37.738,-0.754449652935737
2025-03-23 14:50:37.738,-0.1364841855957839
2025-03-23 14:50:37.738,-0.9292264949057025
2025-03-23 14:50:37.738,-1.8617823387587114
2025-03-23 14:50:37.748,-0.365022932366115
2025-03-23 14:50:37.748,2.831832171241031
2025-03-23 14:50:37.748,3.7222709673736136
2025-03-23 14:50:37.748,0.3436395946304802
2025-03-23 14:50:37.748,-3.9730778626488163
2025-03-23 14:50:37.758,-4.329394363511926
2025-03-23 14:50:37.758,-0.2973865128998391
2025-03-23 14:50:37.758,3.6159958558307337
2025-03-23 14:50:37.758,3.5339119861567725
2025-03-23 14:50:37.758,0.4712878812561877
2025-03-23 14:50:37.768,-1.8039048497366728
2025-03-23 14:50:37.768,-1.6918846481869143
2025-03-23 14:50:37.768,-0.8016152310668248
2025-03-23 14:50:37.768,-0.644600357355563
2025-03-23 14:50:37.768,-0.43320687569349026
2025-03-23 14:50:37.778,1.039714694829322
2025-03-23 14:50:37.778,2.7533038761107815
2025-03-23 14:50:37.778,2.26031389884872
2025-03-23 14:50:37.778,-0.9213632731515871
2025-03-23 14:50:37.778,-3.917997554893243
2025-03-23 14:50:37.788,-3.370474990878573
2025-03-23 14:50:37.788,0.5350666109735897
2025-03-23 14:50:37.788,3.856136346378009
2025-03-23 14:50:37.788,3.224243220585201
2025-03-23 14:50:37.788,-0.2876196779652167
2025-03-23 14:50:37.796,-2.6097209647576225
2025-03-23 14:50:37.796,-1.6789615829128515
2025-03-23 14:50:37.796,0.42382750000084357
2025-03-23 14:50:37.797,0.768494138358532
2025-03-23 14:50:37.806,-0.4670746121317732
2025-03-23 14:50:37.806,-0.7540860432232509
2025-03-23 14:50:37.806,0.7803026975612029
2025-03-23 14:50:37.807,2.003929866210051
2025-03-23 14:50:37.807,0.9110592956177832
2025-03-23 14:50:37.807,-1.3995238684942524
2025-03-23 14:50:37.816,-2.1680799461045037
2025-03-23 14:50:37.816,-0.7135713645074833
2025-03-23 14:50:37.816,0.855287786162688
2025-03-23 14:50:37.817,0.817631524506492
2025-03-23 14:50:37.826,0.14865393871842486
2025-03-23 14:50:37.826,0.6040990700972482
2025-03-23 14:50:37.826,1.6048017428208556
2025-03-23 14:50:37.826,0.8325293970108198
2025-03-23 14:50:37.827,-2.060744966111191
2025-03-23 14:50:37.836,-4.062095275740102
2025-03-23 14:50:37.836,-2.198815040867693
2025-03-23 14:50:37.836,2.433708001133044
2025-03-23 14:50:37.836,5.33560666380423
2025-03-23 14:50:37.837,3.449052046594061
2025-03-23 14:50:37.846,-1.4728692799587033
2025-03-23 14:50:37.846,-4.770453814941518
2025-03-23 14:50:37.846,-3.703567259116361
2025-03-23 14:50:37.846,0.09604883826677121
2025-03-23 14:50:37.847,2.791854595069818
2025-03-23 14:50:37.856,2.419365209614198
2025-03-23 14:50:37.856,0.4790637936215881
2025-03-23 14:50:37.856,-0.44645613361044945
2025-03-23 14:50:37.856,-0.0027904365136859066
2025-03-23 14:50:37.857,-0.07108752866196306
2025-03-23 14:50:37.866,-1.5126493275977846
2025-03-23 14:50:37.866,-2.3904654845963065
2025-03-23 14:50:37.866,-0.5927281788104231
2025-03-23 14:50:37.866,2.6844391330551653
2025-03-23 14:50:37.867,3.810755100250947
2025-03-23 14:50:37.874,1.1610361874052502
2025-03-23 14:50:37.874,-2.7245297631824665
2025-03-23 14:50:37.875,-4.017541611692283
2025-03-23 14:50:37.875,-1.7444901113706432
2025-03-23 14:50:37.875,1.6426217422249767
2025-03-23 14:50:37.884,3.208556014177356
2025-03-23 14:50:37.884,2.1701029511446084
2025-03-23 14:50:37.884,-0.13608213589638202
2025-03-23 14:50:37.885,-1.8926986750042358
2025-03-23 14:50:37.894,-2.0804595523457063
2025-03-23 14:50:37.894,-0.8380630173205488
2025-03-23 14:50:37.894,0.764922095147342
2025-03-23 14:50:37.895,1.470059312105977
2025-03-23 14:50:37.895,0.870688891941618
2025-03-23 14:50:37.904,-0.21099079648989705
2025-03-23 14:50:37.904,-0.653870979719634
2025-03-23 14:50:37.904,-0.2949722812651283
2025-03-23 14:50:37.904,0.075927554234997
2025-03-23 14:50:37.904,-0.07973386613751823
2025-03-23 14:50:37.914,-0.34809722974525154
2025-03-23 14:50:37.914,-0.07325064027487974
2025-03-23 14:50:37.914,0.5958898274119387
2025-03-23 14:50:37.914,0.7846619393137101
2025-03-23 14:50:37.915,0.04810380483477606
2025-03-23 14:50:37.924,-0.871277182395737
2025-03-23 14:50:37.924,-0.8285629331728304
2025-03-23 14:50:37.924,0.189106071353823
2025-03-23 14:50:37.924,0.8743822127570582
2025-03-23 14:50:37.925,0.30039683869704614
2025-03-23 14:50:37.934,-0.7267364744758408
2025-03-23 14:50:37.934,-0.6890261895823654
2025-03-23 14:50:37.934,0.5510132724243
2025-03-23 14:50:37.934,1.4493383903894073
2025-03-23 14:50:37.935,0.6615602886586212
2025-03-23 14:50:37.944,-1.2702982158940859
2025-03-23 14:50:37.944,-2.328206517579288
2025-03-23 14:50:37.944,-1.0375788597422602
2025-03-23 14:50:37.944,1.8180089231099321
2025-03-23 14:50:37.945,3.4743806974433262
2025-03-23 14:50:37.954,1.7089164053707218
2025-03-23 14:50:37.954,-2.408454826937028
2025-03-23 14:50:37.954,-4.788326016363827
2025-03-23 14:50:37.955,-2.3987325362900886
2025-03-23 14:50:37.955,2.893121031847942
2025-03-23 14:50:37.964,5.694470298219502
2025-03-23 14:50:37.964,2.8891527512396795
2025-03-23 14:50:37.964,-2.7559175100765967
2025-03-23 14:50:37.964,-5.576646718471349
2025-03-23 14:50:37.965,-3.0747803833117406
2025-03-23 14:50:37.974,1.85967694946851
2025-03-23 14:50:37.974,4.47153455663226
2025-03-23 14:50:37.974,2.888574771163481
2025-03-23 14:50:37.974,-0.759216468324082
2025-03-23 14:50:37.974,-3.039830907704873
2025-03-23 14:50:37.984,-2.3942150215216564
2025-03-23 14:50:37.984,0.02580338280261224
2025-03-23 14:50:37.984,1.937748866844873
2025-03-23 14:50:37.984,1.9855013413116227
2025-03-23 14:50:37.985,0.45454052266442735
2025-03-23 14:50:37.994,-1.3988436569722076
2025-03-23 14:50:37.994,-2.217446658775405
2025-03-23 14:50:37.994,-1.1606590794591516
2025-03-23 14:50:37.994,1.3097972660583252
2025-03-23 14:50:37.994,3.1037561504728
2025-03-23 14:50:38.004,2.0779243632887257
2025-03-23 14:50:38.004,-1.335896821499276
2025-03-23 14:50:38.004,-3.8579991491744505
2025-03-23 14:50:38.004,-2.7085328128473867
2025-03-23 14:50:38.004,1.0917672627186317
2025-03-23 14:50:38.014,3.6998180356608925
2025-03-23 14:50:38.014,2.692308723335711
2025-03-23 14:50:38.014,-0.5097243149625592
2025-03-23 14:50:38.014,-2.6162498777760446
2025-03-23 14:50:38.014,-2.0445240863632628
2025-03-23 14:50:38.022,-0.022875007514077283
2025-03-23 14:50:38.022,1.2974173739502137
2025-03-23 14:50:38.023,1.0635968597925165
2025-03-23 14:50:38.023,0.08801307688105009
2025-03-23 14:50:38.023,-0.4383249112281105
2025-03-23 14:50:38.032,-0.22210723621173825
2025-03-23 14:50:38.032,0.13799046778096374
2025-03-23 14:50:38.033,0.14350252094409163
2025-03-23 14:50:38.033,-0.03054661045620648
2025-03-23 14:50:38.033,-0.05247414606839846
2025-03-23 14:50:38.042,-0.06638381512148356
2025-03-23 14:50:38.042,-0.3491622835397095
2025-03-23 14:50:38.043,-0.5671354091892127
2025-03-23 14:50:38.043,-0.05496137084608609
2025-03-23 14:50:38.052,0.9853719986173317
2025-03-23 14:50:38.052,1.2515990455326547
2025-03-23 14:50:38.052,-0.014874292733127951
2025-03-23 14:50:38.053,-1.5467145375502958
2025-03-23 14:50:38.053,-1.283918877126425
2025-03-23 14:50:38.062,0.7526115710459351
2025-03-23 14:50:38.062,1.9868121599039381
2025-03-23 14:50:38.062,0.5034665825318638
2025-03-23 14:50:38.062,-2.1007830983121787
2025-03-23 14:50:38.063,-2.407537521279501
2025-03-23 14:50:38.072,0.40798619583483486
2025-03-23 14:50:38.072,3.234331096744057
2025-03-23 14:50:38.072,2.7357003577037506
2025-03-23 14:50:38.072,-0.5777132344229995
2025-03-23 14:50:38.073,-3.108968208840867
2025-03-23 14:50:38.082,-2.566290792344024
2025-03-23 14:50:38.082,-0.2330368684729466
2025-03-23 14:50:38.082,1.345314909787191
2025-03-23 14:50:38.082,1.529870640138396
2025-03-23 14:50:38.082,1.3978813910241736
2025-03-23 14:50:38.092,1.2701533485697352
2025-03-23 14:50:38.092,0.15658385052570717
2025-03-23 14:50:38.092,-2.037694444983187
2025-03-23 14:50:38.092,-3.278008518524876
2025-03-23 14:50:38.092,-1.649638064783174
2025-03-23 14:50:38.100,1.7647690846678672
2025-03-23 14:50:38.100,3.650950405633901
2025-03-23 14:50:38.101,2.221639356515546
2025-03-23 14:50:38.101,-0.8339621150574793
2025-03-23 14:50:38.112,-2.518316203222992
2025-03-23 14:50:38.112,-1.809496110175611
2025-03-23 14:50:38.112,-0.1552005267821972
2025-03-23 14:50:38.112,0.7643705431164721
2025-03-23 14:50:38.112,0.8022739899591513
2025-03-23 14:50:38.112,0.7370562023169654
2025-03-23 14:50:38.120,0.738570740328754
2025-03-23 14:50:38.120,0.23866417278889404
2025-03-23 14:50:38.120,-0.8283679798593732
2025-03-23 14:50:38.121,-1.4820771831323059
2025-03-23 14:50:38.130,-0.8145670181968456
2025-03-23 14:50:38.130,0.711944169437575
2025-03-23 14:50:38.130,1.5798873257859471
2025-03-23 14:50:38.130,0.8477385980307536
2025-03-23 14:50:38.131,-0.7937293825411567
2025-03-23 14:50:38.140,-1.6789252757351891
2025-03-23 14:50:38.140,-0.8012132107486954
2025-03-23 14:50:38.140,1.1528248341443121
2025-03-23 14:50:38.140,2.2874315392155524
2025-03-23 14:50:38.140,1.1975933506983463
2025-03-23 14:50:38.150,-1.475538092427745
2025-03-23 14:50:38.150,-3.2503385218265106
2025-03-23 14:50:38.150,-2.0476456539806587
2025-03-23 14:50:38.151,1.4801693718380502
2025-03-23 14:50:38.151,4.093468903988498
2025-03-23 14:50:38.160,2.937656761597472
2025-03-23 14:50:38.160,-1.321717188783861
2025-03-23 14:50:38.160,-4.6114657990621
2025-03-23 14:50:38.160,-3.38434654955086
2025-03-23 14:50:38.161,1.3735111134927807
2025-03-23 14:50:38.170,4.763942518651475
2025-03-23 14:50:38.170,3.155463037708514
2025-03-23 14:50:38.170,-1.7187446417825059
2025-03-23 14:50:38.170,-4.56040428995094
2025-03-23 14:50:38.170,-2.3361960870246574
2025-03-23 14:50:38.178,2.3405614119304623
2025-03-23 14:50:38.178,4.103947884158637
2025-03-23 14:50:38.179,0.9520016013180206
2025-03-23 14:50:38.179,-3.3059156840572226
2025-03-23 14:50:38.179,-3.435333232524373
2025-03-23 14:50:38.190,0.8664121187621042
2025-03-23 14:50:38.190,4.428488075856937
2025-03-23 14:50:38.190,2.8159854162215106
2025-03-23 14:50:38.190,-2.3282676398556337
2025-03-23 14:50:38.190,-5.310564515949291
2025-03-23 14:50:38.198,-2.9265788141736837
2025-03-23 14:50:38.198,2.386581630956386
2025-03-23 14:50:38.199,5.614181364056686
2025-03-23 14:50:38.199,4.068373151564969
2025-03-23 14:50:38.199,-0.7707605137611655
2025-03-23 14:50:38.208,-5.010835277258525
2025-03-23 14:50:38.208,-5.432405011229295
2025-03-23 14:50:38.209,-1.7574749567493635
2025-03-23 14:50:38.209,3.223547618041465
2025-03-23 14:50:38.209,5.791668047656504
2025-03-23 14:50:38.218,4.097132060091222
2025-03-23 14:50:38.218,-0.5447006230930296
2025-03-23 14:50:38.218,-4.672557613599404
2025-03-23 14:50:38.219,-5.224924644292456
2025-03-23 14:50:38.228,-1.9309328256987304
2025-03-23 14:50:38.228,2.401769258130825
2025-03-23 14:50:38.229,4.351466397069158
2025-03-23 14:50:38.229,2.952081687538622
2025-03-23 14:50:38.229,0.1770115333488039
2025-03-23 14:50:38.229,-1.5582854068369423
2025-03-23 14:50:38.238,-1.824783453439757
2025-03-23 14:50:38.238,-1.799588760016989
2025-03-23 14:50:38.238,-1.9591644710950749
2025-03-23 14:50:38.239,-1.128166270025084
2025-03-23 14:50:38.248,1.6187457923334634
2025-03-23 14:50:38.248,4.618167324684744
2025-03-23 14:50:38.248,4.4369097491161975
2025-03-23 14:50:38.248,-0.1472124267892375
2025-03-23 14:50:38.249,-5.548305582311078
2025-03-23 14:50:38.258,-6.250215043833522
2025-03-23 14:50:38.258,-0.9806081597434296
2025-03-23 14:50:38.258,5.0705983568052515
2025-03-23 14:50:38.258,5.6269630471780845
2025-03-23 14:50:38.258,0.5314816878435852
2025-03-23 14:50:38.268,-4.112759397685401
2025-03-23 14:50:38.268,-3.2957621316537944
2025-03-23 14:50:38.268,1.1660730581477132
2025-03-23 14:50:38.268,3.4368022775959566
2025-03-23 14:50:38.268,0.9775651317767307
2025-03-23 14:50:38.276,-2.817067782238565
2025-03-23 14:50:38.276,-3.2399370286948197
2025-03-23 14:50:38.277,0.1379760179020139
2025-03-23 14:50:38.277,3.4045963363130483
2025-03-23 14:50:38.277,3.0781541285573577
2025-03-23 14:50:38.286,-0.156173811388419
2025-03-23 14:50:38.286,-2.659139303666993
2025-03-23 14:50:38.287,-2.156288963466645
2025-03-23 14:50:38.287,-0.06639509278804911
2025-03-23 14:50:38.287,0.7820320852219453
2025-03-23 14:50:38.296,0.008601624765321919
2025-03-23 14:50:38.296,-0.08798112514321105
2025-03-23 14:50:38.297,1.6559404621800093
2025-03-23 14:50:38.297,2.8942502643223325
2025-03-23 14:50:38.306,0.7440800652660893
2025-03-23 14:50:38.306,-3.608038406441589
2025-03-23 14:50:38.306,-5.341317812811651
2025-03-23 14:50:38.306,-1.7061511272497352
2025-03-23 14:50:38.307,4.104530749646875
2025-03-23 14:50:38.316,6.161277219496108
2025-03-23 14:50:38.316,2.455576871566498
2025-03-23 14:50:38.316,-3.005117209501399
2025-03-23 14:50:38.316,-4.96480239266533
2025-03-23 14:50:38.316,-2.5034687860328164
2025-03-23 14:50:38.326,0.9920184995894357
2025-03-23 14:50:38.326,2.429315158840074
2025-03-23 14:50:38.326,1.9157501939034178
2025-03-23 14:50:38.326,1.0481186819482262
2025-03-23 14:50:38.327,0.1701474540393571
2025-03-23 14:50:38.336,-1.2573856627021949
2025-03-23 14:50:38.336,-2.495682746570238
2025-03-23 14:50:38.336,-1.7679140311082586
2025-03-23 14:50:38.336,0.9697499446353495
2025-03-23 14:50:38.336,3.0609864545508065
2025-03-23 14:50:38.346,2.0592768889774837
2025-03-23 14:50:38.346,-1.070935220334456
2025-03-23 14:50:38.346,-2.8130543806999855
2025-03-23 14:50:38.346,-1.252608703155117
2025-03-23 14:50:38.346,1.509285804589956
2025-03-23 14:50:38.354,1.9017135175248638
2025-03-23 14:50:38.354,-0.45950489510200304
2025-03-23 14:50:38.355,-2.0748708725130274
2025-03-23 14:50:38.355,-0.3072578011612771
2025-03-23 14:50:38.355,2.571785894184287
2025-03-23 14:50:38.364,2.1347354612752856
2025-03-23 14:50:38.364,-1.781541319268144
2025-03-23 14:50:38.365,-4.089250435937243
2025-03-23 14:50:38.365,-1.1328243412266399
2025-03-23 14:50:38.374,3.798638720316013
2025-03-23 14:50:38.374,4.258232766884262
2025-03-23 14:50:38.374,-0.7563152654792521
2025-03-23 14:50:38.375,-5.0465586773351285
2025-03-23 14:50:38.375,-3.099192286855292
2025-03-23 14:50:38.384,2.691901731700713
2025-03-23 14:50:38.384,5.059607767674066
2025-03-23 14:50:38.384,1.1645236795327036
2025-03-23 14:50:38.385,-3.940685211873884
2025-03-23 14:50:38.385,-3.9342462238526412
2025-03-23 14:50:38.394,0.8546183956242216
2025-03-23 14:50:38.394,4.263741407684464
2025-03-23 14:50:38.394,2.293371773031421
2025-03-23 14:50:38.394,-2.2189806452945877
2025-03-23 14:50:38.394,-3.7340405798926812
2025-03-23 14:50:38.404,-0.9196580500873871
2025-03-23 14:50:38.404,2.434310475604467
2025-03-23 14:50:38.404,2.6734340677591795
2025-03-23 14:50:38.405,0.32434919529017164
2025-03-23 14:50:38.405,-1.5838016629201888
2025-03-23 14:50:38.414,-1.5241380750334617
2025-03-23 14:50:38.414,-0.46331107673272365
2025-03-23 14:50:38.414,0.2718295086282066
2025-03-23 14:50:38.414,0.5131740923432094
2025-03-23 14:50:38.415,0.6425918450247786
2025-03-23 14:50:38.424,0.6960310688219988
2025-03-23 14:50:38.424,0.4716323752988473
2025-03-23 14:50:38.424,-0.10516980688435625
2025-03-23 14:50:38.424,-0.9102659720073475
2025-03-23 14:50:38.425,-1.477286724469065
2025-03-23 14:50:38.434,-1.0431369668547343
2025-03-23 14:50:38.434,0.5867737157661452
2025-03-23 14:50:38.434,2.1973680094087173
2025-03-23 14:50:38.434,2.005725701102999
2025-03-23 14:50:38.435,-0.19238699151265776
2025-03-23 14:50:38.444,-2.2904857912241186
2025-03-23 14:50:38.444,-2.0554140883022534
2025-03-23 14:50:38.444,0.14420420948063264
2025-03-23 14:50:38.444,1.6857365481288318
2025-03-23 14:50:38.445,0.9520043379632096
2025-03-23 14:50:38.454,-0.6877888775810191
2025-03-23 14:50:38.454,-0.8149148618673578
2025-03-23 14:50:38.454,0.7781319510904519
2025-03-23 14:50:38.454,1.8044141486826202
2025-03-23 14:50:38.455,0.4819798606171127
2025-03-23 14:50:38.464,-2.0650889071060954
2025-03-23 14:50:38.464,-2.9988318617127714
2025-03-23 14:50:38.464,-1.054914183178056
2025-03-23 14:50:38.464,2.017255213886018
2025-03-23 14:50:38.465,3.4075999902830993
2025-03-23 14:50:38.474,2.104966700100365
2025-03-23 14:50:38.474,-0.5199450494344904
2025-03-23 14:50:38.474,-2.5034731256244322
2025-03-23 14:50:38.474,-2.921408772134778
2025-03-23 14:50:38.474,-1.8040814521744921
2025-03-23 14:50:38.482,0.5248549431288823
2025-03-23 14:50:38.482,3.139116490054551
2025-03-23 14:50:38.483,4.065878913654136
2025-03-23 14:50:38.483,1.6753527298071238
2025-03-23 14:50:38.483,-2.8288055365850484
2025-03-23 14:50:38.494,-5.405144814570511
2025-03-23 14:50:38.494,-3.0759547797258877
2025-03-23 14:50:38.494,2.269183639564771
2025-03-23 14:50:38.494,5.293905525148876
2025-03-23 14:50:38.495,3.0190974765961607
2025-03-23 14:50:38.502,-1.7602920045385364
2025-03-23 14:50:38.503,-3.8255526990744646
2025-03-23 14:50:38.503,-1.6319990753176963
2025-03-23 14:50:38.503,1.3858773357965255
2025-03-23 14:50:38.503,1.6124834720957546
2025-03-23 14:50:38.514,-0.3082010664695173
2025-03-23 14:50:38.514,-0.9779363614739546
2025-03-23 14:50:38.514,0.7297676558069831
2025-03-23 14:50:38.514,2.051205757811172
2025-03-23 14:50:38.514,0.3291961365668766
2025-03-23 14:50:38.522,-2.849480094956476
2025-03-23 14:50:38.522,-3.2686991497945046
2025-03-23 14:50:38.523,0.37158980123949276
2025-03-23 14:50:38.523,4.32797850703257
2025-03-23 14:50:38.523,4.07042768221004
2025-03-23 14:50:38.532,-0.41342091253354823
2025-03-23 14:50:38.532,-4.653643629551862
2025-03-23 14:50:38.533,-4.60345892684786
2025-03-23 14:50:38.533,-0.5865325090599522
2025-03-23 14:50:38.542,3.574363915628845
2025-03-23 14:50:38.542,4.52756499597274
2025-03-23 14:50:38.542,2.106319474038531
2025-03-23 14:50:38.542,-1.3456813691536962
2025-03-23 14:50:38.542,-3.431463739997453
2025-03-23 14:50:38.552,-3.2257484647982375
2025-03-23 14:50:38.552,-1.1439810296599726
2025-03-23 14:50:38.552,1.6274576354978227
2025-03-23 14:50:38.553,3.4103283591978863
2025-03-23 14:50:38.553,2.7513292317904994
2025-03-23 14:50:38.562,-0.1367864859988588
2025-03-23 14:50:38.562,-2.869743515247388
2025-03-23 14:50:38.562,-2.8681753289658207
2025-03-23 14:50:38.563,-0.2020615767788668
2025-03-23 14:50:38.563,2.2273571934626704
2025-03-23 14:50:38.572,1.863377038873011
2025-03-23 14:50:38.572,-0.5777938452482125
2025-03-23 14:50:38.572,-1.9779699003683577
2025-03-23 14:50:38.573,-0.5461368237926247
2025-03-23 14:50:38.573,1.9491522281618925
2025-03-23 14:50:38.582,2.1761290105379807
2025-03-23 14:50:38.582,-0.6537359660849867
2025-03-23 14:50:38.582,-3.41054612614276
2025-03-23 14:50:38.583,-2.453185587518266
2025-03-23 14:50:38.583,1.7830462913151799
2025-03-23 14:50:38.592,4.612892171388531
2025-03-23 14:50:38.592,2.2785662577794588
2025-03-23 14:50:38.592,-3.1541057529814505
2025-03-23 14:50:38.593,-5.436546940413071
2025-03-23 14:50:38.593,-1.3350078297773231
2025-03-23 14:50:38.602,4.91179386871525
2025-03-23 14:50:38.602,5.942203979614512
2025-03-23 14:50:38.602,-0.010818861024625925
2025-03-23 14:50:38.602,-6.524278334635498
2025-03-23 14:50:38.603,-6.153817222232116
2025-03-23 14:50:38.612,0.9023381847506307
2025-03-23 14:50:38.612,6.997569445722888
2025-03-23 14:50:38.612,5.810317159245473
2025-03-23 14:50:38.612,-0.8213744545072885
2025-03-23 14:50:38.612,-5.71655439295597
2025-03-23 14:50:38.622,-4.626640183698857
2025-03-23 14:50:38.622,0.01710735152224574
2025-03-23 14:50:38.622,3.145439164567106
2025-03-23 14:50:38.622,2.7633191717191554
2025-03-23 14:50:38.622,0.7744517048635738
2025-03-23 14:50:38.632,-0.4987637704914319
2025-03-23 14:50:38.632,-0.8332156500798266
2025-03-23 14:50:38.632,-1.0657645865921568
2025-03-23 14:50:38.632,-1.1061451174321677
2025-03-23 14:50:38.632,-0.2804333980922441
2025-03-23 14:50:38.640,0.9098764674764681
2025-03-23 14:50:38.640,1.007450708418747
2025-03-23 14:50:38.641,-0.09124754878199863
2025-03-23 14:50:38.641,-0.5587497785239971
2025-03-23 14:50:38.641,0.6436005436938982
2025-03-23 14:50:38.650,1.7109276769694104
2025-03-23 14:50:38.650,0.30484046609313253
2025-03-23 14:50:38.651,-2.648584847154727
2025-03-23 14:50:38.651,-3.466298446749864
2025-03-23 14:50:38.651,-0.4416565241761513
2025-03-23 14:50:38.660,3.558252917239436
2025-03-23 14:50:38.660,4.288803193050249
2025-03-23 14:50:38.661,1.010530012799717
2025-03-23 14:50:38.661,-2.915519385908581
2025-03-23 14:50:38.670,-3.898880692204319
2025-03-23 14:50:38.670,-1.610156524791124
2025-03-23 14:50:38.671,1.3806959415947078
2025-03-23 14:50:38.671,2.6096454067506167
2025-03-23 14:50:38.671,1.7998209372392733
2025-03-23 14:50:38.671,0.23722259656123282
2025-03-23 14:50:38.680,-1.010032586524576
2025-03-23 14:50:38.680,-1.638359263715601
2025-03-23 14:50:38.681,-1.4356883928755249
2025-03-23 14:50:38.681,-0.20759870879113995
2025-03-23 14:50:38.690,1.4053865002062276
2025-03-23 14:50:38.690,1.94800245971117
2025-03-23 14:50:38.690,0.6766461966178692
2025-03-23 14:50:38.691,-1.2532301303122235
2025-03-23 14:50:38.691,-1.794232619066473
2025-03-23 14:50:38.700,-0.34957833934582716
2025-03-23 14:50:38.700,1.3478920629741804
2025-03-23 14:50:38.700,1.177102478637745
2025-03-23 14:50:38.701,-0.7001920675862995
2025-03-23 14:50:38.701,-1.8246385343591767
2025-03-23 14:50:38.710,-0.4558152603842472
2025-03-23 14:50:38.710,2.013657617088793
2025-03-23 14:50:38.710,2.524012637374794
2025-03-23 14:50:38.710,0.11622955172881941
2025-03-23 14:50:38.711,-2.7428911957921955
2025-03-23 14:50:38.718,-3.006709662127283
2025-03-23 14:50:38.719,-0.46085019645245734
2025-03-23 14:50:38.719,2.3424439412412688
2025-03-23 14:50:38.719,2.9964182366348453
2025-03-23 14:50:38.719,1.3207566924708956
2025-03-23 14:50:38.730,-1.0961857365026633
2025-03-23 14:50:38.730,-2.5192861259235677
2025-03-23 14:50:38.730,-2.1546580045173473
2025-03-23 14:50:38.730,-0.3602496200411067
2025-03-23 14:50:38.731,1.6712109041163308
2025-03-23 14:50:38.738,2.549128336872469
2025-03-23 14:50:38.738,1.5588338661978534
2025-03-23 14:50:38.739,-0.6447280495480169
2025-03-23 14:50:38.739,-2.323869601838526
2025-03-23 14:50:38.750,-2.0996930734995143
2025-03-23 14:50:38.750,-0.27423487268546043
2025-03-23 14:50:38.750,1.4690183618993298
2025-03-23 14:50:38.750,1.742884281035745
2025-03-23 14:50:38.750,0.7083012106511785
2025-03-23 14:50:38.750,-0.3591099582297825
2025-03-23 14:50:38.758,-0.5864292842507928
2025-03-23 14:50:38.758,-0.36046249478653103
2025-03-23 14:50:38.759,-0.5268472936394826
2025-03-23 14:50:38.759,-0.9609937357361055
2025-03-23 14:50:38.768,-0.5510755997913168
2025-03-23 14:50:38.768,1.0651087702566615
2025-03-23 14:50:38.768,2.335716886663305
2025-03-23 14:50:38.769,1.3535979489289676
2025-03-23 14:50:38.769,-1.3782218985103631
2025-03-23 14:50:38.778,-2.9302417074874656
2025-03-23 14:50:38.778,-1.4558064052877282
2025-03-23 14:50:38.778,1.3000816382680198
2025-03-23 14:50:38.779,2.263721883168329
2025-03-23 14:50:38.779,1.0003837719261757
2025-03-23 14:50:38.788,-0.34041994346455795
2025-03-23 14:50:38.788,-0.6017085797929055
2025-03-23 14:50:38.788,-0.8254709348522691
2025-03-23 14:50:38.789,-1.484837203749073
2025-03-23 14:50:38.789,-0.9914865802819762
2025-03-23 14:50:38.798,1.4463107033711837
2025-03-23 14:50:38.798,3.3204511942160906
2025-03-23 14:50:38.798,1.635630379657203
2025-03-23 14:50:38.799,-2.418538627207874
2025-03-23 14:50:38.799,-4.1720765858057725
2025-03-23 14:50:38.808,-1.3389804415803488
2025-03-23 14:50:38.808,2.8787222505511876
2025-03-23 14:50:38.808,3.725856890749593
2025-03-23 14:50:38.809,0.6075555081657316
2025-03-23 14:50:38.809,-2.6063741165774514
2025-03-23 14:50:38.818,-2.471583855137083
2025-03-23 14:50:38.818,0.26938286807706635
2025-03-23 14:50:38.818,2.127909074698596
2025-03-23 14:50:38.818,1.1448032094967457
2025-03-23 14:50:38.819,-1.116474487048123
2025-03-23 14:50:38.828,-1.7761970061686034
2025-03-23 14:50:38.828,-0.1351371836441874
2025-03-23 14:50:38.828,1.627653714123714
2025-03-23 14:50:38.828,1.2534123694675166
2025-03-23 14:50:38.829,-0.7238073874420135
2025-03-23 14:50:38.836,-1.6405588664650836
2025-03-23 14:50:38.836,-0.2042406917121169
2025-03-23 14:50:38.837,1.676320935515755
2025-03-23 14:50:38.837,1.32091387554844
2025-03-23 14:50:38.846,-1.0849403330328946
2025-03-23 14:50:38.846,-2.5131975976008483
2025-03-23 14:50:38.846,-0.9251540936891585
2025-03-23 14:50:38.847,1.9800264718334033
2025-03-23 14:50:38.847,2.7300264085795334
2025-03-23 14:50:38.856,0.40210698715824045
2025-03-23 14:50:38.856,-2.1956008530340294
2025-03-23 14:50:38.856,-2.0726150332210374
2025-03-23 14:50:38.856,0.2696928637976752
2025-03-23 14:50:38.857,1.7962806004819272
2025-03-23 14:50:38.866,0.969756165419922
2025-03-23 14:50:38.866,-0.6609161422899527
2025-03-23 14:50:38.866,-1.0032926928401713
2025-03-23 14:50:38.866,-0.11603436536865282
2025-03-23 14:50:38.867,0.4539611470613758
2025-03-23 14:50:38.876,0.1195391116315348
2025-03-23 14:50:38.876,-0.18842312583111298
2025-03-23 14:50:38.876,0.2092605848230678
2025-03-23 14:50:38.876,0.5762540418374552
2025-03-23 14:50:38.876,-0.03461229947791471
2025-03-23 14:50:38.886,-1.081256245952047
2025-03-23 14:50:38.886,-0.9956797600030153
2025-03-23 14:50:38.886,0.6090895816829933
2025-03-23 14:50:38.886,2.0084747589708014
2025-03-23 14:50:38.886,1.2731985953312779
2025-03-23 14:50:38.894,-1.1719289257242615
2025-03-23 14:50:38.894,-2.7098260096035363
2025-03-23 14:50:38.895,-1.5243338672572615
2025-03-23 14:50:38.895,1.2168036564804932
2025-03-23 14:50:38.904,2.729291987590519
2025-03-23 14:50:38.904,1.7244253142420727
2025-03-23 14:50:38.904,-0.5233153249279475
2025-03-23 14:50:38.905,-1.9556430474011832
2025-03-23 14:50:38.905,-1.7593963686692835
2025-03-23 14:50:38.914,-0.5179877406503548
2025-03-23 14:50:38.914,0.8627501944158511
2025-03-23 14:50:38.914,1.7169937957853438
2025-03-23 14:50:38.915,1.455802707974991
2025-03-23 14:50:38.915,-0.12963058687514814
2025-03-23 14:50:38.924,-1.9901357934378365
2025-03-23 14:50:38.924,-2.132013648241403
2025-03-23 14:50:38.924,0.1380177468742187
2025-03-23 14:50:38.925,2.6318378208901283
2025-03-23 14:50:38.925,2.3014022041574833
2025-03-23 14:50:38.934,-0.8108245448054254
2025-03-23 14:50:38.934,-3.004552168305043
2025-03-23 14:50:38.934,-1.4411331619301606
2025-03-23 14:50:38.934,1.8268769755195573
2025-03-23 14:50:38.935,2.3189124321189807
2025-03-23 14:50:38.944,-0.6531801252728512
2025-03-23 14:50:38.944,-2.7540242078445254
2025-03-23 14:50:38.944,-0.5998075380016721
2025-03-23 14:50:38.944,3.2666761393494723
2025-03-23 14:50:38.945,3.4756808422037677
2025-03-23 14:50:38.954,-1.0902333164069893
2025-03-23 14:50:38.954,-5.5026140656204925
2025-03-23 14:50:38.954,-4.3931656238600025
2025-03-23 14:50:38.955,1.8149368129237486
2025-03-23 14:50:38.955,6.976927872543791
2025-03-23 14:50:38.964,5.50378070132517
2025-03-23 14:50:38.964,-1.5762714957799604
2025-03-23 14:50:38.964,-7.264101641048491
2025-03-23 14:50:38.965,-5.841273154501487
2025-03-23 14:50:38.965,0.898944785000658
2025-03-23 14:50:38.974,5.775306144725688
2025-03-23 14:50:38.974,4.462258002587661
2025-03-23 14:50:38.974,-0.16212281559736907
2025-03-23 14:50:38.974,-2.638984185135964
2025-03-23 14:50:38.975,-1.7644909875984247
2025-03-23 14:50:38.984,-0.5722451134033302
2025-03-23 14:50:38.984,-0.780136391724927
2025-03-23 14:50:38.984,-0.6046747815476206
2025-03-23 14:50:38.984,1.2883021964224504
2025-03-23 14:50:38.984,2.7177248647149845
2025-03-23 14:50:38.992,1.126613711948624
2025-03-23 14:50:38.993,-1.9385398805784635
2025-03-23 14:50:38.993,-2.4286575132849206
2025-03-23 14:50:38.993,0.3757616867614574
2025-03-23 14:50:38.993,2.489982381536758
2025-03-23 14:50:39.002,0.7068832215306549
2025-03-23 14:50:39.002,-2.73719700018727
2025-03-23 14:50:39.003,-2.9533014719384614
2025-03-23 14:50:39.003,1.0345318377972719
2025-03-23 14:50:39.012,4.6383091759792725
2025-03-23 14:50:39.012,3.2056329971719313
2025-03-23 14:50:39.012,-2.1009592153250405
2025-03-23 14:50:39.013,-5.366078792551327
2025-03-23 14:50:39.013,-2.867379597401552
2025-03-23 14:50:39.022,2.4967024519237255
2025-03-23 14:50:39.022,4.765700204968892
2025-03-23 14:50:39.022,1.9377061461507468
2025-03-23 14:50:39.022,-2.237231380353617
2025-03-23 14:50:39.023,-3.2817314787423073
2025-03-23 14:50:39.032,-0.9589007298163967
2025-03-23 14:50:39.032,1.5038600620933207
2025-03-23 14:50:39.032,1.7340515863420791
2025-03-23 14:50:39.032,0.33230209859991
2025-03-23 14:50:39.033,-0.8222879198708946
2025-03-23 14:50:39.042,-0.8705185157666159
2025-03-23 14:50:39.042,-0.19593529086401953
2025-03-23 14:50:39.042,0.5808890941319905
2025-03-23 14:50:39.043,0.9900345811378799
2025-03-23 14:50:39.043,0.5864613256704337
2025-03-23 14:50:39.052,-0.6349103823745802
2025-03-23 14:50:39.052,-1.6837470726097938
2025-03-23 14:50:39.052,-1.2437336583786
2025-03-23 14:50:39.053,0.655931662932232
2025-03-23 14:50:39.053,2.164453552641386
2025-03-23 14:50:39.062,1.543356833489287
2025-03-23 14:50:39.062,-0.5962447702937039
2025-03-23 14:50:39.062,-1.8678590409981417
2025-03-23 14:50:39.063,-1.0670894205627224
2025-03-23 14:50:39.063,0.4267671643187832
2025-03-23 14:50:39.072,0.7579343116115191
2025-03-23 14:50:39.072,0.13069049190084636
2025-03-23 14:50:39.072,0.09343581003910713
2025-03-23 14:50:39.072,0.8095390382232731
2025-03-23 14:50:39.073,0.6519910603084579
2025-03-23 14:50:39.082,-1.0578097780251723
2025-03-23 14:50:39.082,-2.347655085003694
2025-03-23 14:50:39.082,-0.9684446681760257
2025-03-23 14:50:39.082,2.1263946973496815
2025-03-23 14:50:39.083,3.325966839520273
2025-03-23 14:50:39.092,0.812110329266893
2025-03-23 14:50:39.092,-2.792710063098372
2025-03-23 14:50:39.092,-3.346699301577008
2025-03-23 14:50:39.093,-0.2540895114030034
2025-03-23 14:50:39.093,2.7759768618010154
2025-03-23 14:50:39.102,2.355806595040982
2025-03-23 14:50:39.102,-0.5136460341098542
2025-03-23 14:50:39.102,-2.1207289195516137
2025-03-23 14:50:39.102,-0.9051682562930399
2025-03-23 14:50:39.103,1.0459185020992185
2025-03-23 14:50:39.112,1.2582699535045363
2025-03-23 14:50:39.112,-0.08139832209677529
2025-03-23 14:50:39.112,-1.0101450843264363
2025-03-23 14:50:39.112,-0.5825957972070411
2025-03-23 14:50:39.113,0.2730843880397832
2025-03-23 14:50:39.120,0.3940873101288667
2025-03-23 14:50:39.121,-0.038177119028224765
2025-03-23 14:50:39.121,-0.0057560596497968075
2025-03-23 14:50:39.121,0.6259816263333879
2025-03-23 14:50:39.121,0.7257229214435116
2025-03-23 14:50:39.132,-0.4044843060919254
2025-03-23 14:50:39.132,-1.6418033748163374
2025-03-23 14:50:39.132,-1.251264270365359
2025-03-23 14:50:39.132,0.7137405576376583
2025-03-23 14:50:39.132,2.1902452114670954
2025-03-23 14:50:39.140,1.5263247903175765
2025-03-23 14:50:39.140,-0.6114713838201508
2025-03-23 14:50:39.141,-2.1205744755287346
2025-03-23 14:50:39.141,-1.707897511485471
2025-03-23 14:50:39.141,0.08892178021808872
2025-03-23 14:50:39.152,1.6449108232685659
2025-03-23 14:50:39.152,1.679412695680119
2025-03-23 14:50:39.152,0.3270770459907617
2025-03-23 14:50:39.152,-0.9903858698205934
2025-03-23 14:50:39.152,-1.0569441593575932
2025-03-23 14:50:39.160,-0.19685328389663762
2025-03-23 14:50:39.161,0.32447803116901597
2025-03-23 14:50:39.161,0.05226723361849034
2025-03-23 14:50:39.161,-0.26692136810135053
2025-03-23 14:50:39.170,-0.050757878161649735
2025-03-23 14:50:39.170,0.31120223088739674
2025-03-23 14:50:39.171,0.39833557659924135
2025-03-23 14:50:39.171,0.5526188428149705
2025-03-23 14:50:39.171,0.8874926407619331
2025-03-23 14:50:39.171,0.3543245793824936
2025-03-23 14:50:39.180,-1.700056880577667
2025-03-23 14:50:39.181,-3.397503010153578
2025-03-23 14:50:39.181,-1.8160272790852672
2025-03-23 14:50:39.181,2.7127203747951865
2025-03-23 14:50:39.190,5.6676733569982645
2025-03-23 14:50:39.190,3.2649895742797086
2025-03-23 14:50:39.190,-2.6448005969737958
2025-03-23 14:50:39.191,-6.242746102933936
2025-03-23 14:50:39.191,-4.102125406335335
2025-03-23 14:50:39.200,1.3783351768061913
2025-03-23 14:50:39.200,4.9880698332979305
2025-03-23 14:50:39.201,4.042634898274735
2025-03-23 14:50:39.201,0.2524665404835522
2025-03-23 14:50:39.201,-2.820594301948625
2025-03-23 14:50:39.210,-3.1594111152609115
2025-03-23 14:50:39.210,-1.3364324890716648
2025-03-23 14:50:39.210,0.8081616708292085
2025-03-23 14:50:39.211,1.895816717026627
2025-03-23 14:50:39.211,1.6507096066363158
2025-03-23 14:50:39.220,0.5029203904364594
2025-03-23 14:50:39.220,-0.8812867117109725
2025-03-23 14:50:39.220,-1.6799575958400823
2025-03-23 14:50:39.220,-1.1645435809036997
2025-03-23 14:50:39.221,0.5116794770571553
2025-03-23 14:50:39.230,1.9176697906558535
2025-03-23 14:50:39.230,1.4725631484007713
2025-03-23 14:50:39.230,-0.6560351670320563
2025-03-23 14:50:39.230,-2.284320999217484
2025-03-23 14:50:39.231,-1.5246012301342329
2025-03-23 14:50:39.240,0.8493929837518663
2025-03-23 14:50:39.240,2.2069545093735723
2025-03-23 14:50:39.240,1.25755946281266
2025-03-23 14:50:39.241,-0.5833596075032229
2025-03-23 14:50:39.241,-1.346614041630852
2025-03-23 14:50:39.250,-0.8732149361318716
2025-03-23 14:50:39.250,-0.25119856187145806
2025-03-23 14:50:39.250,0.10903978917382942
2025-03-23 14:50:39.251,0.6067975361834668
2025-03-23 14:50:39.251,1.1105043934863867
2025-03-23 14:50:39.258,0.8041844783630012
2025-03-23 14:50:39.259,-0.42280156729632334
2025-03-23 14:50:39.259,-1.38739786871124
2025-03-23 14:50:39.259,-0.9718202015553695
2025-03-23 14:50:39.259,0.37936403368024546
2025-03-23 14:50:39.270,1.0964992537570049
2025-03-23 14:50:39.270,0.37650201761332863
2025-03-23 14:50:39.270,-0.7802032452979574
2025-03-23 14:50:39.271,-0.7216629279627408
2025-03-23 14:50:39.271,0.7163832596177591
2025-03-23 14:50:39.278,1.6980322932868224
2025-03-23 14:50:39.279,0.5429189330877994
2025-03-23 14:50:39.279,-1.8402750163451076
2025-03-23 14:50:39.279,-2.63081664257867
2025-03-23 14:50:39.279,-0.5289164858552559
2025-03-23 14:50:39.290,2.40018201195309
2025-03-23 14:50:39.290,3.0488085349818643
2025-03-23 14:50:39.290,0.8121131709451264
2025-03-23 14:50:39.290,-2.033823667123859
2025-03-23 14:50:39.290,-3.046683775930684
2025-03-23 14:50:39.298,-1.7259176425292853
2025-03-23 14:50:39.299,0.8121397064677995
2025-03-23 14:50:39.299,2.9756347589507945
2025-03-23 14:50:39.299,3.247944498395867
2025-03-23 14:50:39.308,0.9111165472123373
2025-03-23 14:50:39.308,-2.7613253145236767
2025-03-23 14:50:39.308,-4.700254191644602
2025-03-23 14:50:39.309,-2.6777122847321237
2025-03-23 14:50:39.309,2.045366461902064
2025-03-23 14:50:39.318,5.365788007835412
2025-03-23 14:50:39.318,4.0958575573272045
2025-03-23 14:50:39.318,-0.8566539881557924
2025-03-23 14:50:39.319,-5.109629461277092
2025-03-23 14:50:39.319,-4.809392838284751
2025-03-23 14:50:39.328,-0.3088753759468848
2025-03-23 14:50:39.328,4.123475091828731
2025-03-23 14:50:39.329,4.4791316131502
2025-03-23 14:50:39.329,0.9240018744402878
2025-03-23 14:50:39.329,-2.656480842964018
2025-03-23 14:50:39.338,-2.9803100819664072
2025-03-23 14:50:39.338,-0.704832500319527
2025-03-23 14:50:39.338,0.9894408856368306
2025-03-23 14:50:39.338,0.6008899723756713
2025-03-23 14:50:39.339,-0.15299069781069016
2025-03-23 14:50:39.348,0.6590006315116269
2025-03-23 14:50:39.348,1.9761588109187607
2025-03-23 14:50:39.348,1.0783207592680488
2025-03-23 14:50:39.348,-2.127886874576814
2025-03-23 14:50:39.349,-4.0017467684765435
2025-03-23 14:50:39.358,-1.544887584024796
2025-03-23 14:50:39.358,3.139522350632421
2025-03-23 14:50:39.358,4.752135219984147
2025-03-23 14:50:39.358,1.3382593975305452
2025-03-23 14:50:39.358,-3.0952686914386045
2025-03-23 14:50:39.368,-3.6737293744605592
2025-03-23 14:50:39.368,-0.6708964940548855
2025-03-23 14:50:39.368,1.615914140850497
2025-03-23 14:50:39.369,1.0448039320240077
2025-03-23 14:50:39.369,-0.07864483493811592
2025-03-23 14:50:39.378,0.6709511131760459
2025-03-23 14:50:39.378,1.8712033324412178
2025-03-23 14:50:39.378,0.6196507388488496
2025-03-23 14:50:39.378,-2.518089001541653
2025-03-23 14:50:39.379,-3.618937139808844
2025-03-23 14:50:39.388,-0.7332432240831369
2025-03-23 14:50:39.388,3.100145947134013
2025-03-23 14:50:39.388,3.525502977264648
2025-03-23 14:50:39.389,0.34048087039213754
2025-03-23 14:50:39.389,-2.461484041173808
2025-03-23 14:50:39.396,-1.9078123557143505
2025-03-23 14:50:39.396,0.456247742382038
2025-03-23 14:50:39.397,1.148657189523169
2025-03-23 14:50:39.397,-0.39965196938279857
2025-03-23 14:50:39.406,-1.3487568066576463
2025-03-23 14:50:39.406,0.21529037038971044
2025-03-23 14:50:39.407,2.3302018170875436
2025-03-23 14:50:39.407,1.834006814461934
2025-03-23 14:50:39.407,-1.0578226443052967
2025-03-23 14:50:39.407,-2.818265393588901
2025-03-23 14:50:39.416,-1.3810184289094467
2025-03-23 14:50:39.416,1.089941237904838
2025-03-23 14:50:39.417,1.3999447358248203
2025-03-23 14:50:39.417,-0.15222389508254738
2025-03-23 14:50:39.426,-0.5282542286409636
2025-03-23 14:50:39.426,1.204602280092347
2025-03-23 14:50:39.427,2.200188019133129
2025-03-23 14:50:39.427,-0.04712964058693684
2025-03-23 14:50:39.427,-3.6017226522199697
2025-03-23 14:50:39.436,-3.9376861037152837
2025-03-23 14:50:39.436,0.3194934734609391
2025-03-23 14:50:39.437,5.024584668153057
2025-03-23 14:50:39.437,4.8252291618611505
2025-03-23 14:50:39.437,-0.568704442286438
2025-03-23 14:50:39.446,-5.554729877075042
2025-03-23 14:50:39.447,-4.681396064689196
2025-03-23 14:50:39.447,1.1079620426846877
2025-03-23 14:50:39.447,5.411806498800948
2025-03-23 14:50:39.447,3.65905101682175
2025-03-23 14:50:39.456,-1.7703299794268375
2025-03-23 14:50:39.456,-4.641079444870208
2025-03-23 14:50:39.456,-2.2291150223503595
2025-03-23 14:50:39.456,2.027733507901294
2025-03-23 14:50:39.457,3.304275552950165
2025-03-23 14:50:39.466,1.0407011992048827
2025-03-23 14:50:39.466,-1.3931098465405312
2025-03-23 14:50:39.466,-1.5839617499798317
2025-03-23 14:50:39.467,-0.5799574786816702
2025-03-23 14:50:39.467,-0.2638499108386906
2025-03-23 14:50:39.476,-0.25463137417637166
2025-03-23 14:50:39.476,0.8868637748490881
2025-03-23 14:50:39.476,2.414527713234181
2025-03-23 14:50:39.476,1.782686827160829
2025-03-23 14:50:39.477,-1.393442513378504
2025-03-23 14:50:39.486,-3.893028829422452
2025-03-23 14:50:39.486,-2.668782629960915
2025-03-23 14:50:39.486,1.2179756563924489
2025-03-23 14:50:39.487,3.846070865411227
2025-03-23 14:50:39.487,2.946435608461394
2025-03-23 14:50:39.494,-0.11090945312687839
2025-03-23 14:50:39.495,-2.4988480793932086
2025-03-23 14:50:39.495,-2.768180279454843
2025-03-23 14:50:39.495,-1.3077233151153091
2025-03-23 14:50:39.495,0.7799876003247359
2025-03-23 14:50:39.506,2.339500932246696
2025-03-23 14:50:39.506,2.3162510208092773
2025-03-23 14:50:39.506,0.46742544545251075
2025-03-23 14:50:39.507,-1.8723968807684146
2025-03-23 14:50:39.507,-2.5802994984995147
2025-03-23 14:50:39.516,-0.90639585832225
2025-03-23 14:50:39.516,1.4531223785705767
2025-03-23 14:50:39.516,2.0449656604901336
2025-03-23 14:50:39.516,0.4641687491845241
2025-03-23 14:50:39.517,-1.143674940417727
2025-03-23 14:50:39.526,-0.8080983901827994
2025-03-23 14:50:39.526,0.6624647769909342
2025-03-23 14:50:39.526,0.8483422410125244
2025-03-23 14:50:39.527,-0.7131199841681959
2025-03-23 14:50:39.527,-1.6575508147245848
2025-03-23 14:50:39.536,-0.1918832215118647
2025-03-23 14:50:39.536,1.9909975719671669
2025-03-23 14:50:39.536,1.7545310698781889
2025-03-23 14:50:39.537,-1.034020104931946
2025-03-23 14:50:39.537,-2.9194863834528215
2025-03-23 14:50:39.546,-1.2245008127970065
2025-03-23 14:50:39.546,2.370468393701046
2025-03-23 14:50:39.546,3.706483854988674
2025-03-23 14:50:39.546,1.0287740270578494
2025-03-23 14:50:39.547,-3.0337389961818086
2025-03-23 14:50:39.556,-4.360554708891973
2025-03-23 14:50:39.556,-1.5925202084930823
2025-03-23 14:50:39.556,2.6528436743586976
2025-03-23 14:50:39.556,4.481809295091882
2025-03-23 14:50:39.557,2.42297963478652
2025-03-23 14:50:39.564,-1.4357526897047976
2025-03-23 14:50:39.565,-3.678744867111473
2025-03-23 14:50:39.565,-2.73873165472049
2025-03-23 14:50:39.565,0.006849535880461249
2025-03-23 14:50:39.565,1.997725191966296
2025-03-23 14:50:39.574,2.0773816410215487
2025-03-23 14:50:39.575,1.1058515415548054
2025-03-23 14:50:39.575,0.19053933466468653
2025-03-23 14:50:39.575,-0.734778927887535
2025-03-23 14:50:39.584,-1.8755866585848755
2025-03-23 14:50:39.585,-2.1285745170553585
2025-03-23 14:50:39.585,-0.34183048857213966
2025-03-23 14:50:39.585,2.2242092708513472
2025-03-23 14:50:39.585,2.6816094744387287
2025-03-23 14:50:39.594,0.37046584223522994
2025-03-23 14:50:39.594,-1.8244654685697816
2025-03-23 14:50:39.594,-1.2475496794403813
2025-03-23 14:50:39.595,0.782701352415932
2025-03-23 14:50:39.595,0.8520467609941473
2025-03-23 14:50:39.604,-1.4640644351972452
2025-03-23 14:50:39.604,-2.617960084959092
2025-03-23 14:50:39.604,0.01642079136778958
2025-03-23 14:50:39.605,3.946293232998786
2025-03-23 14:50:39.605,4.139095983026958
2025-03-23 14:50:39.614,-0.4801294396777738
2025-03-23 14:50:39.614,-5.054250526393268
2025-03-23 14:50:39.614,-4.364630037812714
2025-03-23 14:50:39.614,0.8003160043640547
2025-03-23 14:50:39.615,4.570601418796145
2025-03-23 14:50:39.624,3.0900924830527905
2025-03-23 14:50:39.624,-1.1727696468989839
2025-03-23 14:50:39.624,-3.028533492816423
2025-03-23 14:50:39.624,-1.0280954947190242
2025-03-23 14:50:39.625,1.430083737077772
2025-03-23 14:50:39.632,1.127437937626809
2025-03-23 14:50:39.633,-0.873869045759951
2025-03-23 14:50:39.633,-1.2859362549246616
2025-03-23 14:50:39.633,0.5598673670725013
2025-03-23 14:50:39.633,1.9576353887723172
2025-03-23 14:50:39.642,0.8444276775967825
2025-03-23 14:50:39.642,-1.4093843206947907
2025-03-23 14:50:39.643,-2.0821104673393114
2025-03-23 14:50:39.643,-0.6048049916922933
2025-03-23 14:50:39.652,1.189246908239505
2025-03-23 14:50:39.652,1.5851097413685669
2025-03-23 14:50:39.653,0.639618269562964
2025-03-23 14:50:39.653,-0.4595781349837375
2025-03-23 14:50:39.653,-0.8207043694681418
2025-03-23 14:50:39.662,-0.48438001547651
2025-03-23 14:50:39.662,-0.06926394301451971
2025-03-23 14:50:39.663,0.004175682597960341
2025-03-23 14:50:39.663,-0.044682713348814414
2025-03-23 14:50:39.663,0.21473729766779362
2025-03-23 14:50:39.672,0.606759721339287
2025-03-23 14:50:39.672,0.4433950946116043
2025-03-23 14:50:39.672,-0.32486896259869796
2025-03-23 14:50:39.673,-0.7039542855049912
2025-03-23 14:50:39.673,-0.051653365946386844
2025-03-23 14:50:39.682,0.6918510781138827
2025-03-23 14:50:39.682,0.1951369959083814
2025-03-23 14:50:39.683,-1.085100317262965
2025-03-23 14:50:39.683,-1.1715069334739203
2025-03-23 14:50:39.683,0.6320402806947664
2025-03-23 14:50:39.692,2.3006401369359057
2025-03-23 14:50:39.692,1.4431298952409404
2025-03-23 14:50:39.692,-1.3649099623460543
2025-03-23 14:50:39.693,-2.897836584167234
2025-03-23 14:50:39.693,-1.2778924152549664
2025-03-23 14:50:39.702,1.5337148672166598
2025-03-23 14:50:39.702,2.295509943632684
2025-03-23 14:50:39.702,0.6901049390800097
2025-03-23 14:50:39.703,-0.694524791564981
2025-03-23 14:50:39.703,-0.3857770505060586
2025-03-23 14:50:39.712,0.060671943126114194
2025-03-23 14:50:39.712,-0.9545827944791112
2025-03-23 14:50:39.712,-2.0316705153186927
2025-03-23 14:50:39.713,-0.6909379536863033
2025-03-23 14:50:39.713,2.4393496881488326
2025-03-23 14:50:39.722,3.6795082775101156
2025-03-23 14:50:39.722,1.040086576548561
2025-03-23 14:50:39.722,-2.8712612865736458
2025-03-23 14:50:39.723,-3.870692948373099
2025-03-23 14:50:39.723,-1.13182530787061
2025-03-23 14:50:39.732,2.217124550682371
2025-03-23 14:50:39.732,3.0040851605046788
2025-03-23 14:50:39.732,1.1801256771704138
2025-03-23 14:50:39.733,-1.0438801342648076
2025-03-23 14:50:39.733,-1.9510098579262147
2025-03-23 14:50:39.742,-1.4241489615168135
2025-03-23 14:50:39.742,-0.12350161649924347
2025-03-23 14:50:39.742,1.224531755422033
2025-03-23 14:50:39.743,1.795067953846217
2025-03-23 14:50:39.743,0.9946741791425355
2025-03-23 14:50:39.752,-0.7232709842920163
2025-03-23 14:50:39.752,-1.9192363939484622
2025-03-23 14:50:39.752,-1.5037496612379453
2025-03-23 14:50:39.752,0.1423363938602741
2025-03-23 14:50:39.753,1.5690071527338394
2025-03-23 14:50:39.760,1.6480986139994593
2025-03-23 14:50:39.761,0.48941684610701897
2025-03-23 14:50:39.761,-0.8385762817518833
2025-03-23 14:50:39.761,-1.3285655481292054
2025-03-23 14:50:39.761,-0.8343759042365075
2025-03-23 14:50:39.772,0.003060649809140524
2025-03-23 14:50:39.772,0.537785157939193
2025-03-23 14:50:39.772,0.6984877779028051
2025-03-23 14:50:39.772,0.6835385826397887
2025-03-23 14:50:39.773,0.3585525233174982
2025-03-23 14:50:39.780,-0.4690915365361987
2025-03-23 14:50:39.781,-1.1795868067745376
2025-03-23 14:50:39.781,-0.6504853322036104
2025-03-23 14:50:39.781,0.971294453871536
2025-03-23 14:50:39.781,1.6562074399289644
2025-03-23 14:50:39.792,-0.09568807604449789
2025-03-23 14:50:39.792,-2.565691362688239
2025-03-23 14:50:39.792,-2.2533494183430025
2025-03-23 14:50:39.793,1.412455458866231
2025-03-23 14:50:39.793,4.4224942980243265
2025-03-23 14:50:39.800,2.7750779915817656
2025-03-23 14:50:39.801,-2.1998131142204134
2025-03-23 14:50:39.801,-5.074774656271731
2025-03-23 14:50:39.801,-2.8392348041613795
2025-03-23 14:50:39.801,1.724167992930919
2025-03-23 14:50:39.810,3.8310234664502283
2025-03-23 14:50:39.811,2.240522626387583
2025-03-23 14:50:39.811,-0.3223149766109697
2025-03-23 14:50:39.811,-1.3096523920108694
2025-03-23 14:50:39.811,-1.0424313871604305
2025-03-23 14:50:39.820,-1.0290544264898598
2025-03-23 14:50:39.821,-1.2177945301219728
2025-03-23 14:50:39.821,-0.31024885125446255
2025-03-23 14:50:39.821,1.659870359170663
2025-03-23 14:50:39.830,2.637129461527503
2025-03-23 14:50:39.830,1.0981140861440966
2025-03-23 14:50:39.830,-1.6053796930844384
2025-03-23 14:50:39.831,-2.5616957937763405
2025-03-23 14:50:39.831,-0.8373454932873896
2025-03-23 14:50:39.840,1.3387702928397684
2025-03-23 14:50:39.840,1.39801780722606
2025-03-23 14:50:39.840,-0.3306838259710506
2025-03-23 14:50:39.841,-1.1901542939852485
2025-03-23 14:50:39.841,0.15413698550914778
2025-03-23 14:50:39.850,1.7973614128730453
2025-03-23 14:50:39.850,1.06978574649375
2025-03-23 14:50:39.851,-1.6695024466187052
2025-03-23 14:50:39.851,-2.9967538956593938
2025-03-23 14:50:39.851,-0.6797098715518485
2025-03-23 14:50:39.860,3.0030270811690345
2025-03-23 14:50:39.860,3.567236485218658
2025-03-23 14:50:39.860,-0.08011808541777041
2025-03-23 14:50:39.860,-3.8660227451498113
2025-03-23 14:50:39.861,-3.323357648750612
2025-03-23 14:50:39.870,0.8881452097470831
2025-03-23 14:50:39.870,3.8159716444420027
2025-03-23 14:50:39.870,2.3678957302148818
2025-03-23 14:50:39.870,-1.1806993412779216
2025-03-23 14:50:39.871,-2.6135823796455364
2025-03-23 14:50:39.878,-1.1219989210178318
2025-03-23 14:50:39.879,0.5501917923241553
2025-03-23 14:50:39.879,0.5480898037781092
2025-03-23 14:50:39.879,0.10776845812766496
2025-03-23 14:50:39.879,0.7734888556107835
2025-03-23 14:50:39.888,1.5401783977265657
2025-03-23 14:50:39.889,0.4703020083200574
2025-03-23 14:50:39.889,-1.8927213887404755
2025-03-23 14:50:39.889,-2.742668837587749
2025-03-23 14:50:39.889,-0.7315981920690715
2025-03-23 14:50:39.898,2.0804665663431767
2025-03-23 14:50:39.898,2.695816746469653
2025-03-23 14:50:39.899,0.6907604848680138
2025-03-23 14:50:39.899,-1.5700505943985381
2025-03-23 14:50:39.908,-1.8213045200130717
2025-03-23 14:50:39.908,-0.23870080952288564
2025-03-23 14:50:39.909,1.1376487386884881
2025-03-23 14:50:39.909,0.8527140487543463
2025-03-23 14:50:39.909,-0.44306739271051565
2025-03-23 14:50:39.918,-1.0026005958031434
2025-03-23 14:50:39.918,-0.20274702264578773
2025-03-23 14:50:39.918,0.8206738815551389
2025-03-23 14:50:39.919,0.8167360834364077
2025-03-23 14:50:39.919,-0.03200744469788518
2025-03-23 14:50:39.928,-0.6358237901238817
2025-03-23 14:50:39.928,-0.4931069334475899
2025-03-23 14:50:39.929,-0.04616484299854129
2025-03-23 14:50:39.929,0.16677987444321876
2025-03-23 14:50:39.929,0.1396818311526803
2025-03-23 14:50:39.938,0.17214986671918106
2025-03-23 14:50:39.938,0.33784165251791826
2025-03-23 14:50:39.938,0.33208664739498717
2025-03-23 14:50:39.939,-0.12705163523084173
2025-03-23 14:50:39.939,-0.7879376819206053
2025-03-23 14:50:39.948,-0.9520644486149773
2025-03-23 14:50:39.948,-0.22317426081898378
2025-03-23 14:50:39.948,0.9402271240357946
2025-03-23 14:50:39.949,1.5519696150945406
2025-03-23 14:50:39.949,0.9430881473186595
2025-03-23 14:50:39.956,-0.6286075705410104
2025-03-23 14:50:39.957,-1.9723923809934418
2025-03-23 14:50:39.957,-1.7454304323961203
2025-03-23 14:50:39.957,0.17024352700884354
2025-03-23 14:50:39.957,2.0519518309141644
2025-03-23 14:50:39.968,1.8903309017223748
2025-03-23 14:50:39.968,-0.13894561828118826
2025-03-23 14:50:39.969,-1.6168749899686514
2025-03-23 14:50:39.969,-0.8870915433168646
2025-03-23 14:50:39.969,0.7398939460679694
2025-03-23 14:50:39.976,0.8050736899864812
2025-03-23 14:50:39.977,-0.8294166826957554
2025-03-23 14:50:39.977,-1.7014570179190027
2025-03-23 14:50:39.977,-0.1154037597547432
2025-03-23 14:50:39.977,2.38094758306955
2025-03-23 14:50:39.988,2.696260013270027
2025-03-23 14:50:39.988,-0.05900002433403284
2025-03-23 14:50:39.989,-3.3026472951335255
2025-03-23 14:50:39.989,-3.6004071455347613
2025-03-23 14:50:39.989,-0.28677327071026576
2025-03-23 14:50:39.998,3.6486378159240376
2025-03-23 14:50:39.998,4.335614171590862
2025-03-23 14:50:39.998,0.8676234289942921
2025-03-23 14:50:39.999,-3.5663619564546996
2025-03-23 14:50:39.999,-4.650311359541639
2025-03-23 14:50:40.008,-1.272299351068629
2025-03-23 14:50:40.008,3.216685399472388
2025-03-23 14:50:40.008,4.32633731258989
2025-03-23 14:50:40.008,1.0711668530654208
2025-03-23 14:50:40.009,-2.945645252597631
2025-03-23 14:50:40.016,-3.3994532863879403
2025-03-23 14:50:40.017,-0.06320272354162615
2025-03-23 14:50:40.017,2.9350258745250306
2025-03-23 14:50:40.017,2.0367391015501366
2025-03-23 14:50:40.026,-1.403556864188289
2025-03-23 14:50:40.027,-2.87947082547635
2025-03-23 14:50:40.027,-0.5369772299127448
2025-03-23 14:50:40.027,2.494978887592186
2025-03-23 14:50:40.027,2.3300465377064956
2025-03-23 14:50:40.036,-0.6142294362788625
2025-03-23 14:50:40.036,-2.478482033162734
2025-03-23 14:50:40.036,-1.2346482122512668
2025-03-23 14:50:40.037,1.013085357907429
2025-03-23 14:50:40.037,1.4165236110039556
2025-03-23 14:50:40.046,0.14630960838116447
2025-03-23 14:50:40.046,-0.6098567480257684
2025-03-23 14:50:40.047,-0.16407105333846733
2025-03-23 14:50:40.047,0.1550440212566005
2025-03-23 14:50:40.047,-0.27329642048222896
2025-03-23 14:50:40.056,-0.2877809357106879
2025-03-23 14:50:40.056,0.6630170188319442
2025-03-23 14:50:40.056,0.9790853049469431
2025-03-23 14:50:40.057,-0.5775438412175595
2025-03-23 14:50:40.057,-2.1382547706326083
2025-03-23 14:50:40.066,-0.8784464618259975
2025-03-23 14:50:40.066,2.382638701027195
2025-03-23 14:50:40.066,3.3625284146685437
2025-03-23 14:50:40.067,0.03887809319452165
2025-03-23 14:50:40.067,-3.9731944881718717
2025-03-23 14:50:40.076,-3.6912391713665786
2025-03-23 14:50:40.076,0.7571301861516193
2025-03-23 14:50:40.076,4.238019988490841
2025-03-23 14:50:40.077,3.077407730936354
2025-03-23 14:50:40.077,-0.8017646529537561
2025-03-23 14:50:40.086,-2.9941586028092884
2025-03-23 14:50:40.086,-2.0027839904688904
2025-03-23 14:50:40.086,0.07320768943791375
2025-03-23 14:50:40.087,1.1282474957053767
2025-03-23 14:50:40.087,1.211400086425399
2025-03-23 14:50:40.094,1.0423697551998978
2025-03-23 14:50:40.095,0.3283383479297001
2025-03-23 14:50:40.095,-1.2257957085942257
2025-03-23 14:50:40.095,-2.287377677141867
2025-03-23 14:50:40.095,-1.04702422359486
2025-03-23 14:50:40.104,1.8964840736439963
2025-03-23 14:50:40.105,3.372400545680677
2025-03-23 14:50:40.105,1.3021560664439213
2025-03-23 14:50:40.105,-2.4111266708479215
2025-03-23 14:50:40.105,-3.852393203732558
2025-03-23 14:50:40.114,-1.566579049333564
2025-03-23 14:50:40.115,2.0333655586563224
2025-03-23 14:50:40.115,3.5940829026782772
2025-03-23 14:50:40.115,2.0985059130534056
2025-03-23 14:50:40.115,-0.8583346249651718
2025-03-23 14:50:40.124,-2.9359590885481626
2025-03-23 14:50:40.125,-2.6851112995808104
2025-03-23 14:50:40.125,-0.30232636802380686
2025-03-23 14:50:40.125,2.315711195298702
2025-03-23 14:50:40.125,2.811948876222651
2025-03-23 14:50:40.134,0.6742454842936637
2025-03-23 14:50:40.134,-1.8759035375609117
2025-03-23 14:50:40.135,-2.1622796495726093
2025-03-23 14:50:40.135,-0.14691264217674055
2025-03-23 14:50:40.144,1.5979918883880908
2025-03-23 14:50:40.144,1.0776820012177932
2025-03-23 14:50:40.145,-0.8289899003553474
2025-03-23 14:50:40.145,-1.6583064805668901
2025-03-23 14:50:40.145,-0.33825962041330415
2025-03-23 14:50:40.154,1.7058371544888484
2025-03-23 14:50:40.154,2.213477092636014
2025-03-23 14:50:40.154,0.4348504124222514
2025-03-23 14:50:40.155,-2.11588778363921
2025-03-23 14:50:40.155,-3.0117989091585198
2025-03-23 14:50:40.164,-1.1670220556217235
2025-03-23 14:50:40.164,1.9671420622738331
2025-03-23 14:50:40.165,3.5351875110534388
2025-03-23 14:50:40.165,1.9335407538687341
2025-03-23 14:50:40.165,-1.4997515316714722
2025-03-23 14:50:40.174,-3.5577331315464376
2025-03-23 14:50:40.174,-2.2050642033003087
2025-03-23 14:50:40.174,1.2573649063463797
2025-03-23 14:50:40.175,3.2831203771106856
2025-03-23 14:50:40.175,1.7458753002917684
2025-03-23 14:50:40.184,-1.6008493094003398
2025-03-23 14:50:40.184,-2.94079730124146
2025-03-23 14:50:40.185,-0.7734550851565025
2025-03-23 14:50:40.185,2.2753518646935116
2025-03-23 14:50:40.185,2.5703628383438284
2025-03-23 14:50:40.194,-0.16157697357888412
2025-03-23 14:50:40.194,-2.5914037972224486
2025-03-23 14:50:40.194,-1.9748534203490353
2025-03-23 14:50:40.195,0.5860223349891114
2025-03-23 14:50:40.195,1.9208744583314634
2025-03-23 14:50:40.204,0.9655354767023326
2025-03-23 14:50:40.204,-0.37509184106394355
2025-03-23 14:50:40.204,-0.4027488960206301
2025-03-23 14:50:40.204,0.12862851122301333
2025-03-23 14:50:40.205,-0.23127545545224526
2025-03-23 14:50:40.214,-1.0202491705295083
2025-03-23 14:50:40.214,-0.5923893035361536
2025-03-23 14:50:40.214,0.9898122860877108
2025-03-23 14:50:40.214,1.5509350036556453
2025-03-23 14:50:40.215,-0.08478679527153311
2025-03-23 14:50:40.224,-1.901693628776264
2025-03-23 14:50:40.224,-1.076639584566815
2025-03-23 14:50:40.224,1.8453433206309235
2025-03-23 14:50:40.225,2.952373668018598
2025-03-23 14:50:40.225,-0.026794246944865846
2025-03-23 14:50:40.234,-4.021985070691162
2025-03-23 14:50:40.234,-3.7822606148823685
2025-03-23 14:50:40.234,1.2976782087814216
2025-03-23 14:50:40.235,5.559049705106641
2025-03-23 14:50:40.235,3.6786721852439896
2025-03-23 14:50:40.242,-2.426891890622724
2025-03-23 14:50:40.243,-5.600600375937538
2025-03-23 14:50:40.243,-2.269671036766074
2025-03-23 14:50:40.243,3.2040332363843906
2025-03-23 14:50:40.243,4.240703764252859
2025-03-23 14:50:40.252,0.2044626125843495
2025-03-23 14:50:40.252,-3.4453239787378434
2025-03-23 14:50:40.253,-2.4688740693005498
2025-03-23 14:50:40.253,1.3207215711291087
2025-03-23 14:50:40.262,3.200367687409453
2025-03-23 14:50:40.262,1.3830282114951156
2025-03-23 14:50:40.262,-1.76066156662403
2025-03-23 14:50:40.263,-3.041259557248465
2025-03-23 14:50:40.263,-1.4257220939493984
2025-03-23 14:50:40.272,1.626700691249343
2025-03-23 14:50:40.272,3.4191891062881963
2025-03-23 14:50:40.272,2.0567908450539196
2025-03-23 14:50:40.273,-1.5300729462318279
2025-03-23 14:50:40.273,-3.8734051368100135
2025-03-23 14:50:40.282,-2.4023873996694287
2025-03-23 14:50:40.282,1.490950588433041
2025-03-23 14:50:40.282,3.7757816491609466
2025-03-23 14:50:40.283,2.210586826154932
2025-03-23 14:50:40.283,-1.3705473918154236
2025-03-23 14:50:40.292,-3.3162818856308887
2025-03-23 14:50:40.292,-1.9420054577905594
2025-03-23 14:50:40.292,1.1944199252703454
2025-03-23 14:50:40.293,3.110749248737255
2025-03-23 14:50:40.293,2.0828060554756145
2025-03-23 14:50:40.302,-0.9521443795807539
2025-03-23 14:50:40.302,-3.177681676663702
2025-03-23 14:50:40.303,-2.441942445675002
2025-03-23 14:50:40.303,0.5303925829018388
2025-03-23 14:50:40.303,2.7597273097493074
2025-03-23 14:50:40.312,2.2216980915478044
2025-03-23 14:50:40.312,0.002888709632599462
2025-03-23 14:50:40.312,-1.3263819481924446
2025-03-23 14:50:40.313,-0.9586607359673979
2025-03-23 14:50:40.313,-0.33989787795060983
2025-03-23 14:50:40.322,-0.5464344070201621
2025-03-23 14:50:40.322,-0.7054811912653327
2025-03-23 14:50:40.322,0.2602717384666169
2025-03-23 14:50:40.323,1.5853064807778132
2025-03-23 14:50:40.323,1.628541961209662
2025-03-23 14:50:40.332,0.23616366378578724
2025-03-23 14:50:40.332,-1.1365205773930402
2025-03-23 14:50:40.332,-1.4200215754078975
2025-03-23 14:50:40.333,-0.9052608075707863
2025-03-23 14:50:40.333,-0.22635839394696913
2025-03-23 14:50:40.342,0.527247106181954
2025-03-23 14:50:40.342,1.284754709202502
2025-03-23 14:50:40.342,1.4289444815656367
2025-03-23 14:50:40.342,0.48832789385515724
2025-03-23 14:50:40.343,-0.9568644635787098
2025-03-23 14:50:40.352,-1.7133000501336688
2025-03-23 14:50:40.352,-1.2395650594875842
2025-03-23 14:50:40.352,-0.050885727697513164
2025-03-23 14:50:40.353,0.9939508584827562
2025-03-23 14:50:40.353,1.3755362472119501
2025-03-23 14:50:40.360,1.0163755427067314
2025-03-23 14:50:40.361,0.18919095687657292
2025-03-23 14:50:40.361,-0.6268153071707486
2025-03-23 14:50:40.361,-1.0821471980709012
2025-03-23 14:50:40.361,-1.1521482180570017
2025-03-23 14:50:40.372,-0.840245906048991
2025-03-23 14:50:40.372,0.07543247524694842
2025-03-23 14:50:40.372,1.5238155904651767
2025-03-23 14:50:40.373,2.4399887903880324
2025-03-23 14:50:40.373,1.3924061794000502
2025-03-23 14:50:40.380,-1.4733073323952506
2025-03-23 14:50:40.381,-3.6239345736028534
2025-03-23 14:50:40.381,-2.3981537782691746
2025-03-23 14:50:40.381,1.609924546013325
2025-03-23 14:50:40.381,4.350658221498926
2025-03-23 14:50:40.391,2.492468760822071
2025-03-23 14:50:40.391,-2.3961257358707138
2025-03-23 14:50:40.391,-4.983419617889705
2025-03-23 14:50:40.391,-2.0951367458477392
2025-03-23 14:50:40.391,3.3433190087776654
2025-03-23 14:50:40.400,5.4194041082282185
2025-03-23 14:50:40.401,1.9500883882403441
2025-03-23 14:50:40.401,-3.2568581424810605
2025-03-23 14:50:40.401,-5.007553964408783
2025-03-23 14:50:40.410,-2.229004315900684
2025-03-23 14:50:40.410,1.793396412258247
2025-03-23 14:50:40.411,3.544121828783172
2025-03-23 14:50:40.411,2.406015335271608
2025-03-23 14:50:40.411,0.08437798408915062
2025-03-23 14:50:40.411,-1.6714116092537967
2025-03-23 14:50:40.420,-2.1649547735773584
2025-03-23 14:50:40.421,-1.3781662839654112
2025-03-23 14:50:40.421,0.3248914073484376
2025-03-23 14:50:40.421,1.8877752139970203
2025-03-23 14:50:40.432,1.8623390983898838
2025-03-23 14:50:40.432,-0.05315077877609241
2025-03-23 14:50:40.432,-2.017075692488125
2025-03-23 14:50:40.432,-1.6917475561100512
2025-03-23 14:50:40.433,0.760323257550212
2025-03-23 14:50:40.433,2.3850090554881143
2025-03-23 14:50:40.440,1.003144433917535
2025-03-23 14:50:40.441,-1.786684885283155
2025-03-23 14:50:40.441,-2.4838236055296115
2025-03-23 14:50:40.441,-0.169951587536275
2025-03-23 14:50:40.450,2.368727127299241
2025-03-23 14:50:40.451,2.209290978461482
2025-03-23 14:50:40.451,-0.27173120571830833
2025-03-23 14:50:40.451,-2.20740802641291
2025-03-23 14:50:40.451,-1.745360556367528
2025-03-23 14:50:40.460,0.15855152856111204
2025-03-23 14:50:40.460,1.3564487515932095
2025-03-23 14:50:40.461,1.0820915809054716
2025-03-23 14:50:40.461,0.3244198328396734
2025-03-23 14:50:40.461,-0.017672870683914682
2025-03-23 14:50:40.470,-0.3206157555770457
2025-03-23 14:50:40.471,-1.0541739955427698
2025-03-23 14:50:40.471,-1.3092194544022757
2025-03-23 14:50:40.471,0.08537828852942381
2025-03-23 14:50:40.471,2.0981130862475794
2025-03-23 14:50:40.480,1.9710652452529926
2025-03-23 14:50:40.480,-0.927174007429046
2025-03-23 14:50:40.481,-3.3128509950743896
2025-03-23 14:50:40.481,-1.7940815486294575
2025-03-23 14:50:40.481,2.3664306736977907
2025-03-23 14:50:40.490,4.3021398486565765
2025-03-23 14:50:40.490,1.4207216046658857
2025-03-23 14:50:40.491,-3.377025209142625
2025-03-23 14:50:40.491,-4.969916622494588
2025-03-23 14:50:40.491,-1.6054961596021515
2025-03-23 14:50:40.500,3.428335033371736
2025-03-23 14:50:40.500,5.324730419511423
2025-03-23 14:50:40.501,2.440223966555782
2025-03-23 14:50:40.501,-2.4301039096081443
2025-03-23 14:50:40.501,-4.989627967369615
2025-03-23 14:50:40.510,-3.3829140386112
2025-03-23 14:50:40.510,0.5942620339477439
2025-03-23 14:50:40.511,3.634223513221731
2025-03-23 14:50:40.511,3.7776793559551454
2025-03-23 14:50:40.511,1.4046014180054953
2025-03-23 14:50:40.520,-1.6546641284426156
2025-03-23 14:50:40.520,-3.4099226083173217
2025-03-23 14:50:40.521,-2.733847323984866
2025-03-23 14:50:40.521,-0.12279605865755364
2025-03-23 14:50:40.521,2.4378731747153344
2025-03-23 14:50:40.530,2.996760484760781
2025-03-23 14:50:40.530,1.3275924047067178
2025-03-23 14:50:40.530,-1.04375666618154
2025-03-23 14:50:40.531,-2.3968410621237193
2025-03-23 14:50:40.531,-2.0934450968804614
2025-03-23 14:50:40.538,-0.5286503961975646
2025-03-23 14:50:40.539,1.417066747035978
2025-03-23 14:50:40.539,2.562697906745654
2025-03-23 14:50:40.539,1.8226552436343875
2025-03-23 14:50:40.548,-0.6295060950578362
2025-03-23 14:50:40.549,-2.769898050210682
2025-03-23 14:50:40.549,-2.3682893202420106
2025-03-23 14:50:40.549,0.3952797951079607
2025-03-23 14:50:40.549,2.729078883716184
2025-03-23 14:50:40.549,2.2037776825579725
2025-03-23 14:50:40.558,-0.5411757676640045
2025-03-23 14:50:40.559,-2.5638864297214234
2025-03-23 14:50:40.559,-1.7983783683961971
2025-03-23 14:50:40.559,0.8931675979148006
2025-03-23 14:50:40.568,2.636089411239916
2025-03-23 14:50:40.569,1.3791721358530526
2025-03-23 14:50:40.569,-1.836913048100558
2025-03-23 14:50:40.569,-3.4559117565501705
2025-03-23 14:50:40.569,-0.9965892078251947
2025-03-23 14:50:40.569,3.615689976035639
2025-03-23 14:50:40.578,5.23811100892611
2025-03-23 14:50:40.579,1.0537225147755889
2025-03-23 14:50:40.579,-5.4501574373218595
2025-03-23 14:50:40.579,-7.37766271779596
2025-03-23 14:50:40.588,-1.8774330349197967
2025-03-23 14:50:40.588,6.095865603895577
2025-03-23 14:50:40.589,8.536611370825876
2025-03-23 14:50:40.589,2.9107908313140287
2025-03-23 14:50:40.589,-5.047284976460566
2025-03-23 14:50:40.598,-7.5784702532490416
2025-03-23 14:50:40.598,-3.1072217397268322
2025-03-23 14:50:40.599,2.8536184086007017
2025-03-23 14:50:40.599,4.540030772717494
2025-03-23 14:50:40.599,1.975175383141529
2025-03-23 14:50:40.608,-0.5490526505780715
2025-03-23 14:50:40.608,-0.5773038973496001
2025-03-23 14:50:40.608,0.017015308158878945
2025-03-23 14:50:40.608,-1.1434244886130709
2025-03-23 14:50:40.609,-2.783722043726015
2025-03-23 14:50:40.618,-1.7010522217310204
2025-03-23 14:50:40.618,2.0511397955376336
2025-03-23 14:50:40.618,4.297075925052244
2025-03-23 14:50:40.619,2.0306815173133947
2025-03-23 14:50:40.619,-2.2882917067898747
2025-03-23 14:50:40.628,-3.603509390206483
2025-03-23 14:50:40.628,-0.7171973319505265
2025-03-23 14:50:40.628,2.2164473353449736
2025-03-23 14:50:40.629,1.2399422462094614
2025-03-23 14:50:40.629,-2.003204903965492
2025-03-23 14:50:40.636,-2.2861637501335985
2025-03-23 14:50:40.637,1.9468974911130306
2025-03-23 14:50:40.637,5.574334579009535
2025-03-23 14:50:40.637,2.8007076152592094
2025-03-23 14:50:40.646,-4.814837030492523
2025-03-23 14:50:40.646,-8.935867948960437
2025-03-23 14:50:40.647,-3.9521160909764523
2025-03-23 14:50:40.647,5.8999317829684985
2025-03-23 14:50:40.647,10.704334421347793
2025-03-23 14:50:40.654,5.552271805478083
2025-03-23 14:50:40.655,-4.5070983402742195
2025-03-23 14:50:40.655,-10.095372502488592
2025-03-23 14:50:40.655,-6.720176529778408
2025-03-23 14:50:40.655,1.7859915331361558
2025-03-23 14:50:40.665,7.687343908427882
2025-03-23 14:50:40.665,6.448277536850173
2025-03-23 14:50:40.665,0.1778687157762786
2025-03-23 14:50:40.665,-4.992771687513871
2025-03-23 14:50:40.665,-4.757736724986258
2025-03-23 14:50:40.674,-0.27419258931389356
2025-03-23 14:50:40.675,3.51709755808525
2025-03-23 14:50:40.675,2.89937766805363
2025-03-23 14:50:40.675,-1.1373549471355897
2025-03-23 14:50:40.675,-4.021389144782541
2025-03-23 14:50:40.685,-2.210066924110834
2025-03-23 14:50:40.685,2.92151487036774
2025-03-23 14:50:40.685,5.92391636408476
2025-03-23 14:50:40.685,2.842189571858551
2025-03-23 14:50:40.685,-3.8890036605002227
2025-03-23 14:50:40.695,-7.323169396002101
2025-03-23 14:50:40.695,-3.6016342176041243
2025-03-23 14:50:40.695,3.424732831289097
2025-03-23 14:50:40.695,6.523332277324665
2025-03-23 14:50:40.695,3.251962859887979
2025-03-23 14:50:40.704,-1.9742873202443723
2025-03-23 14:50:40.705,-3.790163918536742
2025-03-23 14:50:40.705,-1.7477919992636393
2025-03-23 14:50:40.705,0.6454709026347362
2025-03-23 14:50:40.705,1.0270406213702425
2025-03-23 14:50:40.714,0.23756801089555205
2025-03-23 14:50:40.715,-0.21483499821907653
2025-03-23 14:50:40.715,-0.2730376112256974
2025-03-23 14:50:40.715,-0.125236088647624
2025-03-23 14:50:40.724,0.8771732819080824
2025-03-23 14:50:40.724,2.354318664087555
2025-03-23 14:50:40.725,1.770752530857899
2025-03-23 14:50:40.725,-2.1754011475801316
2025-03-23 14:50:40.725,-5.938587869362643
2025-03-23 14:50:40.734,-4.154958331796639
2025-03-23 14:50:40.734,3.0282394753561217
2025-03-23 14:50:40.735,8.418204342437825
2025-03-23 14:50:40.735,5.6305226572456855
2025-03-23 14:50:40.735,-2.8795657360886704
2025-03-23 14:50:40.744,-8.109314574115146
2025-03-23 14:50:40.744,-4.869860618576757
2025-03-23 14:50:40.745,2.396959229680654
2025-03-23 14:50:40.745,5.372222249900642
2025-03-23 14:50:40.745,1.8126838424056242
2025-03-23 14:50:40.754,-2.5399487891220436
2025-03-23 14:50:40.754,-1.9053150727953363
2025-03-23 14:50:40.755,2.160510983366367
2025-03-23 14:50:40.755,3.2881311559363025
2025-03-23 14:50:40.755,-0.7949345949643276
2025-03-23 14:50:40.764,-4.904516324838995
2025-03-23 14:50:40.764,-3.3510909491822978
2025-03-23 14:50:40.765,2.1147175377658707
2025-03-23 14:50:40.765,4.533905875841937
2025-03-23 14:50:40.765,1.3347115041830113
2025-03-23 14:50:40.774,-2.211787278786313
2025-03-23 14:50:40.774,-0.7856787730538873
2025-03-23 14:50:40.775,2.9744811360786385
2025-03-23 14:50:40.775,2.0159578016350044
2025-03-23 14:50:40.775,-4.488869175254581
2025-03-23 14:50:40.784,-8.401584898963536
2025-03-23 14:50:40.784,-2.6668336897746987
2025-03-23 14:50:40.784,8.423019188332738
2025-03-23 14:50:40.785,12.745216422206871
2025-03-23 14:50:40.785,4.424588135023808
2025-03-23 14:50:40.793,-8.711447332446426
2025-03-23 14:50:40.793,-13.704376340584794
2025-03-23 14:50:40.793,-6.535206541468497
2025-03-23 14:50:40.793,4.922282075517341
2025-03-23 14:50:40.793,10.672761722477112
2025-03-23 14:50:40.802,7.910922023624403
2025-03-23 14:50:40.803,0.7453728248989838
2025-03-23 14:50:40.803,-5.444098637700926
2025-03-23 14:50:40.803,-7.491240180883306
2025-03-23 14:50:40.812,-4.867077451086062
2025-03-23 14:50:40.813,0.5273553450387336
2025-03-23 14:50:40.813,5.162862244883137
2025-03-23 14:50:40.813,5.963276258051646
2025-03-23 14:50:40.813,2.402509318203814
2025-03-23 14:50:40.822,-2.8879080448756778
2025-03-23 14:50:40.823,-5.486964197328315
2025-03-23 14:50:40.823,-2.623257528837684
2025-03-23 14:50:40.823,3.2641588517431197
2025-03-23 14:50:40.823,5.5892558001612915
2025-03-23 14:50:40.832,0.692046100014911
2025-03-23 14:50:40.833,-6.5167008467965655
2025-03-23 14:50:40.833,-6.984509671402245
2025-03-23 14:50:40.833,1.4406892930825688
2025-03-23 14:50:40.833,10.08866199652443
2025-03-23 14:50:40.842,8.844826122305859
2025-03-23 14:50:40.842,-1.9148822602270874
2025-03-23 14:50:40.843,-11.295346606086436
2025-03-23 14:50:40.843,-9.789403949948968
2025-03-23 14:50:40.843,0.7182292625139153
2025-03-23 14:50:40.852,9.594284394053423
2025-03-23 14:50:40.852,8.838382860803147
2025-03-23 14:50:40.852,0.5694023574882126
2025-03-23 14:50:40.853,-6.429644938516221
2025-03-23 14:50:40.853,-6.143689749365419
2025-03-23 14:50:40.861,-0.554124564564507
2025-03-23 14:50:40.861,3.7703759711059104
2025-03-23 14:50:40.861,2.96150003293431
2025-03-23 14:50:40.861,-0.81340145686212
2025-03-23 14:50:40.861,-2.71284898454097
2025-03-23 14:50:40.872,-0.8275006100061579
2025-03-23 14:50:40.872,2.240196818887474
2025-03-23 14:50:40.872,2.958052560636068
2025-03-23 14:50:40.873,0.7815606790732813
2025-03-23 14:50:40.873,-2.0517807475250995
2025-03-23 14:50:40.880,-3.469262315185396
2025-03-23 14:50:40.881,-2.859338064407358
2025-03-23 14:50:40.881,-0.20001474404669053
2025-03-23 14:50:40.881,3.6938053929368997
2025-03-23 14:50:40.881,5.810850103857442
2025-03-23 14:50:40.891,2.8341717343398414
2025-03-23 14:50:40.891,-3.8229604995555753
2025-03-23 14:50:40.891,-7.466757090018523
2025-03-23 14:50:40.891,-3.5761938914153553
2025-03-23 14:50:40.900,3.7669941178878483
2025-03-23 14:50:40.900,6.32548404059221
2025-03-23 14:50:40.901,1.9815989708250803
2025-03-23 14:50:40.901,-3.0689199399499043
2025-03-23 14:50:40.901,-2.9401879186720814
2025-03-23 14:50:40.910,0.6699711894800586
2025-03-23 14:50:40.910,1.943336254091473
2025-03-23 14:50:40.911,-0.7118233915288927
2025-03-23 14:50:40.911,-3.0058359959749104
2025-03-23 14:50:40.911,-1.1695623186483401
2025-03-23 14:50:40.920,2.8481731131485963
2025-03-23 14:50:40.920,4.035420084205576
2025-03-23 14:50:40.921,0.84020018989564
2025-03-23 14:50:40.921,-2.9186479685741387
2025-03-23 14:50:40.921,-2.9832261430018088
2025-03-23 14:50:40.930,-0.03476350214108817
2025-03-23 14:50:40.930,1.505347422167187
2025-03-23 14:50:40.931,-0.19527971176965145
2025-03-23 14:50:40.931,-1.6886258436312362
2025-03-23 14:50:40.931,0.5049072131796423
2025-03-23 14:50:40.940,4.022771535149328
2025-03-23 14:50:40.940,3.3117319149057916
2025-03-23 14:50:40.941,-2.2717634125887427
2025-03-23 14:50:40.941,-6.5149718686223785
2025-03-23 14:50:40.941,-3.8185847554644523
2025-03-23 14:50:40.950,3.5362288938348203
2025-03-23 14:50:40.950,7.4726809317975125
2025-03-23 14:50:40.950,3.181084980509559
2025-03-23 14:50:40.951,-5.01367317667845
2025-03-23 14:50:40.951,-7.887645373736552
2025-03-23 14:50:40.959,-1.788300809970405
2025-03-23 14:50:40.959,6.589403376879814
2025-03-23 14:50:40.959,7.762272280546325
2025-03-23 14:50:40.959,0.7082347899227202
2025-03-23 14:50:40.959,-6.431753489933938
2025-03-23 14:50:40.970,-6.675571947462877
2025-03-23 14:50:40.970,-1.4912715329453947
2025-03-23 14:50:40.971,3.333776276245319
2025-03-23 14:50:40.971,5.127746201554905
2025-03-23 14:50:40.971,4.596623097340852
2025-03-23 14:50:40.978,1.682453073931949
2025-03-23 14:50:40.979,-3.927960245647988
2025-03-23 14:50:40.979,-8.604755883887488
2025-03-23 14:50:40.979,-6.27747444389055
2025-03-23 14:50:40.988,3.2991434523275402
2025-03-23 14:50:40.988,11.147786920671324
2025-03-23 14:50:40.989,8.141638906720681
2025-03-23 14:50:40.989,-3.294579120272724
2025-03-23 14:50:40.989,-10.71423184000962
2025-03-23 14:50:40.998,-6.1535429327759354
2025-03-23 14:50:40.998,4.249673365410321
2025-03-23 14:50:40.998,7.968443705606893
2025-03-23 14:50:40.999,1.4247375307260248
2025-03-23 14:50:40.999,-6.292947386430129
