timestamp,bandpass_and_notch
2025-03-23 14:33:58.290,-0.39222441484169224
2025-03-23 14:33:58.290,5.831948825851147
2025-03-23 14:33:58.291,5.817704752974199
2025-03-23 14:33:58.291,-5.163059629526819
2025-03-23 14:33:58.299,-20.46465343436081
2025-03-23 14:33:58.300,-21.036582792520097
2025-03-23 14:33:58.300,2.893556454670561
2025-03-23 14:33:58.300,31.73452341244747
2025-03-23 14:33:58.300,32.38494396284695
2025-03-23 14:33:58.308,-1.8220602991785808
2025-03-23 14:33:58.308,-38.00668951779705
2025-03-23 14:33:58.308,-38.578969935365336
2025-03-23 14:33:58.308,-3.2906846842793622
2025-03-23 14:33:58.316,31.99768366399979
2025-03-23 14:33:58.316,36.00170659947781
2025-03-23 14:33:58.316,12.40347844524646
2025-03-23 14:33:58.316,-11.719888655826821
2025-03-23 14:33:58.317,-18.575380320066877
2025-03-23 14:33:58.326,-12.973272672470857
2025-03-23 14:33:58.326,-6.989076451114568
2025-03-23 14:33:58.326,-2.4835778745015915
2025-03-23 14:33:58.326,5.910678212886917
2025-03-23 14:33:58.334,16.464382787908775
2025-03-23 14:33:58.334,18.215990447153505
2025-03-23 14:33:58.334,5.0221781486367565
2025-03-23 14:33:58.335,-13.895216640414807
2025-03-23 14:33:58.335,-22.128349059895708
2025-03-23 14:33:58.344,-13.371687271675313
2025-03-23 14:33:58.344,2.994522023778267
2025-03-23 14:33:58.344,13.171150480673845
2025-03-23 14:33:58.344,12.229883703587399
2025-03-23 14:33:58.353,5.24354616439952
2025-03-23 14:33:58.353,-1.1992611463565142
2025-03-23 14:33:58.354,-4.940168213482128
2025-03-23 14:33:58.354,-6.582472531246557
2025-03-23 14:33:58.354,-5.93289052326912
2025-03-23 14:33:58.363,-2.3993983141116026
2025-03-23 14:33:58.364,2.540118429808957
2025-03-23 14:33:58.364,5.675285614912101
2025-03-23 14:33:58.364,5.1357216860863
2025-03-23 14:33:58.364,2.00554656651417
2025-03-23 14:33:58.372,-1.2232404914429675
2025-03-23 14:33:58.372,-2.886876278403184
2025-03-23 14:33:58.372,-2.7765240074061603
2025-03-23 14:33:58.372,-1.5650226831152805
2025-03-23 14:33:58.372,-0.15789310168675938
2025-03-23 14:33:58.383,0.8479035063061986
2025-03-23 14:33:58.383,1.441147892975034
2025-03-23 14:33:58.384,1.7612740454221985
2025-03-23 14:33:58.384,1.4565091953183549
2025-03-23 14:33:58.384,0.04772269576474788
2025-03-23 14:33:58.392,-1.9062951372490742
2025-03-23 14:33:58.392,-2.714358125749196
2025-03-23 14:33:58.392,-1.3012316110961395
2025-03-23 14:33:58.392,1.224291208956319
2025-03-23 14:33:58.393,2.5248784798920036
2025-03-23 14:33:58.402,1.6344524848284392
2025-03-23 14:33:58.402,-0.15207829482813345
2025-03-23 14:33:58.402,-1.2602805993429747
2025-03-23 14:33:58.402,-1.7055443626774471
2025-03-23 14:33:58.402,-2.051191869100281
2025-03-23 14:33:58.412,-1.4191617563478163
2025-03-23 14:33:58.412,1.4942291219621973
2025-03-23 14:33:58.412,5.191191372175355
2025-03-23 14:33:58.412,5.34498715124964
2025-03-23 14:33:58.412,-0.205034487420909
2025-03-23 14:33:58.422,-7.358092715088503
2025-03-23 14:33:58.422,-8.873720587326464
2025-03-23 14:33:58.422,-2.220211488305747
2025-03-23 14:33:58.422,6.9392606850765715
2025-03-23 14:33:58.422,10.116982787083542
2025-03-23 14:33:58.432,4.527283282375872
2025-03-23 14:33:58.432,-4.359256290394502
2025-03-23 14:33:58.432,-8.541261431681358
2025-03-23 14:33:58.432,-5.133316737287907
2025-03-23 14:33:58.441,1.6780559557403054
2025-03-23 14:33:58.442,5.531818399505523
2025-03-23 14:33:58.442,4.00409457502615
2025-03-23 14:33:58.442,-0.11382369097728628
2025-03-23 14:33:58.442,-2.6955797509062513
2025-03-23 14:33:58.451,-2.385908274174243
2025-03-23 14:33:58.452,-0.7935105660714512
2025-03-23 14:33:58.452,0.30181425188170324
2025-03-23 14:33:58.452,0.8335148598744623
2025-03-23 14:33:58.452,1.5367516707728381
2025-03-23 14:33:58.461,2.0933817681232734
2025-03-23 14:33:58.462,1.1376046757470624
2025-03-23 14:33:58.462,-1.6744968012512278
2025-03-23 14:33:58.462,-4.238847607559714
2025-03-23 14:33:58.462,-3.5867071515688447
2025-03-23 14:33:58.471,0.6871236624140494
2025-03-23 14:33:58.472,5.091797570920978
2025-03-23 14:33:58.472,5.284306155374989
2025-03-23 14:33:58.472,0.7673087175117688
2025-03-23 14:33:58.472,-4.1711430640937746
2025-03-23 14:33:58.482,-4.9223870865422565
2025-03-23 14:33:58.482,-1.4572478291775617
2025-03-23 14:33:58.482,2.20662165514934
2025-03-23 14:33:58.482,2.9639329203909766
2025-03-23 14:33:58.482,1.4264348394500166
2025-03-23 14:33:58.491,-0.3033592698910726
2025-03-23 14:33:58.492,-1.4825921109750415
2025-03-23 14:33:58.492,-2.0652997469332677
2025-03-23 14:33:58.492,-1.0649548749302715
2025-03-23 14:33:58.492,1.9406552107103667
2025-03-23 14:33:58.500,4.303076465019873
2025-03-23 14:33:58.500,2.2393753966712624
2025-03-23 14:33:58.500,-3.684174731999811
2025-03-23 14:33:58.500,-7.319613581462223
2025-03-23 14:33:58.501,-3.5368856266587967
2025-03-23 14:33:58.510,4.814320168703969
2025-03-23 14:33:58.510,9.127839184075471
2025-03-23 14:33:58.510,4.665163077153199
2025-03-23 14:33:58.510,-4.0583556282409
2025-03-23 14:33:58.520,-8.508289899773542
2025-03-23 14:33:58.520,-5.217292375573113
2025-03-23 14:33:58.520,1.7014924430069422
2025-03-23 14:33:58.520,5.952435816815616
2025-03-23 14:33:58.520,5.036995978164041
2025-03-23 14:33:58.521,1.0143174031025248
2025-03-23 14:33:58.530,-2.709600860912309
2025-03-23 14:33:58.530,-4.135497062731528
2025-03-23 14:33:58.530,-3.032144418083395
2025-03-23 14:33:58.530,-0.19157301948203356
2025-03-23 14:33:58.539,2.883548854012972
2025-03-23 14:33:58.540,4.132222748926976
2025-03-23 14:33:58.540,2.120536217663001
2025-03-23 14:33:58.540,-2.0680832305997114
2025-03-23 14:33:58.540,-4.7576486919058985
2025-03-23 14:33:58.549,-2.9502783729694197
2025-03-23 14:33:58.550,2.0014258991792766
2025-03-23 14:33:58.550,5.178846462880626
2025-03-23 14:33:58.550,3.254300584446468
2025-03-23 14:33:58.550,-1.9048668745354516
2025-03-23 14:33:58.560,-5.319627838963516
2025-03-23 14:33:58.560,-3.881747054317149
2025-03-23 14:33:58.560,1.066057020349947
2025-03-23 14:33:58.560,5.208409077625922
2025-03-23 14:33:58.560,4.889088065931827
2025-03-23 14:33:58.569,0.23572435804113284
2025-03-23 14:33:58.570,-4.680003934941594
2025-03-23 14:33:58.570,-5.4264857254918795
2025-03-23 14:33:58.570,-1.490153369124864
2025-03-23 14:33:58.570,3.3369577344164374
2025-03-23 14:33:58.580,4.883083816238539
2025-03-23 14:33:58.580,2.385779354496885
2025-03-23 14:33:58.580,-1.4945426190282038
2025-03-23 14:33:58.580,-3.523098700948891
2025-03-23 14:33:58.580,-2.4926016811049285
2025-03-23 14:33:58.589,0.23075965501593174
2025-03-23 14:33:58.590,2.119748538202451
2025-03-23 14:33:58.590,1.6582513617476438
2025-03-23 14:33:58.590,-0.358106095681245
2025-03-23 14:33:58.590,-1.5438205478378413
2025-03-23 14:33:58.599,-0.3414454285493378
2025-03-23 14:33:58.600,1.9585018960786875
2025-03-23 14:33:58.600,2.1703581107377947
2025-03-23 14:33:58.600,-0.9428141780820762
2025-03-23 14:33:58.600,-4.26597104818349
2025-03-23 14:33:58.609,-3.3946267660045213
2025-03-23 14:33:58.610,1.6969626011519428
2025-03-23 14:33:58.610,5.855520769717191
2025-03-23 14:33:58.610,4.520726432601239
2025-03-23 14:33:58.610,-1.1310090857206339
2025-03-23 14:33:58.619,-5.834379160871623
2025-03-23 14:33:58.620,-5.732230305617298
2025-03-23 14:33:58.620,-1.1630554406264701
2025-03-23 14:33:58.620,4.5394380426320025
2025-03-23 14:33:58.620,7.289442073502203
2025-03-23 14:33:58.628,4.438122963728706
2025-03-23 14:33:58.628,-2.7249886102129306
2025-03-23 14:33:58.628,-8.49850484520728
2025-03-23 14:33:58.628,-7.163569298926801
2025-03-23 14:33:58.629,0.8023649256323965
2025-03-23 14:33:58.638,8.180028204887515
2025-03-23 14:33:58.638,8.08976713611806
2025-03-23 14:33:58.638,1.0579260774737718
2025-03-23 14:33:58.638,-5.975029624235861
2025-03-23 14:33:58.647,-7.056176094023924
2025-03-23 14:33:58.648,-2.473367681293921
2025-03-23 14:33:58.648,2.882818356468994
2025-03-23 14:33:58.648,4.790970260527878
2025-03-23 14:33:58.648,2.8713972291336964
2025-03-23 14:33:58.658,-0.33150136458021495
2025-03-23 14:33:58.658,-2.2291827402812925
2025-03-23 14:33:58.658,-2.114534574354946
2025-03-23 14:33:58.658,-0.9484719326223301
2025-03-23 14:33:58.658,0.12374410896677249
2025-03-23 14:33:58.667,0.7730103481636619
2025-03-23 14:33:58.668,1.1451913557430344
2025-03-23 14:33:58.668,1.0944243318138474
2025-03-23 14:33:58.668,0.327389869471456
2025-03-23 14:33:58.668,-0.813178868932768
2025-03-23 14:33:58.678,-1.3700955238667527
2025-03-23 14:33:58.678,-0.8226025966003072
2025-03-23 14:33:58.678,0.2799082529781635
2025-03-23 14:33:58.678,0.9778420882941795
2025-03-23 14:33:58.678,0.9049209457719201
2025-03-23 14:33:58.687,0.38813539683965476
2025-03-23 14:33:58.688,-0.1950332999598669
2025-03-23 14:33:58.688,-0.7406215738101344
2025-03-23 14:33:58.688,-1.0996782795499922
2025-03-23 14:33:58.688,-0.8700869769822648
2025-03-23 14:33:58.698,0.1761721115775698
2025-03-23 14:33:58.698,1.5551344258859137
2025-03-23 14:33:58.698,2.1507355830230668
2025-03-23 14:33:58.698,0.9994012240464414
2025-03-23 14:33:58.698,-1.5943403984024427
2025-03-23 14:33:58.707,-3.547097933808652
2025-03-23 14:33:58.708,-2.4433907229535348
2025-03-23 14:33:58.708,1.5221062750935874
2025-03-23 14:33:58.708,4.631143256937214
2025-03-23 14:33:58.708,3.227808719943461
2025-03-23 14:33:58.717,-1.6451714038161922
2025-03-23 14:33:58.718,-4.7607532843837665
2025-03-23 14:33:58.718,-2.6858068761132063
2025-03-23 14:33:58.718,1.981392579645427
2025-03-23 14:33:58.718,3.758316715166624
2025-03-23 14:33:58.726,1.013784964476638
2025-03-23 14:33:58.726,-2.328802917640232
2025-03-23 14:33:58.726,-2.1328173069323753
2025-03-23 14:33:58.726,0.7997674766679628
2025-03-23 14:33:58.726,2.3360237787760543
2025-03-23 14:33:58.736,0.6489086080538831
2025-03-23 14:33:58.736,-1.7778710833369484
2025-03-23 14:33:58.736,-1.84890473879308
2025-03-23 14:33:58.736,0.23839137509617161
2025-03-23 14:33:58.736,1.780751233259372
2025-03-23 14:33:58.746,1.1925650636412843
2025-03-23 14:33:58.746,-0.4922119130707885
2025-03-23 14:33:58.746,-1.3949394226735463
2025-03-23 14:33:58.746,-0.839086753352659
2025-03-23 14:33:58.755,0.4531296993643585
2025-03-23 14:33:58.756,1.2368097752652272
2025-03-23 14:33:58.756,0.6607577461777084
2025-03-23 14:33:58.756,-0.8267021215472734
2025-03-23 14:33:58.756,-1.419150784155325
2025-03-23 14:33:58.766,0.0933382244005461
2025-03-23 14:33:58.766,2.1074364073938394
2025-03-23 14:33:58.766,1.516553374705126
2025-03-23 14:33:58.766,-1.8505447774139168
2025-03-23 14:33:58.766,-3.8253003453367422
2025-03-23 14:33:58.776,-0.9770936446394073
2025-03-23 14:33:58.776,3.985150331547313
2025-03-23 14:33:58.776,4.8040513836042775
2025-03-23 14:33:58.776,-0.13408602694281824
2025-03-23 14:33:58.776,-5.172625044897131
2025-03-23 14:33:58.786,-4.410567695669394
2025-03-23 14:33:58.786,0.9562286540879168
2025-03-23 14:33:58.786,4.592411885754339
2025-03-23 14:33:58.786,3.0279548095584667
2025-03-23 14:33:58.786,-0.9103824605435928
2025-03-23 14:33:58.795,-2.6090831648603556
2025-03-23 14:33:58.796,-1.2246606291168045
2025-03-23 14:33:58.796,0.446825459986826
2025-03-23 14:33:58.796,0.289155486942694
2025-03-23 14:33:58.796,-0.7145618882531342
2025-03-23 14:33:58.805,-0.41887841713984575
2025-03-23 14:33:58.806,1.3669201723892446
2025-03-23 14:33:58.806,2.5100757785479004
2025-03-23 14:33:58.806,1.1294157444217665
2025-03-23 14:33:58.806,-1.9673986391020843
2025-03-23 14:33:58.816,-3.760171356582929
2025-03-23 14:33:58.816,-2.0772849575098347
2025-03-23 14:33:58.816,1.8644834296227932
2025-03-23 14:33:58.816,4.254458074839138
2025-03-23 14:33:58.816,2.438914779776035
2025-03-23 14:33:58.825,-1.9361801874013964
2025-03-23 14:33:58.826,-4.107291906037432
2025-03-23 14:33:58.826,-1.4228782141126295
2025-03-23 14:33:58.826,2.9689199643196225
2025-03-23 14:33:58.826,3.372443451720429
2025-03-23 14:33:58.835,-1.1278740554461408
2025-03-23 14:33:58.836,-4.792352612195231
2025-03-23 14:33:58.836,-2.3157110656653654
2025-03-23 14:33:58.836,3.9466030387525444
2025-03-23 14:33:58.836,6.450685697954656
2025-03-23 14:33:58.844,1.7319785926840914
2025-03-23 14:33:58.844,-5.316183049649932
2025-03-23 14:33:58.844,-7.156711793366731
2025-03-23 14:33:58.844,-1.962086669704542
2025-03-23 14:33:58.845,4.854321879542531
2025-03-23 14:33:58.854,6.684216490587778
2025-03-23 14:33:58.854,2.299163134525921
2025-03-23 14:33:58.854,-3.50143804004516
2025-03-23 14:33:58.854,-5.179713206851941
2025-03-23 14:33:58.864,-1.9659413779040817
2025-03-23 14:33:58.864,2.0945731632189615
2025-03-23 14:33:58.864,3.114516262543128
2025-03-23 14:33:58.864,1.224040157788689
2025-03-23 14:33:58.864,-0.8190255001267848
2025-03-23 14:33:58.873,-1.3597065603252292
2025-03-23 14:33:58.874,-0.879705742794191
2025-03-23 14:33:58.874,-0.2320245813944851
2025-03-23 14:33:58.874,0.45060208988663375
2025-03-23 14:33:58.874,1.0806437320509061
2025-03-23 14:33:58.883,1.0827805769697767
2025-03-23 14:33:58.884,0.03988886610451533
2025-03-23 14:33:58.884,-1.4913896158161886
2025-03-23 14:33:58.884,-2.10424005254796
2025-03-23 14:33:58.884,-0.7268394370812502
2025-03-23 14:33:58.893,1.9483184640851758
2025-03-23 14:33:58.894,3.4146176209398096
2025-03-23 14:33:58.894,1.6191311397870338
2025-03-23 14:33:58.894,-2.3313413802566014
2025-03-23 14:33:58.894,-4.528205937051948
2025-03-23 14:33:58.903,-2.251235699796811
2025-03-23 14:33:58.904,2.578499926461899
2025-03-23 14:33:58.904,4.916809855308075
2025-03-23 14:33:58.904,2.0732626309095408
2025-03-23 14:33:58.904,-2.9340647732289318
2025-03-23 14:33:58.913,-4.499101710719167
2025-03-23 14:33:58.914,-0.9188053506961302
2025-03-23 14:33:58.914,3.488073261265151
2025-03-23 14:33:58.914,3.5695990958196937
2025-03-23 14:33:58.914,-0.4682836472818281
2025-03-23 14:33:58.923,-3.6657387375967194
2025-03-23 14:33:58.924,-2.6188355217878727
2025-03-23 14:33:58.924,0.8418409125750612
2025-03-23 14:33:58.924,2.743664171889257
2025-03-23 14:33:58.924,1.883197213469003
2025-03-23 14:33:58.932,0.22327632985716825
2025-03-23 14:33:58.932,-0.5830257921273146
2025-03-23 14:33:58.932,-1.0565886651752274
2025-03-23 14:33:58.932,-1.9624325203574022
2025-03-23 14:33:58.942,-2.207560982324848
2025-03-23 14:33:58.942,-0.1753530619130343
2025-03-23 14:33:58.942,3.27345993890271
2025-03-23 14:33:58.942,4.703124267817499
2025-03-23 14:33:58.942,1.7621444927008383
2025-03-23 14:33:58.943,-3.586422091602899
2025-03-23 14:33:58.952,-6.323385997426684
2025-03-23 14:33:58.952,-3.300798215342112
2025-03-23 14:33:58.952,3.1180752176692175
2025-03-23 14:33:58.952,6.8427935905348285
2025-03-23 14:33:58.962,4.071307642642787
2025-03-23 14:33:58.962,-2.5226196311727924
2025-03-23 14:33:58.962,-6.282304889539871
2025-03-23 14:33:58.962,-3.5476631500743463
2025-03-23 14:33:58.962,2.4388361311522377
2025-03-23 14:33:58.971,5.201363359455298
2025-03-23 14:33:58.972,2.160941672009319
2025-03-23 14:33:58.972,-2.9087297893364568
2025-03-23 14:33:58.972,-4.535248075466046
2025-03-23 14:33:58.972,-1.39332307255788
2025-03-23 14:33:58.981,3.1094191634417894
2025-03-23 14:33:58.982,4.885477153700092
2025-03-23 14:33:58.982,2.583531435829675
2025-03-23 14:33:58.982,-2.146951659086265
2025-03-23 14:33:58.982,-5.955940758725386
2025-03-23 14:33:58.991,-5.507503359592748
2025-03-23 14:33:58.992,-0.06199886937682597
2025-03-23 14:33:58.992,6.6220077286291446
2025-03-23 14:33:58.992,8.49277757849724
2025-03-23 14:33:58.992,2.996133141803157
2025-03-23 14:33:59.001,-5.63963405822019
2025-03-23 14:33:59.002,-9.945201076549504
2025-03-23 14:33:59.002,-6.102560086403487
2025-03-23 14:33:59.002,2.770292602711808
2025-03-23 14:33:59.002,9.466826777305446
2025-03-23 14:33:59.010,8.571415652423127
2025-03-23 14:33:59.010,0.7662271538180143
2025-03-23 14:33:59.010,-7.533448497355064
2025-03-23 14:33:59.010,-9.35490145303098
2025-03-23 14:33:59.020,-3.3195875695316066
2025-03-23 14:33:59.020,4.937345146363618
2025-03-23 14:33:59.020,8.051611221682881
2025-03-23 14:33:59.020,3.999927588106174
2025-03-23 14:33:59.020,-2.4234908604080108
2025-03-23 14:33:59.029,-5.221587080601273
2025-03-23 14:33:59.030,-3.242921696613223
2025-03-23 14:33:59.030,0.15241959550418588
2025-03-23 14:33:59.030,2.085669328036654
2025-03-23 14:33:59.030,2.529019158178255
2025-03-23 14:33:59.039,2.0052197230328055
2025-03-23 14:33:59.040,-0.01187767257462909
2025-03-23 14:33:59.040,-2.9283634308551205
2025-03-23 14:33:59.040,-3.7057227332100338
2025-03-23 14:33:59.040,-0.402277749700266
2025-03-23 14:33:59.048,4.029121932115165
2025-03-23 14:33:59.048,4.3929195948297535
2025-03-23 14:33:59.048,-0.14698062964142733
2025-03-23 14:33:59.048,-4.599838824276723
2025-03-23 14:33:59.049,-4.149287345231072
2025-03-23 14:33:59.058,0.3229997615348675
2025-03-23 14:33:59.058,3.956772310941015
2025-03-23 14:33:59.058,3.6641882550767635
2025-03-23 14:33:59.058,0.5776833407838506
2025-03-23 14:33:59.059,-2.3401296947936685
2025-03-23 14:33:59.067,-3.27204464419956
2025-03-23 14:33:59.068,-2.1217869221862684
2025-03-23 14:33:59.068,0.2583637071970353
2025-03-23 14:33:59.068,2.530411775789392
2025-03-23 14:33:59.078,3.289180033543671
2025-03-23 14:33:59.078,1.9415430039793806
2025-03-23 14:33:59.078,-0.7872889278014545
2025-03-23 14:33:59.078,-3.3405506894215224
2025-03-23 14:33:59.078,-4.074661971182637
2025-03-23 14:33:59.087,-1.9218801940260926
2025-03-23 14:33:59.088,2.4206192413551877
2025-03-23 14:33:59.088,5.7543847339823735
2025-03-23 14:33:59.088,4.50813387994305
2025-03-23 14:33:59.088,-1.1406155779457288
2025-03-23 14:33:59.097,-6.245741669169963
2025-03-23 14:33:59.098,-5.734824301768428
2025-03-23 14:33:59.098,0.020712496237629496
2025-03-23 14:33:59.098,5.35161707727453
2025-03-23 14:33:59.098,5.221022683499539
2025-03-23 14:33:59.107,0.33647321852442125
2025-03-23 14:33:59.107,-3.9571707060952304
2025-03-23 14:33:59.108,-3.460260922693612
2025-03-23 14:33:59.108,0.6336122091439553
2025-03-23 14:33:59.108,3.2974432429887517
2025-03-23 14:33:59.116,1.3259425026736968
2025-03-23 14:33:59.116,-2.8989932275436705
2025-03-23 14:33:59.116,-3.898021771706861
2025-03-23 14:33:59.116,0.4155930377732988
2025-03-23 14:33:59.116,5.5827234591940895
2025-03-23 14:33:59.126,5.178140120322442
2025-03-23 14:33:59.126,-1.4295340536715084
2025-03-23 14:33:59.126,-7.409322140714442
2025-03-23 14:33:59.126,-5.8532575797759705
2025-03-23 14:33:59.136,1.9081919272358407
2025-03-23 14:33:59.136,7.3998019810819065
2025-03-23 14:33:59.136,4.853642429074074
2025-03-23 14:33:59.136,-2.144092917352964
2025-03-23 14:33:59.136,-5.491565833388316
2025-03-23 14:33:59.146,-2.411960567877521
2025-03-23 14:33:59.146,2.2268901307624756
2025-03-23 14:33:59.146,2.960770474014376
2025-03-23 14:33:59.146,0.059124341033368666
2025-03-23 14:33:59.146,-2.2430389428135937
2025-03-23 14:33:59.156,-1.5463726643721987
2025-03-23 14:33:59.156,0.7110752298776841
2025-03-23 14:33:59.156,2.080361955836471
2025-03-23 14:33:59.156,1.7978509940800764
2025-03-23 14:33:59.156,0.4563494944054737
2025-03-23 14:33:59.166,-1.3090826566755593
2025-03-23 14:33:59.166,-2.749158144147212
2025-03-23 14:33:59.166,-2.575884805519833
2025-03-23 14:33:59.166,-0.12950728920585441
2025-03-23 14:33:59.166,3.0158149851726197
2025-03-23 14:33:59.176,3.9424737169429407
2025-03-23 14:33:59.176,1.5679145357749498
2025-03-23 14:33:59.176,-1.878980210183433
2025-03-23 14:33:59.176,-3.3502820157552358
2025-03-23 14:33:59.176,-2.2841148962252
2025-03-23 14:33:59.186,-0.4229304946974737
2025-03-23 14:33:59.186,0.9865329914529066
2025-03-23 14:33:59.186,2.124399763183004
2025-03-23 14:33:59.186,2.7836990746406407
2025-03-23 14:33:59.186,1.6951818206069547
2025-03-23 14:33:59.196,-1.2775402079016613
2025-03-23 14:33:59.196,-3.7342514498424655
2025-03-23 14:33:59.196,-3.1079686836471776
2025-03-23 14:33:59.196,0.09660154060204762
2025-03-23 14:33:59.196,2.744453893412346
2025-03-23 14:33:59.205,2.6623998099259096
2025-03-23 14:33:59.206,0.7473166348980701
2025-03-23 14:33:59.206,-0.7206943223605234
2025-03-23 14:33:59.206,-0.927330922569525
2025-03-23 14:33:59.206,-0.846864557537546
2025-03-23 14:33:59.215,-1.0939839213291143
2025-03-23 14:33:59.216,-0.7917901511032157
2025-03-23 14:33:59.216,0.7037587230789525
2025-03-23 14:33:59.216,2.0110318927734974
2025-03-23 14:33:59.216,1.2183749181209838
2025-03-23 14:33:59.225,-1.0729932353435383
2025-03-23 14:33:59.226,-1.982621893263639
2025-03-23 14:33:59.226,-0.1849557140334011
2025-03-23 14:33:59.226,2.0241298634103257
2025-03-23 14:33:59.226,1.6261134298059592
2025-03-23 14:33:59.235,-1.1515935905141956
2025-03-23 14:33:59.236,-3.10469553687637
2025-03-23 14:33:59.236,-1.8978400472612211
2025-03-23 14:33:59.236,1.4698336645132437
2025-03-23 14:33:59.236,3.924008334713668
2025-03-23 14:33:59.244,3.1948435198382756
2025-03-23 14:33:59.244,-0.4097478584705133
2025-03-23 14:33:59.244,-4.180301355784588
2025-03-23 14:33:59.244,-4.888858571839435
2025-03-23 14:33:59.244,-1.4777619533311066
2025-03-23 14:33:59.254,3.564252876130472
2025-03-23 14:33:59.254,5.990219307188468
2025-03-23 14:33:59.254,3.5473784245669675
2025-03-23 14:33:59.254,-1.9448355642784874
2025-03-23 14:33:59.255,-6.128029210909983
2025-03-23 14:33:59.264,-5.578500024061374
2025-03-23 14:33:59.264,-0.41541118136673444
2025-03-23 14:33:59.264,5.526569131014304
2025-03-23 14:33:59.264,7.295368144954971
2025-03-23 14:33:59.264,2.945483319537612
2025-03-23 14:33:59.274,-4.195874251055132
2025-03-23 14:33:59.274,-7.988688515174313
2025-03-23 14:33:59.274,-5.02652791727829
2025-03-23 14:33:59.274,2.0866952175376503
2025-03-23 14:33:59.283,7.130218781057885
2025-03-23 14:33:59.284,6.007011064838762
2025-03-23 14:33:59.284,0.23323109221302324
2025-03-23 14:33:59.284,-4.941578653288808
2025-03-23 14:33:59.284,-5.50177304599969
2025-03-23 14:33:59.293,-1.826344815127069
2025-03-23 14:33:59.294,2.4037884107111855
2025-03-23 14:33:59.294,3.814665165309455
2025-03-23 14:33:59.294,2.017212308728333
2025-03-23 14:33:59.294,-0.6723828636375884
2025-03-23 14:33:59.303,-1.7836083584563953
2025-03-23 14:33:59.304,-0.9279529346089679
2025-03-23 14:33:59.304,0.3181217506389591
2025-03-23 14:33:59.304,0.3931297707182692
2025-03-23 14:33:59.304,-0.6124975747227659
2025-03-23 14:33:59.313,-1.171115847124963
2025-03-23 14:33:59.314,-0.08101872325636739
2025-03-23 14:33:59.314,1.8944509421478875
2025-03-23 14:33:59.314,2.428758483789893
2025-03-23 14:33:59.314,0.2627627191257733
2025-03-23 14:33:59.323,-2.709208898509043
2025-03-23 14:33:59.324,-3.0474656302972645
2025-03-23 14:33:59.324,0.0411007766255278
2025-03-23 14:33:59.324,3.1529050134778474
2025-03-23 14:33:59.324,2.5023371280939726
2025-03-23 14:33:59.332,-1.234075882881721
2025-03-23 14:33:59.332,-3.424073037025866
2025-03-23 14:33:59.332,-1.1285734907500462
2025-03-23 14:33:59.333,3.056100184818062
2025-03-23 14:33:59.333,3.847176629766202
2025-03-23 14:33:59.342,-0.3884584191987352
2025-03-23 14:33:59.342,-5.200735928074043
2025-03-23 14:33:59.342,-4.689820911050952
2025-03-23 14:33:59.343,1.551028115301852
2025-03-23 14:33:59.343,7.16449480360768
2025-03-23 14:33:59.352,5.684289341638297
2025-03-23 14:33:59.352,-1.9585448902357663
2025-03-23 14:33:59.352,-7.9741854486964785
2025-03-23 14:33:59.352,-6.129501075348023
2025-03-23 14:33:59.362,1.518032916098782
2025-03-23 14:33:59.362,7.132572461656489
2025-03-23 14:33:59.362,5.591863137366278
2025-03-23 14:33:59.362,-0.6967328455197923
2025-03-23 14:33:59.362,-5.244677900819253
2025-03-23 14:33:59.370,-4.350190498945751
2025-03-23 14:33:59.370,0.06143421548670269
2025-03-23 14:33:59.370,3.3690089527647413
2025-03-23 14:33:59.370,2.8758283663766284
2025-03-23 14:33:59.371,-0.15788580212588837
2025-03-23 14:33:59.381,-2.1936350103222044
2025-03-23 14:33:59.382,-1.1200155153429783
2025-03-23 14:33:59.382,1.4193093469405547
2025-03-23 14:33:59.382,1.846158104022229
2025-03-23 14:33:59.382,-0.8802436621821038
2025-03-23 14:33:59.390,-3.4978542411914053
2025-03-23 14:33:59.390,-2.1809525314056897
2025-03-23 14:33:59.390,2.4142621766662584
2025-03-23 14:33:59.390,5.2926479894650535
2025-03-23 14:33:59.391,2.8042605915836125
2025-03-23 14:33:59.400,-2.8556442113813403
2025-03-23 14:33:59.400,-5.87876902835686
2025-03-23 14:33:59.400,-3.2193560783342683
2025-03-23 14:33:59.400,2.2869194272818953
2025-03-23 14:33:59.400,5.22500269922795
2025-03-23 14:33:59.410,3.171857264122827
2025-03-23 14:33:59.410,-1.3191331738700605
2025-03-23 14:33:59.410,-3.75640689069306
2025-03-23 14:33:59.410,-2.3255712866555305
2025-03-23 14:33:59.421,0.589487991862145
2025-03-23 14:33:59.421,1.5486521334524395
2025-03-23 14:33:59.422,0.2694849943897499
2025-03-23 14:33:59.422,-0.3915076140578696
2025-03-23 14:33:59.422,1.1560347012896772
2025-03-23 14:33:59.422,2.541858004227375
2025-03-23 14:33:59.430,0.6788159086788558
2025-03-23 14:33:59.430,-3.289773423464523
2025-03-23 14:33:59.430,-4.625455208645037
2025-03-23 14:33:59.431,-1.033647846825085
2025-03-23 14:33:59.431,3.878976628306945
2025-03-23 14:33:59.440,4.696664435419675
2025-03-23 14:33:59.440,0.8020484470721292
2025-03-23 14:33:59.440,-3.025275181322671
2025-03-23 14:33:59.440,-2.7442183622730707
2025-03-23 14:33:59.441,0.17400051550172724
2025-03-23 14:33:59.450,1.4399353624874747
2025-03-23 14:33:59.450,-0.02911971928260007
2025-03-23 14:33:59.450,-1.2055252422307532
2025-03-23 14:33:59.450,0.09787663256774709
2025-03-23 14:33:59.460,2.0323462981588487
2025-03-23 14:33:59.460,1.6616322532737886
2025-03-23 14:33:59.460,-0.788162701965144
2025-03-23 14:33:59.460,-2.431184275806762
2025-03-23 14:33:59.460,-1.5908069093094226
2025-03-23 14:33:59.470,0.5069955791196665
2025-03-23 14:33:59.470,1.6928977342129679
2025-03-23 14:33:59.470,1.1905126236378953
2025-03-23 14:33:59.470,-0.1541411441231229
2025-03-23 14:33:59.470,-1.0163410013989533
2025-03-23 14:33:59.480,-0.6426804515524185
2025-03-23 14:33:59.480,0.5730663914419647
2025-03-23 14:33:59.480,1.2379634877657668
2025-03-23 14:33:59.480,0.27012275787753054
2025-03-23 14:33:59.480,-1.5628913159285978
2025-03-23 14:33:59.490,-2.0507615629125704
2025-03-23 14:33:59.490,-0.14770411973757114
2025-03-23 14:33:59.490,2.304306370053377
2025-03-23 14:33:59.490,2.440770131989685
2025-03-23 14:33:59.490,-0.060839565580719096
2025-03-23 14:33:59.500,-2.3473945879439353
2025-03-23 14:33:59.500,-1.850383391525052
2025-03-23 14:33:59.500,0.5217168487342596
2025-03-23 14:33:59.500,1.7279221981242694
2025-03-23 14:33:59.500,0.6482833825286544
2025-03-23 14:33:59.509,-0.7483507769529315
2025-03-23 14:33:59.510,-0.5746693166877358
2025-03-23 14:33:59.510,0.2928199890155272
2025-03-23 14:33:59.510,0.007984656659553682
2025-03-23 14:33:59.510,-0.9052529211158251
2025-03-23 14:33:59.519,-0.22245987082372615
2025-03-23 14:33:59.520,1.9223956636157171
2025-03-23 14:33:59.520,2.2025246642618375
2025-03-23 14:33:59.520,-1.0709788771831437
2025-03-23 14:33:59.520,-4.275757189591712
2025-03-23 14:33:59.529,-2.5653367972407497
2025-03-23 14:33:59.530,2.9634316965536294
2025-03-23 14:33:59.530,5.596858114148778
2025-03-23 14:33:59.530,1.5917675953776218
2025-03-23 14:33:59.530,-4.417424247959555
2025-03-23 14:33:59.539,-5.0295214350654405
2025-03-23 14:33:59.540,0.4306019282853484
2025-03-23 14:33:59.540,5.045495067169365
2025-03-23 14:33:59.540,3.1069557767112266
2025-03-23 14:33:59.540,-2.814897238463308
2025-03-23 14:33:59.548,-5.257954001340972
2025-03-23 14:33:59.548,-1.098571875396291
2025-03-23 14:33:59.548,4.769438084008474
2025-03-23 14:33:59.548,5.394945866373478
2025-03-23 14:33:59.549,-0.08119106400940179
2025-03-23 14:33:59.558,-5.592618573324256
2025-03-23 14:33:59.558,-5.1893380025137485
2025-03-23 14:33:59.558,0.4153532947684929
2025-03-23 14:33:59.558,5.0472043451646575
2025-03-23 14:33:59.559,4.134658059665819
2025-03-23 14:33:59.568,-0.582941639658235
2025-03-23 14:33:59.568,-3.6345429243081813
2025-03-23 14:33:59.568,-2.1914509479194537
2025-03-23 14:33:59.568,1.1570383762432992
2025-03-23 14:33:59.578,2.0838060322350325
2025-03-23 14:33:59.578,-0.0643135876142166
2025-03-23 14:33:59.578,-1.8105333322301758
2025-03-23 14:33:59.578,-0.4984512615009096
2025-03-23 14:33:59.578,1.9700595799652505
2025-03-23 14:33:59.587,1.7547634110194215
2025-03-23 14:33:59.588,-1.4198782361062268
2025-03-23 14:33:59.588,-3.4660333919766257
2025-03-23 14:33:59.588,-1.1505091379879455
2025-03-23 14:33:59.588,3.4374206541824703
2025-03-23 14:33:59.598,4.978354486728298
2025-03-23 14:33:59.598,1.101735650319531
2025-03-23 14:33:59.598,-4.650453741258641
2025-03-23 14:33:59.598,-6.408773585762811
2025-03-23 14:33:59.598,-2.1018736004477585
2025-03-23 14:33:59.608,4.360865177894769
2025-03-23 14:33:59.608,6.9584854556261675
2025-03-23 14:33:59.608,3.41000624717598
2025-03-23 14:33:59.608,-2.8250121636341055
2025-03-23 14:33:59.608,-6.119634759040427
2025-03-23 14:33:59.618,-3.995793609455699
2025-03-23 14:33:59.618,0.9970679357141851
2025-03-23 14:33:59.618,4.228288304707668
2025-03-23 14:33:59.618,3.4373311450308743
2025-03-23 14:33:59.618,0.28737916022383425
2025-03-23 14:33:59.627,-2.059409752856276
2025-03-23 14:33:59.628,-2.1751371297680313
2025-03-23 14:33:59.628,-0.8801895250929601
2025-03-23 14:33:59.628,0.5338860620437011
2025-03-23 14:33:59.628,1.3359137436104118
2025-03-23 14:33:59.638,0.9998962787280654
2025-03-23 14:33:59.638,-0.49010693275291795
2025-03-23 14:33:59.638,-1.6816371827583878
2025-03-23 14:33:59.638,-0.6958527353026942
2025-03-23 14:33:59.638,1.8928809775684838
2025-03-23 14:33:59.646,2.7603125050054813
2025-03-23 14:33:59.646,-0.04112183880534011
2025-03-23 14:33:59.646,-3.685595102332597
2025-03-23 14:33:59.647,-3.43855335682219
2025-03-23 14:33:59.647,1.0929441569485765
2025-03-23 14:33:59.657,4.754405254207578
2025-03-23 14:33:59.658,3.0113105123323
2025-03-23 14:33:59.658,-2.218909235936506
2025-03-23 14:33:59.658,-4.7671711150630145
2025-03-23 14:33:59.658,-1.7430529028107906
2025-03-23 14:33:59.666,3.1093000988390025
2025-03-23 14:33:59.666,4.1384225151685055
2025-03-23 14:33:59.666,0.421721434863828
2025-03-23 14:33:59.667,-3.5659884621938143
2025-03-23 14:33:59.667,-3.4054566971918443
2025-03-23 14:33:59.676,0.43067814094573853
2025-03-23 14:33:59.676,3.5548335037984717
2025-03-23 14:33:59.676,2.7371825455229613
2025-03-23 14:33:59.676,-0.763087592306452
2025-03-23 14:33:59.677,-3.0016817121692885
2025-03-23 14:33:59.686,-1.9280580622299666
2025-03-23 14:33:59.686,0.6134757998548072
2025-03-23 14:33:59.686,1.681124751413168
2025-03-23 14:33:59.686,0.9591653956222919
2025-03-23 14:33:59.696,0.314438905530526
2025-03-23 14:33:59.696,0.2914785627024802
2025-03-23 14:33:59.696,-0.5299723101753777
2025-03-23 14:33:59.696,-2.186326451540818
2025-03-23 14:33:59.696,-2.0873684374815924
2025-03-23 14:33:59.697,1.0363308604566615
2025-03-23 14:33:59.706,4.090598161441198
2025-03-23 14:33:59.706,3.145855813251718
2025-03-23 14:33:59.706,-1.1693130484247871
2025-03-23 14:33:59.706,-4.423809423063865
2025-03-23 14:33:59.716,-3.9080936060957354
2025-03-23 14:33:59.716,-0.8716605259752559
2025-03-23 14:33:59.716,2.370460256127663
2025-03-23 14:33:59.716,4.645813952819116
2025-03-23 14:33:59.717,4.786698293038022
2025-03-23 14:33:59.717,1.3425462489427482
2025-03-23 14:33:59.726,-4.586703396434612
2025-03-23 14:33:59.726,-8.10368555690573
2025-03-23 14:33:59.726,-4.895930334250993
2025-03-23 14:33:59.726,3.117081859945562
2025-03-23 14:33:59.736,8.628826890301518
2025-03-23 14:33:59.736,6.454016266029119
2025-03-23 14:33:59.736,-0.8998798896095912
2025-03-23 14:33:59.736,-6.231803295299902
2025-03-23 14:33:59.736,-5.4266328897867435
2025-03-23 14:33:59.746,-0.8467280015972818
2025-03-23 14:33:59.746,2.6144473455866883
2025-03-23 14:33:59.746,2.8878119563785867
2025-03-23 14:33:59.746,1.4229487150773712
2025-03-23 14:33:59.746,0.1628759744473443
2025-03-23 14:33:59.756,-0.4500072299059316
2025-03-23 14:33:59.756,-0.7926818792698813
2025-03-23 14:33:59.756,-0.9495898944288134
2025-03-23 14:33:59.756,-0.8458565979081624
2025-03-23 14:33:59.756,-0.646069947682559
2025-03-23 14:33:59.766,-0.3351283941879125
2025-03-23 14:33:59.766,0.5649875463193647
2025-03-23 14:33:59.766,2.0581715658139843
2025-03-23 14:33:59.766,2.7881128152455465
2025-03-23 14:33:59.766,1.1719209436890026
2025-03-23 14:33:59.776,-2.3027786396411183
2025-03-23 14:33:59.776,-4.73617213057858
2025-03-23 14:33:59.776,-3.494085516564693
2025-03-23 14:33:59.776,0.867251835152988
2025-03-23 14:33:59.776,4.783716845330472
2025-03-23 14:33:59.786,4.971264901172319
2025-03-23 14:33:59.786,1.458478786755488
2025-03-23 14:33:59.786,-2.696875490634575
2025-03-23 14:33:59.786,-4.471470753386319
2025-03-23 14:33:59.786,-3.303644328338313
2025-03-23 14:33:59.796,-0.6429473904580648
2025-03-23 14:33:59.796,1.9781484445121014
2025-03-23 14:33:59.796,3.6783121253494855
2025-03-23 14:33:59.796,3.652623408246397
2025-03-23 14:33:59.796,1.353243074627581
2025-03-23 14:33:59.806,-2.2417371950227327
2025-03-23 14:33:59.806,-4.596498851371781
2025-03-23 14:33:59.806,-3.8359716505166865
2025-03-23 14:33:59.806,-0.6350310445494877
2025-03-23 14:33:59.806,2.669873320822022
2025-03-23 14:33:59.816,4.295999033936709
2025-03-23 14:33:59.816,3.725650943903189
2025-03-23 14:33:59.816,1.0834692103993013
2025-03-23 14:33:59.816,-2.740905561222162
2025-03-23 14:33:59.816,-5.42617966284561
2025-03-23 14:33:59.825,-4.358887313359484
2025-03-23 14:33:59.826,0.3705821946790721
2025-03-23 14:33:59.826,4.885049421179666
2025-03-23 14:33:59.826,5.037306238631842
2025-03-23 14:33:59.826,1.1082281064240092
2025-03-23 14:33:59.835,-2.4877319131422313
2025-03-23 14:33:59.836,-2.611810809239898
2025-03-23 14:33:59.836,-0.8229333801017895
2025-03-23 14:33:59.836,-0.3353523531312146
2025-03-23 14:33:59.836,-1.2395600500016462
2025-03-23 14:33:59.846,-0.8422814938842517
2025-03-23 14:33:59.846,1.8295322350210788
2025-03-23 14:33:59.846,4.101660184457597
2025-03-23 14:33:59.846,2.9176214139479133
2025-03-23 14:33:59.846,-1.2355130952091333
2025-03-23 14:33:59.856,-4.662359740823776
2025-03-23 14:33:59.856,-4.320793805012756
2025-03-23 14:33:59.856,-0.6735947854773612
2025-03-23 14:33:59.856,3.1273162362010507
2025-03-23 14:33:59.856,4.266086077779451
2025-03-23 14:33:59.864,2.393285008157549
2025-03-23 14:33:59.864,-0.6631712357938864
2025-03-23 14:33:59.864,-2.7325358552227534
2025-03-23 14:33:59.864,-2.8481319369984734
2025-03-23 14:33:59.874,-1.4695196151243668
2025-03-23 14:33:59.874,0.3397024468136061
2025-03-23 14:33:59.874,1.8070033404363126
2025-03-23 14:33:59.874,2.598081044512889
2025-03-23 14:33:59.874,2.300862710267086
2025-03-23 14:33:59.884,0.3865701374922536
2025-03-23 14:33:59.884,-2.6784088641815575
2025-03-23 14:33:59.884,-4.646503324037304
2025-03-23 14:33:59.884,-3.0620254516556034
2025-03-23 14:33:59.885,1.7558069853524345
2025-03-23 14:33:59.893,5.969406211632186
2025-03-23 14:33:59.894,5.43176936869447
2025-03-23 14:33:59.894,-0.029462727146139622
2025-03-23 14:33:59.894,-5.830926225869303
2025-03-23 14:33:59.894,-6.674599195292379
2025-03-23 14:33:59.904,-1.6906411441591165
2025-03-23 14:33:59.904,4.5879446894218034
2025-03-23 14:33:59.904,6.543615044243642
2025-03-23 14:33:59.904,2.665998043398173
2025-03-23 14:33:59.904,-3.3557384305583713
2025-03-23 14:33:59.914,-6.096325130571116
2025-03-23 14:33:59.914,-3.0245308947061784
2025-03-23 14:33:59.914,3.224403871042815
2025-03-23 14:33:59.914,6.704227651561881
2025-03-23 14:33:59.914,3.421155711320358
2025-03-23 14:33:59.924,-4.121129932144256
2025-03-23 14:33:59.924,-8.368312453597216
2025-03-23 14:33:59.924,-4.246030463183726
2025-03-23 14:33:59.924,4.786527916872684
2025-03-23 14:33:59.924,9.659874450647553
2025-03-23 14:33:59.933,5.214854434279159
2025-03-23 14:33:59.934,-4.188069406704589
2025-03-23 14:33:59.934,-9.288898398090078
2025-03-23 14:33:59.934,-5.53659581658704
2025-03-23 14:33:59.934,2.709776626244069
2025-03-23 14:33:59.942,7.30072800617589
2025-03-23 14:33:59.942,4.641630897431904
2025-03-23 14:33:59.942,-1.5084303689773324
2025-03-23 14:33:59.942,-4.843761597403654
2025-03-23 14:33:59.952,-2.9379520417000675
2025-03-23 14:33:59.952,1.290872102287692
2025-03-23 14:33:59.952,3.364023538815177
2025-03-23 14:33:59.952,1.5599107385106732
2025-03-23 14:33:59.952,-2.0208834677171286
2025-03-23 14:33:59.962,-3.6965943261288854
2025-03-23 14:33:59.962,-1.515684172079053
2025-03-23 14:33:59.962,2.875559900880069
2025-03-23 14:33:59.962,5.362355159027211
2025-03-23 14:33:59.962,2.9843764399456862
2025-03-23 14:33:59.972,-2.8104630009273945
2025-03-23 14:33:59.972,-6.744839980373681
2025-03-23 14:33:59.972,-4.639012345121322
2025-03-23 14:33:59.972,1.8121576535328234
2025-03-23 14:33:59.972,6.225932289155174
2025-03-23 14:33:59.982,4.380713388223291
2025-03-23 14:33:59.982,-1.0159895978026996
2025-03-23 14:33:59.982,-3.734737114438078
2025-03-23 14:33:59.982,-1.5678007851008486
2025-03-23 14:33:59.982,1.4946663460834122
2025-03-23 14:33:59.991,0.9705302250909391
2025-03-23 14:33:59.992,-2.2268464144291924
2025-03-23 14:33:59.992,-3.2343706873792573
2025-03-23 14:33:59.992,0.26668178268516696
2025-03-23 14:33:59.992,4.894194620173065
2025-03-23 14:34:00.001,5.354764578003345
2025-03-23 14:34:00.002,0.4011086304430077
2025-03-23 14:34:00.002,-5.635586776539487
2025-03-23 14:34:00.002,-7.003450048972452
2025-03-23 14:34:00.002,-2.057183224798248
2025-03-23 14:34:00.012,4.997790861009579
2025-03-23 14:34:00.012,7.750076891867209
2025-03-23 14:34:00.012,3.5213557689875317
2025-03-23 14:34:00.012,-3.839696012704091
2025-03-23 14:34:00.012,-7.401942416488415
2025-03-23 14:34:00.022,-3.959336626432594
2025-03-23 14:34:00.022,2.7334014830174196
2025-03-23 14:34:00.022,6.008713789852516
2025-03-23 14:34:00.022,3.258250599790219
2025-03-23 14:34:00.022,-1.9205013355528366
2025-03-23 14:34:00.030,-4.25000801340087
2025-03-23 14:34:00.030,-2.1735509844013152
2025-03-23 14:34:00.030,1.5078174723022744
2025-03-23 14:34:00.031,3.1156910400554314
2025-03-23 14:34:00.031,1.4437406767353147
2025-03-23 14:34:00.042,-1.577268360190991
2025-03-23 14:34:00.042,-2.818792880663912
2025-03-23 14:34:00.042,-0.9896946923375023
2025-03-23 14:34:00.042,1.9037403330409672
2025-03-23 14:34:00.042,2.6642098463356954
2025-03-23 14:34:00.050,0.5943596746626896
2025-03-23 14:34:00.050,-1.8247359870020265
2025-03-23 14:34:00.050,-2.16936397322542
2025-03-23 14:34:00.051,-0.7025633569115715
2025-03-23 14:34:00.051,0.8630535945534813
2025-03-23 14:34:00.060,1.7291970778741594
2025-03-23 14:34:00.060,1.827589382455995
2025-03-23 14:34:00.060,0.6085480239190203
2025-03-23 14:34:00.061,-1.9133730333753183
2025-03-23 14:34:00.061,-3.5211051160718734
2025-03-23 14:34:00.070,-1.6856250024718442
2025-03-23 14:34:00.070,2.496801223614242
2025-03-23 14:34:00.070,4.540553512841734
2025-03-23 14:34:00.070,1.937928889337464
2025-03-23 14:34:00.080,-2.4849654065460554
2025-03-23 14:34:00.080,-4.111769516058074
2025-03-23 14:34:00.080,-1.9889522755075064
2025-03-23 14:34:00.080,1.079053438967779
2025-03-23 14:34:00.081,2.6736536860539526
2025-03-23 14:34:00.081,2.6577746584019306
2025-03-23 14:34:00.090,1.434969308767286
2025-03-23 14:34:00.090,-1.0313944076034443
2025-03-23 14:34:00.090,-3.699196549906837
2025-03-23 14:34:00.090,-3.979953983796653
2025-03-23 14:34:00.100,-0.5301263307790922
2025-03-23 14:34:00.100,4.1372239757824945
2025-03-23 14:34:00.100,5.497499207830424
2025-03-23 14:34:00.100,1.9028868783766757
2025-03-23 14:34:00.100,-3.319772702265456
2025-03-23 14:34:00.110,-5.31991312654461
2025-03-23 14:34:00.110,-2.7361110981718917
2025-03-23 14:34:00.110,1.4152387616918594
2025-03-23 14:34:00.110,3.4248628160476406
2025-03-23 14:34:00.110,2.4871182647306123
2025-03-23 14:34:00.120,0.5391182749956009
2025-03-23 14:34:00.120,-0.5596608230174982
2025-03-23 14:34:00.120,-0.8652216764521233
2025-03-23 14:34:00.120,-1.3865577278623242
2025-03-23 14:34:00.120,-2.0395346218315775
2025-03-23 14:34:00.130,-1.4725742455584734
2025-03-23 14:34:00.130,0.8627544121639105
2025-03-23 14:34:00.130,3.2762369945235483
2025-03-23 14:34:00.130,3.2978151340264072
2025-03-23 14:34:00.130,0.43891318892199016
2025-03-23 14:34:00.140,-3.0377221022954615
2025-03-23 14:34:00.140,-4.120127829888436
2025-03-23 14:34:00.140,-1.7076572585021434
2025-03-23 14:34:00.140,2.305459320220044
2025-03-23 14:34:00.140,4.344628931536543
2025-03-23 14:34:00.149,2.2611813713925226
2025-03-23 14:34:00.150,-2.143029779840883
2025-03-23 14:34:00.150,-4.291003086263143
2025-03-23 14:34:00.150,-1.6665852310495464
2025-03-23 14:34:00.150,2.8153005419285293
2025-03-23 14:34:00.160,3.778369173143025
2025-03-23 14:34:00.160,-0.019622836498397578
2025-03-23 14:34:00.160,-3.804582767748264
2025-03-23 14:34:00.160,-2.6689835238808777
2025-03-23 14:34:00.160,2.062364566668746
2025-03-23 14:34:00.168,4.394999908536642
2025-03-23 14:34:00.168,1.274139173362181
2025-03-23 14:34:00.168,-3.5545380040719396
2025-03-23 14:34:00.169,-4.220571601075043
2025-03-23 14:34:00.169,0.122555779183879
2025-03-23 14:34:00.178,4.361649683203264
2025-03-23 14:34:00.178,3.4710049210325296
2025-03-23 14:34:00.178,-1.6671230735059424
2025-03-23 14:34:00.179,-5.1744185945712164
2025-03-23 14:34:00.179,-2.7719276335148795
2025-03-23 14:34:00.188,3.2082917297097255
2025-03-23 14:34:00.188,6.182584282843237
2025-03-23 14:34:00.188,2.6876857365519604
2025-03-23 14:34:00.188,-3.6688849183340726
2025-03-23 14:34:00.189,-6.34784457938726
2025-03-23 14:34:00.199,-3.0930320990859568
2025-03-23 14:34:00.200,2.2355338483438096
2025-03-23 14:34:00.200,4.621272845366924
2025-03-23 14:34:00.200,3.057367035857978
2025-03-23 14:34:00.200,0.2990951567559735
2025-03-23 14:34:00.208,-1.1528083504950253
2025-03-23 14:34:00.208,-1.4710891328992723
2025-03-23 14:34:00.208,-2.1053815623194088
2025-03-23 14:34:00.208,-3.02513762839134
2025-03-23 14:34:00.218,-2.1722479939321118
2025-03-23 14:34:00.218,1.8468434518512773
2025-03-23 14:34:00.218,6.644234793813085
2025-03-23 14:34:00.218,6.991084132477548
2025-03-23 14:34:00.219,0.46129268667932244
2025-03-23 14:34:00.227,-8.235178400934656
2025-03-23 14:34:00.228,-10.689015674564132
2025-03-23 14:34:00.228,-3.636148461744147
2025-03-23 14:34:00.228,6.807780507735868
2025-03-23 14:34:00.228,11.071732468712387
2025-03-23 14:34:00.237,5.857487685123538
2025-03-23 14:34:00.238,-3.1150632150574094
2025-03-23 14:34:00.238,-7.748025421274175
2025-03-23 14:34:00.238,-5.5207032631793425
2025-03-23 14:34:00.238,-0.43943987719379757
2025-03-23 14:34:00.248,2.5191591285718595
2025-03-23 14:34:00.248,2.3664477629794893
2025-03-23 14:34:00.248,1.568120492168439
2025-03-23 14:34:00.248,1.908570615740216
2025-03-23 14:34:00.248,2.1391369385506547
2025-03-23 14:34:00.258,0.060834906021386546
2025-03-23 14:34:00.258,-3.773908031093658
2025-03-23 14:34:00.258,-5.677770567104078
2025-03-23 14:34:00.258,-2.8189165491361363
2025-03-23 14:34:00.258,2.9810056372252256
2025-03-23 14:34:00.267,6.5635299170825725
2025-03-23 14:34:00.268,4.781031312700784
2025-03-23 14:34:00.268,-0.38836995423719417
2025-03-23 14:34:00.268,-4.518437940570717
2025-03-23 14:34:00.268,-5.286850342720878
2025-03-23 14:34:00.278,-3.210388790760107
2025-03-23 14:34:00.278,0.6313591046397675
2025-03-23 14:34:00.278,4.9438691351020285
2025-03-23 14:34:00.278,6.7838277998235235
2025-03-23 14:34:00.278,3.2501584677350146
2025-03-23 14:34:00.286,-4.031142743348387
2025-03-23 14:34:00.286,-8.648844595828496
2025-03-23 14:34:00.286,-5.8048561174617435
2025-03-23 14:34:00.286,2.09250770119682
2025-03-23 14:34:00.296,7.815821544273291
2025-03-23 14:34:00.296,6.693646638082163
2025-03-23 14:34:00.296,0.535329977476034
2025-03-23 14:34:00.296,-5.049882306217692
2025-03-23 14:34:00.296,-5.913964194456006
2025-03-23 14:34:00.306,-2.2854058397655503
2025-03-23 14:34:00.306,2.1451942602235525
2025-03-23 14:34:00.306,3.6457868799455575
2025-03-23 14:34:00.306,1.7191058346054986
2025-03-23 14:34:00.306,-0.686508016654864
2025-03-23 14:34:00.316,-0.6533807841887884
2025-03-23 14:34:00.316,1.1457278021980417
2025-03-23 14:34:00.316,1.3139558837540926
2025-03-23 14:34:00.316,-1.618969812952918
2025-03-23 14:34:00.316,-4.653848138050089
2025-03-23 14:34:00.326,-3.5761742214854486
2025-03-23 14:34:00.326,1.72988351141719
2025-03-23 14:34:00.326,6.5167869964055605
2025-03-23 14:34:00.326,6.043546856300708
2025-03-23 14:34:00.326,0.48319764772907525
2025-03-23 14:34:00.336,-5.389329365530406
2025-03-23 14:34:00.336,-6.876192203649357
2025-03-23 14:34:00.336,-3.3421102826061113
2025-03-23 14:34:00.336,1.9308377853485952
2025-03-23 14:34:00.336,5.052513392174634
2025-03-23 14:34:00.346,4.558346637738049
2025-03-23 14:34:00.346,1.734316619427515
2025-03-23 14:34:00.346,-1.2987754852982418
2025-03-23 14:34:00.346,-3.28041969039147
2025-03-23 14:34:00.346,-3.725790608523889
2025-03-23 14:34:00.356,-2.223175250671102
2025-03-23 14:34:00.356,0.9544529914042889
2025-03-23 14:34:00.356,3.7123350874232846
2025-03-23 14:34:00.356,3.337986096928299
2025-03-23 14:34:00.356,-0.09521031419476533
2025-03-23 14:34:00.365,-2.810879720986009
2025-03-23 14:34:00.366,-1.5802545740033385
2025-03-23 14:34:00.366,1.7849281669130965
2025-03-23 14:34:00.366,2.390124100358473
2025-03-23 14:34:00.366,-1.1795149126970663
2025-03-23 14:34:00.375,-4.566498594333065
2025-03-23 14:34:00.376,-3.0493191582352934
2025-03-23 14:34:00.376,2.3964839407678213
2025-03-23 14:34:00.376,6.126095860715661
2025-03-23 14:34:00.376,4.287041479445839
2025-03-23 14:34:00.385,-1.2451043355984512
2025-03-23 14:34:00.386,-5.374615435212035
2025-03-23 14:34:00.386,-4.959928049909521
2025-03-23 14:34:00.386,-1.044208889013446
2025-03-23 14:34:00.386,2.9789076753587334
2025-03-23 14:34:00.396,4.365686062513891
2025-03-23 14:34:00.396,2.660778311374602
2025-03-23 14:34:00.396,-0.4490422073659091
2025-03-23 14:34:00.396,-2.6225040860337834
2025-03-23 14:34:00.396,-2.7295184579686644
2025-03-23 14:34:00.406,-1.4135840261242234
2025-03-23 14:34:00.406,0.21535074980382835
2025-03-23 14:34:00.406,1.7934001637387733
2025-03-23 14:34:00.406,2.9745754424301816
2025-03-23 14:34:00.406,2.35470921506835
2025-03-23 14:34:00.416,-1.0408318448946683
2025-03-23 14:34:00.416,-4.921539821051602
2025-03-23 14:34:00.416,-4.62105281291308
2025-03-23 14:34:00.416,1.2153624062211326
2025-03-23 14:34:00.416,7.145898173072482
2025-03-23 14:34:00.424,6.080414562448814
2025-03-23 14:34:00.424,-1.8552556928796227
2025-03-23 14:34:00.424,-8.379745046120526
2025-03-23 14:34:00.424,-6.3898636034645415
2025-03-23 14:34:00.434,1.7806926931260114
2025-03-23 14:34:00.434,7.42884518610301
2025-03-23 14:34:00.434,5.540440989186401
2025-03-23 14:34:00.434,-0.6349282210043795
2025-03-23 14:34:00.434,-4.666449164860247
2025-03-23 14:34:00.444,-3.9018653828341594
2025-03-23 14:34:00.444,-0.532152392572987
2025-03-23 14:34:00.444,2.0317750221908693
2025-03-23 14:34:00.444,2.0975952688494806
2025-03-23 14:34:00.444,0.23424691287722166
2025-03-23 14:34:00.454,-1.3876267864637255
2025-03-23 14:34:00.454,-0.7311707472066094
2025-03-23 14:34:00.454,1.7376957309544694
2025-03-23 14:34:00.454,2.9000123850444974
2025-03-23 14:34:00.454,0.45630251106360153
2025-03-23 14:34:00.464,-3.7479451309056353
2025-03-23 14:34:00.464,-5.178160427156924
2025-03-23 14:34:00.464,-1.6407937323005264
2025-03-23 14:34:00.464,3.9938091742582413
2025-03-23 14:34:00.464,6.5349954764023135
2025-03-23 14:34:00.474,3.585668579085397
2025-03-23 14:34:00.474,-2.294421164757336
2025-03-23 14:34:00.474,-6.143130934045669
2025-03-23 14:34:00.474,-4.962129412502797
2025-03-23 14:34:00.474,0.03877809130374693
2025-03-23 14:34:00.483,4.673355749345856
2025-03-23 14:34:00.484,5.124685105043203
2025-03-23 14:34:00.484,1.0834909360148055
2025-03-23 14:34:00.484,-3.6574043992140695
2025-03-23 14:34:00.484,-4.4051366090866555
2025-03-23 14:34:00.494,-0.4140700839609697
2025-03-23 14:34:00.494,3.8360452874417326
2025-03-23 14:34:00.494,3.4006952483322355
2025-03-23 14:34:00.494,-1.2488604534159617
2025-03-23 14:34:00.494,-4.57277099968502
2025-03-23 14:34:00.504,-2.550982169570059
2025-03-23 14:34:00.504,2.5406277434433937
2025-03-23 14:34:00.504,4.956075597421453
2025-03-23 14:34:00.504,2.1431755936752808
2025-03-23 14:34:00.504,-2.716102311372912
2025-03-23 14:34:00.514,-4.615390223290318
2025-03-23 14:34:00.514,-2.05956301246277
2025-03-23 14:34:00.514,1.8995232735680263
2025-03-23 14:34:00.514,3.3765695004756293
2025-03-23 14:34:00.514,1.6811590353957524
2025-03-23 14:34:00.524,-0.6055282574193216
2025-03-23 14:34:00.524,-1.1442862333237867
2025-03-23 14:34:00.524,-0.48331332101938285
2025-03-23 14:34:00.524,-0.6105272083035238
2025-03-23 14:34:00.524,-1.6168826902908509
2025-03-23 14:34:00.534,-1.3540263173076508
2025-03-23 14:34:00.534,1.208299101055601
2025-03-23 14:34:00.534,3.7705710881625323
2025-03-23 14:34:00.534,3.1614528008942013
2025-03-23 14:34:00.534,-0.6491747947346016
2025-03-23 14:34:00.544,-4.294868694030174
2025-03-23 14:34:00.544,-4.567516059112801
2025-03-23 14:34:00.544,-1.2583760395802435
2025-03-23 14:34:00.544,3.1807433700016725
2025-03-23 14:34:00.544,5.588181502480797
2025-03-23 14:34:00.554,3.916588063771166
2025-03-23 14:34:00.554,-1.214708905364368
2025-03-23 14:34:00.554,-6.071560880113198
2025-03-23 14:34:00.554,-6.200828889459868
2025-03-23 14:34:00.554,-0.7645163378309715
2025-03-23 14:34:00.562,5.706223297725649
2025-03-23 14:34:00.562,7.159640336677937
2025-03-23 14:34:00.562,2.149821049899456
2025-03-23 14:34:00.563,-4.4814517124196955
2025-03-23 14:34:00.563,-6.5200976885595505
2025-03-23 14:34:00.573,-2.611126141517982
2025-03-23 14:34:00.574,2.8528156999663965
2025-03-23 14:34:00.574,4.708959811569126
2025-03-23 14:34:00.574,2.11909046884907
2025-03-23 14:34:00.574,-1.443553973480233
2025-03-23 14:34:00.584,-2.4963056419590908
2025-03-23 14:34:00.584,-0.9573022562200759
2025-03-23 14:34:00.584,0.6784251388368951
2025-03-23 14:34:00.584,0.6240225726622467
2025-03-23 14:34:00.584,-0.4577506516791801
2025-03-23 14:34:00.593,-0.7327426790381049
2025-03-23 14:34:00.594,0.4950705100329523
2025-03-23 14:34:00.594,1.9609191097388101
2025-03-23 14:34:00.594,1.6924142107126325
2025-03-23 14:34:00.594,-0.849368785663893
2025-03-23 14:34:00.603,-3.626754247211813
2025-03-23 14:34:00.604,-3.447394792618417
2025-03-23 14:34:00.604,0.5862936039871437
2025-03-23 14:34:00.604,5.127357996363644
2025-03-23 14:34:00.604,5.330189916688244
2025-03-23 14:34:00.612,0.21986124827879067
2025-03-23 14:34:00.612,-5.5563893368653146
2025-03-23 14:34:00.612,-6.334663141290579
2025-03-23 14:34:00.612,-1.4267999572172607
2025-03-23 14:34:00.622,4.354624634342189
2025-03-23 14:34:00.622,5.912261995632742
2025-03-23 14:34:00.622,2.6255755622175037
2025-03-23 14:34:00.622,-2.044130442340545
2025-03-23 14:34:00.623,-4.408740013521213
2025-03-23 14:34:00.632,-3.330565525406957
2025-03-23 14:34:00.632,-0.16968241900936043
2025-03-23 14:34:00.632,2.6925912007785078
2025-03-23 14:34:00.632,3.3294242213482317
2025-03-23 14:34:00.632,1.391621371983301
2025-03-23 14:34:00.642,-1.5403617359239032
2025-03-23 14:34:00.642,-2.971989946113896
2025-03-23 14:34:00.642,-1.5377366899516076
2025-03-23 14:34:00.642,1.4980769993822725
2025-03-23 14:34:00.643,2.9957518887831265
2025-03-23 14:34:00.652,0.9901037445776565
2025-03-23 14:34:00.652,-2.7043005309570156
2025-03-23 14:34:00.652,-3.7966163785182028
2025-03-23 14:34:00.652,-0.31373157523002476
2025-03-23 14:34:00.652,4.452625404363381
2025-03-23 14:34:00.662,5.075317059472571
2025-03-23 14:34:00.662,0.20010745857877638
2025-03-23 14:34:00.662,-5.493866922598489
2025-03-23 14:34:00.662,-6.166844798271556
2025-03-23 14:34:00.662,-1.022089560156511
2025-03-23 14:34:00.671,5.022263233289716
2025-03-23 14:34:00.672,6.481376371190465
2025-03-23 14:34:00.672,2.426733890918944
2025-03-23 14:34:00.672,-3.2707280821835565
2025-03-23 14:34:00.672,-5.830851222385894
2025-03-23 14:34:00.682,-3.4954742974930166
2025-03-23 14:34:00.682,1.4022414082709824
2025-03-23 14:34:00.682,4.521601846492113
2025-03-23 14:34:00.682,3.260388222290718
2025-03-23 14:34:00.682,-0.732009611377052
2025-03-23 14:34:00.692,-3.1003618481463042
2025-03-23 14:34:00.692,-1.5175775920131518
2025-03-23 14:34:00.692,1.6097643293259538
2025-03-23 14:34:00.692,2.1136870686194325
2025-03-23 14:34:00.692,-0.6797669856263963
2025-03-23 14:34:00.702,-3.1038923543575985
2025-03-23 14:34:00.702,-1.847779780958113
2025-03-23 14:34:00.702,1.8555804095454727
2025-03-23 14:34:00.702,3.793578566513766
2025-03-23 14:34:00.702,1.8922774979259114
2025-03-23 14:34:00.712,-1.521134941921146
2025-03-23 14:34:00.712,-2.78369744565546
2025-03-23 14:34:00.712,-1.2069541845962042
2025-03-23 14:34:00.712,0.5839952945327893
2025-03-23 14:34:00.712,0.3391492821435652
2025-03-23 14:34:00.722,-0.9402175461580043
2025-03-23 14:34:00.722,-0.5416490260306064
2025-03-23 14:34:00.722,2.0662112689786256
2025-03-23 14:34:00.722,4.036957041671836
2025-03-23 14:34:00.722,2.303218399969756
2025-03-23 14:34:00.732,-2.6200568886021425
2025-03-23 14:34:00.732,-6.571150048191739
2025-03-23 14:34:00.732,-5.494723949931326
2025-03-23 14:34:00.732,0.6533476397740288
2025-03-23 14:34:00.732,7.283407102708712
2025-03-23 14:34:00.740,8.590232785076036
2025-03-23 14:34:00.740,2.7114224827169178
2025-03-23 14:34:00.741,-5.872228699164711
2025-03-23 14:34:00.741,-9.808738010382795
2025-03-23 14:34:00.750,-5.632081885847758
2025-03-23 14:34:00.750,2.9332333420726373
2025-03-23 14:34:00.750,8.54359761895614
2025-03-23 14:34:00.750,6.892166775329106
2025-03-23 14:34:00.751,0.06740391612650837
2025-03-23 14:34:00.760,-5.849167964339824
2025-03-23 14:34:00.760,-6.227107252803723
2025-03-23 14:34:00.760,-1.61339117512446
2025-03-23 14:34:00.761,3.282555936033255
2025-03-23 14:34:00.761,4.2480669417952575
2025-03-23 14:34:00.761,1.3708608568835532
2025-03-23 14:34:00.770,-1.7042773920558978
2025-03-23 14:34:00.770,-1.9993357540062653
2025-03-23 14:34:00.770,-0.14050674634160293
2025-03-23 14:34:00.771,1.0625293280805754
2025-03-23 14:34:00.781,0.27083525033105504
2025-03-23 14:34:00.782,-1.0452853219228524
2025-03-23 14:34:00.782,-0.8951356370459752
2025-03-23 14:34:00.782,0.5931887342625998
2025-03-23 14:34:00.782,1.531421669203619
2025-03-23 14:34:00.782,0.8174077866343084
2025-03-23 14:34:00.790,-0.6101671729422725
2025-03-23 14:34:00.790,-1.1907845565787614
2025-03-23 14:34:00.790,-0.6298005667226669
2025-03-23 14:34:00.791,0.1401802200579728
2025-03-23 14:34:00.791,0.39189353618942835
2025-03-23 14:34:00.801,0.30374490226662676
2025-03-23 14:34:00.802,0.3256998259846305
2025-03-23 14:34:00.802,0.4151871135443282
2025-03-23 14:34:00.802,0.12365032922360884
2025-03-23 14:34:00.802,-0.6710395374885904
2025-03-23 14:34:00.810,-1.2564497876893466
2025-03-23 14:34:00.810,-0.6286433249405311
2025-03-23 14:34:00.810,1.1175528081043722
2025-03-23 14:34:00.811,2.2723626099368386
2025-03-23 14:34:00.811,1.1775217569853593
2025-03-23 14:34:00.821,-1.5173809692366165
2025-03-23 14:34:00.822,-3.0852385335617463
2025-03-23 14:34:00.822,-1.6811525019388156
2025-03-23 14:34:00.822,1.4278337598377684
2025-03-23 14:34:00.822,3.162933618615236
2025-03-23 14:34:00.830,1.9504692559342773
2025-03-23 14:34:00.830,-0.794404605302247
2025-03-23 14:34:00.830,-2.448311025524972
2025-03-23 14:34:00.831,-1.8679187027978505
2025-03-23 14:34:00.840,-0.07394006154429418
2025-03-23 14:34:00.840,1.2658835810243814
2025-03-23 14:34:00.840,1.4630763941091982
2025-03-23 14:34:00.840,0.9167889773917669
2025-03-23 14:34:00.841,0.12764470588416224
2025-03-23 14:34:00.841,-0.8116179817039989
2025-03-23 14:34:00.850,-1.6437424184978666
2025-03-23 14:34:00.850,-1.5168878952943285
2025-03-23 14:34:00.850,0.08801605707742832
2025-03-23 14:34:00.851,2.1190097481075094
2025-03-23 14:34:00.860,2.5376494747777616
2025-03-23 14:34:00.860,0.5518381863225998
2025-03-23 14:34:00.860,-2.1838562952138614
2025-03-23 14:34:00.861,-3.0130527725971916
2025-03-23 14:34:00.861,-0.9347862816281856
2025-03-23 14:34:00.870,2.16803895778827
2025-03-23 14:34:00.870,3.099733171679148
2025-03-23 14:34:00.870,0.6617125844080045
2025-03-23 14:34:00.870,-2.6071157415076818
2025-03-23 14:34:00.870,-2.907873356319636
2025-03-23 14:34:00.880,0.26744316687313047
2025-03-23 14:34:00.880,3.2128177305562127
2025-03-23 14:34:00.880,2.4604154829371105
2025-03-23 14:34:00.880,-0.969232556881994
2025-03-23 14:34:00.881,-3.1075723017307486
2025-03-23 14:34:00.890,-2.001947102021773
2025-03-23 14:34:00.890,0.5925394054532834
2025-03-23 14:34:00.890,2.137896445646653
2025-03-23 14:34:00.890,1.9640617564097398
2025-03-23 14:34:00.890,0.6928753489164802
2025-03-23 14:34:00.900,-1.0728003128848123
2025-03-23 14:34:00.900,-2.442256664324461
2025-03-23 14:34:00.900,-2.0134952566188185
2025-03-23 14:34:00.900,0.5139345479818818
2025-03-23 14:34:00.900,3.019494855621374
2025-03-23 14:34:00.910,2.717221931440183
2025-03-23 14:34:00.910,-0.4893554587001017
2025-03-23 14:34:00.910,-3.3570097197679742
2025-03-23 14:34:00.910,-2.7026054988543935
2025-03-23 14:34:00.911,0.88496550573239
2025-03-23 14:34:00.920,3.511716435560015
2025-03-23 14:34:00.920,2.323856357507853
2025-03-23 14:34:00.920,-1.3143508091230272
2025-03-23 14:34:00.920,-3.528061716025552
2025-03-23 14:34:00.921,-2.247590311720241
2025-03-23 14:34:00.930,1.0092145275774214
2025-03-23 14:34:00.930,3.247096401258674
2025-03-23 14:34:00.930,2.8003833228681696
2025-03-23 14:34:00.930,0.2098572997877024
2025-03-23 14:34:00.930,-2.483608683346728
2025-03-23 14:34:00.940,-3.1658233900299724
2025-03-23 14:34:00.940,-1.3982375031072407
2025-03-23 14:34:00.940,1.0391424777259777
2025-03-23 14:34:00.940,2.077164602847215
2025-03-23 14:34:00.940,1.6270544745459348
2025-03-23 14:34:00.950,0.9748401370764499
2025-03-23 14:34:00.950,0.3968460145867066
2025-03-23 14:34:00.950,-0.9646688520284082
2025-03-23 14:34:00.950,-2.765812500460295
2025-03-23 14:34:00.950,-2.8560097531371853
2025-03-23 14:34:00.960,-0.04199379994059302
2025-03-23 14:34:00.960,3.575116313705068
2025-03-23 14:34:00.960,4.295630197846021
2025-03-23 14:34:00.960,0.8965088871517441
2025-03-23 14:34:00.960,-3.5714539565958114
2025-03-23 14:34:00.969,-4.550992614181514
2025-03-23 14:34:00.970,-0.8652605273441922
2025-03-23 14:34:00.970,3.498816107853447
2025-03-23 14:34:00.970,3.540875845756435
2025-03-23 14:34:00.970,-0.6795014403732904
2025-03-23 14:34:00.980,-3.7248269172636292
2025-03-23 14:34:00.980,-1.553127640122511
2025-03-23 14:34:00.980,3.06693931261674
2025-03-23 14:34:00.980,4.020243038407689
2025-03-23 14:34:00.980,-0.1728308663250147
2025-03-23 14:34:00.990,-4.51381583252469
2025-03-23 14:34:00.990,-3.998120818805025
2025-03-23 14:34:00.990,0.4633933507187039
2025-03-23 14:34:00.990,3.8995334247272484
2025-03-23 14:34:00.990,3.4018917088923932
2025-03-23 14:34:01.000,0.5153206396429194
2025-03-23 14:34:01.000,-1.7559053157847542
2025-03-23 14:34:01.000,-2.2330395365402285
2025-03-23 14:34:01.000,-1.5249661726252977
2025-03-23 14:34:01.000,-0.40522354780042796
2025-03-23 14:34:01.010,0.6946478653590017
2025-03-23 14:34:01.010,1.3763125289027793
2025-03-23 14:34:01.010,1.4275140712441503
2025-03-23 14:34:01.010,0.9965513159520937
2025-03-23 14:34:01.010,0.15807915273756762
2025-03-23 14:34:01.020,-1.1823441390932745
2025-03-23 14:34:01.020,-2.474388823897018
2025-03-23 14:34:01.020,-2.305913315519124
2025-03-23 14:34:01.020,0.0757770346342761
2025-03-23 14:34:01.020,3.2095320626207826
2025-03-23 14:34:01.028,4.232387128655932
2025-03-23 14:34:01.028,1.6222678655683271
2025-03-23 14:34:01.028,-2.9536101797189356
2025-03-23 14:34:01.029,-5.642824280488378
2025-03-23 14:34:01.038,-3.647543182504088
2025-03-23 14:34:01.038,1.8945127759132498
2025-03-23 14:34:01.038,6.271055843636328
2025-03-23 14:34:01.038,5.302343249026304
2025-03-23 14:34:01.039,-0.3807056145908818
2025-03-23 14:34:01.039,-5.617577277263983
2025-03-23 14:34:01.048,-5.742839576978869
2025-03-23 14:34:01.048,-1.0875768701182489
2025-03-23 14:34:01.048,3.7525875189369624
2025-03-23 14:34:01.049,4.704373691046505
2025-03-23 14:34:01.049,1.8225032585003438
2025-03-23 14:34:01.060,-1.5975700236421215
2025-03-23 14:34:01.060,-2.7280677792862753
2025-03-23 14:34:01.060,-1.5624428001318655
2025-03-23 14:34:01.060,0.05442214936079608
2025-03-23 14:34:01.060,0.7989991918152712
2025-03-23 14:34:01.068,0.7841664325549569
2025-03-23 14:34:01.068,0.6374755950834823
2025-03-23 14:34:01.068,0.47617066877276126
2025-03-23 14:34:01.069,-0.028442508737584908
2025-03-23 14:34:01.079,-0.876553880989844
2025-03-23 14:34:01.080,-1.3110183080601256
2025-03-23 14:34:01.080,-0.4652126398005548
2025-03-23 14:34:01.080,1.3022091407343417
2025-03-23 14:34:01.080,2.1050156596558676
2025-03-23 14:34:01.080,0.4690346447268194
2025-03-23 14:34:01.088,-2.3007182036337084
2025-03-23 14:34:01.088,-2.8712214110564327
2025-03-23 14:34:01.088,0.10835783608695843
2025-03-23 14:34:01.089,3.6353665875911956
2025-03-23 14:34:01.089,3.4465033519970145
2025-03-23 14:34:01.098,-0.7212346272559922
2025-03-23 14:34:01.098,-4.449138036607641
2025-03-23 14:34:01.098,-3.6616058030863154
2025-03-23 14:34:01.099,0.7389417930468728
2025-03-23 14:34:01.099,4.047062988325943
2025-03-23 14:34:01.108,3.075187250773706
2025-03-23 14:34:01.108,-0.5611057638327084
2025-03-23 14:34:01.108,-2.6620883189654116
2025-03-23 14:34:01.109,-1.3377598046150285
2025-03-23 14:34:01.118,1.1153636946220784
2025-03-23 14:34:01.118,1.333182640737292
2025-03-23 14:34:01.118,-0.9398735219765767
2025-03-23 14:34:01.119,-2.59654064989319
2025-03-23 14:34:01.119,-0.9999168715944047
2025-03-23 14:34:01.119,2.6247352082133344
2025-03-23 14:34:01.128,4.235670380814498
2025-03-23 14:34:01.128,1.5456767336186603
2025-03-23 14:34:01.128,-3.024189415131822
2025-03-23 14:34:01.128,-4.807868455306327
2025-03-23 14:34:01.138,-2.1695218642892606
2025-03-23 14:34:01.138,1.8743296361695585
2025-03-23 14:34:01.138,3.566695886580369
2025-03-23 14:34:01.138,2.4481031112831535
2025-03-23 14:34:01.139,0.5527881964294846
2025-03-23 14:34:01.139,-0.9361750301570266
2025-03-23 14:34:01.148,-2.2967470537337196
2025-03-23 14:34:01.148,-3.0978927215959127
2025-03-23 14:34:01.148,-1.7789164023611015
2025-03-23 14:34:01.149,1.700672682187981
2025-03-23 14:34:01.158,4.382822820177342
2025-03-23 14:34:01.158,3.1885845364479595
2025-03-23 14:34:01.158,-1.0645550760167954
2025-03-23 14:34:01.158,-4.040615002691993
2025-03-23 14:34:01.159,-2.743267586986438
2025-03-23 14:34:01.168,1.0305980662197785
2025-03-23 14:34:01.168,2.9424771633345896
2025-03-23 14:34:01.168,1.2164952588566216
2025-03-23 14:34:01.168,-1.6570707175842943
2025-03-23 14:34:01.169,-2.2656918774407644
2025-03-23 14:34:01.178,-0.10731680606474278
2025-03-23 14:34:01.178,2.3985087358520993
2025-03-23 14:34:01.178,2.7410287964717
2025-03-23 14:34:01.178,0.43753971800323566
2025-03-23 14:34:01.178,-2.8402748732003453
2025-03-23 14:34:01.188,-4.332994267695832
2025-03-23 14:34:01.188,-2.109188350193316
2025-03-23 14:34:01.188,2.7602662822143893
2025-03-23 14:34:01.188,6.118974187113429
2025-03-23 14:34:01.188,4.234580387377348
2025-03-23 14:34:01.198,-1.9597787373567213
2025-03-23 14:34:01.198,-6.909309620380866
2025-03-23 14:34:01.198,-5.684724981595453
2025-03-23 14:34:01.198,0.7582833396011713
2025-03-23 14:34:01.198,6.211417083547356
2025-03-23 14:34:01.208,5.535470144740439
2025-03-23 14:34:01.208,-0.01480873260179788
2025-03-23 14:34:01.208,-4.439026241221444
2025-03-23 14:34:01.208,-3.735318105223313
2025-03-23 14:34:01.208,0.14400892755141032
2025-03-23 14:34:01.218,2.445198947546778
2025-03-23 14:34:01.218,1.3589615513908384
2025-03-23 14:34:01.218,-0.7323983090337441
2025-03-23 14:34:01.219,-1.0476264647033393
2025-03-23 14:34:01.219,0.32715362762180245
2025-03-23 14:34:01.228,1.28910491885994
2025-03-23 14:34:01.228,0.586105386985988
2025-03-23 14:34:01.228,-0.9513633384714989
2025-03-23 14:34:01.228,-1.609417747521562
2025-03-23 14:34:01.228,-0.6714520317792285
2025-03-23 14:34:01.238,0.9013629356247278
2025-03-23 14:34:01.238,1.5203183389182071
2025-03-23 14:34:01.238,0.6388850942363642
2025-03-23 14:34:01.238,-0.7146389791506153
2025-03-23 14:34:01.238,-1.0928149399998761
2025-03-23 14:34:01.248,-0.18057453655296868
2025-03-23 14:34:01.248,0.9007728336995737
2025-03-23 14:34:01.248,0.8019857193314024
2025-03-23 14:34:01.248,-0.546872238121565
2025-03-23 14:34:01.248,-1.656241197803137
2025-03-23 14:34:01.258,-0.9542202173607486
2025-03-23 14:34:01.258,1.2385077942610485
2025-03-23 14:34:01.258,2.5777760521201047
2025-03-23 14:34:01.258,1.2022127679149368
2025-03-23 14:34:01.258,-1.7283821527575052
2025-03-23 14:34:01.266,-2.9478452942369597
2025-03-23 14:34:01.266,-0.9462676081815713
2025-03-23 14:34:01.266,1.9717897016328876
2025-03-23 14:34:01.267,2.3894143913501478
2025-03-23 14:34:01.267,2.7347800780952447e-05
2025-03-23 14:34:01.278,-2.0844493869870355
2025-03-23 14:34:01.278,-1.285985370210088
2025-03-23 14:34:01.278,1.3383190075326066
2025-03-23 14:34:01.278,2.5171927266485024
2025-03-23 14:34:01.278,0.591571187720056
2025-03-23 14:34:01.286,-2.684194395635484
2025-03-23 14:34:01.286,-3.847704431034937
2025-03-23 14:34:01.287,-1.0408162549820885
2025-03-23 14:34:01.287,3.818738881326184
2025-03-23 14:34:01.287,6.067750362734678
2025-03-23 14:34:01.296,2.5397796108182678
2025-03-23 14:34:01.296,-4.4788475212888414
2025-03-23 14:34:01.296,-8.33578090458919
2025-03-23 14:34:01.297,-4.390326072684824
2025-03-23 14:34:01.306,4.477536333186512
2025-03-23 14:34:01.306,9.744541364372044
2025-03-23 14:34:01.306,5.6686007613647815
2025-03-23 14:34:01.306,-4.192978801087731
2025-03-23 14:34:01.306,-9.945580594197635
2025-03-23 14:34:01.316,-5.6100027278581415
2025-03-23 14:34:01.316,4.21195744245792
2025-03-23 14:34:01.316,9.111594470741808
2025-03-23 14:34:01.316,4.218802786042015
2025-03-23 14:34:01.316,-4.626035618174726
2025-03-23 14:34:01.326,-7.702840381498621
2025-03-23 14:34:01.326,-2.2351582803318397
2025-03-23 14:34:01.326,5.078664428073583
2025-03-23 14:34:01.326,6.117896052130059
2025-03-23 14:34:01.326,0.3282622204721963
2025-03-23 14:34:01.336,-5.271492379058341
2025-03-23 14:34:01.336,-4.39968217686931
2025-03-23 14:34:01.336,1.490029245456926
2025-03-23 14:34:01.336,5.200397396091297
2025-03-23 14:34:01.336,2.3230126008550456
2025-03-23 14:34:01.344,-3.5288453448675723
2025-03-23 14:34:01.344,-5.018624373825582
2025-03-23 14:34:01.345,0.005626498529483603
2025-03-23 14:34:01.345,5.689224700482242
2025-03-23 14:34:01.345,5.008399579638262
2025-03-23 14:34:01.354,-1.823410121073127
2025-03-23 14:34:01.354,-7.364551850197875
2025-03-23 14:34:01.354,-5.344360417620944
2025-03-23 14:34:01.355,2.302508972177812
2025-03-23 14:34:01.364,7.702812059387745
2025-03-23 14:34:01.364,5.682830218925552
2025-03-23 14:34:01.364,-1.1725829574148077
2025-03-23 14:34:01.364,-6.122724752074509
2025-03-23 14:34:01.365,-5.41807184729469
2025-03-23 14:34:01.374,-0.9489175506709528
2025-03-23 14:34:01.374,3.037893875280517
2025-03-23 14:34:01.374,4.119538479668186
2025-03-23 14:34:01.374,2.662209403599692
2025-03-23 14:34:01.375,0.2456076065283353
2025-03-23 14:34:01.384,-1.8106616122460344
2025-03-23 14:34:01.384,-2.778620675468138
2025-03-23 14:34:01.384,-2.356453608382001
2025-03-23 14:34:01.384,-0.7081494660745962
2025-03-23 14:34:01.385,1.3322688351809282
2025-03-23 14:34:01.394,2.491819298973569
2025-03-23 14:34:01.394,2.0305984299279918
2025-03-23 14:34:01.394,0.5466001133524031
2025-03-23 14:34:01.394,-0.6854255285153248
2025-03-23 14:34:01.394,-1.2463855729048892
2025-03-23 14:34:01.404,-1.7063036582664726
2025-03-23 14:34:01.404,-2.0259848390567936
2025-03-23 14:34:01.404,-0.999431368053649
2025-03-23 14:34:01.404,1.7304381701208005
2025-03-23 14:34:01.404,3.9783056613893972
2025-03-23 14:34:01.412,2.9688309895540983
2025-03-23 14:34:01.412,-0.9370241320894778
2025-03-23 14:34:01.413,-3.966196205659453
2025-03-23 14:34:01.413,-3.1992559705394146
2025-03-23 14:34:01.413,-0.027641136500925145
2025-03-23 14:34:01.424,1.906671744710033
2025-03-23 14:34:01.424,1.442746922874786
2025-03-23 14:34:01.424,0.6919747033211445
2025-03-23 14:34:01.424,1.1503450893734473
2025-03-23 14:34:01.424,1.28621947246691
2025-03-23 14:34:01.433,-0.7502582260429328
2025-03-23 14:34:01.434,-3.5678486733858703
2025-03-23 14:34:01.434,-3.67617255770971
2025-03-23 14:34:01.434,0.0035487847043418896
2025-03-23 14:34:01.434,4.295792371680412
2025-03-23 14:34:01.442,4.990627240225388
2025-03-23 14:34:01.442,1.2597385620569712
2025-03-23 14:34:01.443,-3.5336132444593797
2025-03-23 14:34:01.443,-5.11432619757402
2025-03-23 14:34:01.443,-2.2427327614474195
2025-03-23 14:34:01.454,2.2574964936148763
2025-03-23 14:34:01.454,4.25416468269694
2025-03-23 14:34:01.454,2.288739752466566
2025-03-23 14:34:01.454,-1.2052916658547244
2025-03-23 14:34:01.454,-2.753822809860157
2025-03-23 14:34:01.464,-1.4822233278495982
2025-03-23 14:34:01.464,0.5405697424347727
2025-03-23 14:34:01.464,1.1384749221826418
2025-03-23 14:34:01.464,0.3363305094075299
2025-03-23 14:34:01.464,-0.28182469334740207
2025-03-23 14:34:01.472,0.14545931764038544
2025-03-23 14:34:01.472,0.7460470579073895
2025-03-23 14:34:01.472,0.2731321085107708
2025-03-23 14:34:01.473,-1.019796452596076
2025-03-23 14:34:01.473,-1.5067952819098023
2025-03-23 14:34:01.482,-0.24820418059806448
2025-03-23 14:34:01.482,1.6386813078839517
2025-03-23 14:34:01.483,2.050331202035021
2025-03-23 14:34:01.483,0.22676312538889923
2025-03-23 14:34:01.483,-2.1982507634315365
2025-03-23 14:34:01.492,-2.653876741355738
2025-03-23 14:34:01.492,-0.3414509555603409
2025-03-23 14:34:01.493,2.6088305041107898
2025-03-23 14:34:01.493,3.140105407030998
2025-03-23 14:34:01.493,0.580065692259627
2025-03-23 14:34:01.502,-2.4942065122210164
2025-03-23 14:34:01.502,-3.042928489991886
2025-03-23 14:34:01.503,-0.8343826983859253
2025-03-23 14:34:01.503,1.6290869969007669
2025-03-23 14:34:01.503,2.190917109996167
2025-03-23 14:34:01.512,1.1169261953595124
2025-03-23 14:34:01.512,-0.10569650902198782
2025-03-23 14:34:01.512,-0.9133066202817086
2025-03-23 14:34:01.513,-1.5871509920560727
2025-03-23 14:34:01.522,-1.701127740397923
2025-03-23 14:34:01.522,-0.2674048171335556
2025-03-23 14:34:01.522,2.2017909356672076
2025-03-23 14:34:01.523,3.197764099206949
2025-03-23 14:34:01.523,1.0239707835739655
2025-03-23 14:34:01.523,-2.522127552460351
2025-03-23 14:34:01.532,-3.7348979416358503
2025-03-23 14:34:01.533,-1.3436729821901354
2025-03-23 14:34:01.533,2.0076771012052865
2025-03-23 14:34:01.533,3.0353755184142406
2025-03-23 14:34:01.533,1.4044395469585433
2025-03-23 14:34:01.542,-0.6909201031192013
2025-03-23 14:34:01.542,-1.5259645783470768
2025-03-23 14:34:01.542,-1.2381454223503634
2025-03-23 14:34:01.543,-0.6535584647712355
2025-03-23 14:34:01.552,-0.02256200396520694
2025-03-23 14:34:01.552,0.7341780673276334
2025-03-23 14:34:01.552,1.3015064549612008
2025-03-23 14:34:01.552,1.1099694393114168
2025-03-23 14:34:01.552,0.0540342563039511
2025-03-23 14:34:01.562,-1.2216059458388984
2025-03-23 14:34:01.562,-1.7350159502824876
2025-03-23 14:34:01.562,-0.9050347158059474
2025-03-23 14:34:01.562,0.821285031229871
2025-03-23 14:34:01.563,2.042802409814299
2025-03-23 14:34:01.572,1.5613134641197337
2025-03-23 14:34:01.572,-0.29135274699217145
2025-03-23 14:34:01.572,-1.8454215926335755
2025-03-23 14:34:01.572,-1.8393071785867439
2025-03-23 14:34:01.573,-0.5747850706581539
2025-03-23 14:34:01.582,0.852296334155816
2025-03-23 14:34:01.582,1.7750126970704219
2025-03-23 14:34:01.582,1.8768903159085637
2025-03-23 14:34:01.582,0.7046676367095347
2025-03-23 14:34:01.583,-1.5607952212617209
2025-03-23 14:34:01.592,-3.176571698468752
2025-03-23 14:34:01.592,-2.139767970352927
2025-03-23 14:34:01.592,1.1838003007541857
2025-03-23 14:34:01.593,3.7979519477060752
2025-03-23 14:34:01.593,3.0941029439541436
2025-03-23 14:34:01.602,-0.39334044625289843
2025-03-23 14:34:01.602,-3.5818755113718286
2025-03-23 14:34:01.602,-3.738792097374782
2025-03-23 14:34:01.602,-0.7258443599608249
2025-03-23 14:34:01.602,2.9419801349270562
2025-03-23 14:34:01.612,4.075700303342909
2025-03-23 14:34:01.612,1.608328448530996
2025-03-23 14:34:01.612,-2.1513050486018375
2025-03-23 14:34:01.612,-3.621411186598335
2025-03-23 14:34:01.613,-1.7066729927504525
2025-03-23 14:34:01.622,1.1271874729541773
2025-03-23 14:34:01.622,1.973284863647119
2025-03-23 14:34:01.622,0.8562602176901385
2025-03-23 14:34:01.622,0.027291597058793554
2025-03-23 14:34:01.622,0.4816736370238659
2025-03-23 14:34:01.630,0.698696327316263
2025-03-23 14:34:01.630,-0.7837689762032666
2025-03-23 14:34:01.631,-2.7525920733538376
2025-03-23 14:34:01.631,-2.4466360886409815
2025-03-23 14:34:01.631,0.8168055413757921
2025-03-23 14:34:01.640,4.137479764868753
2025-03-23 14:34:01.640,3.8578775774242455
2025-03-23 14:34:01.641,-0.3027357038019065
2025-03-23 14:34:01.641,-4.5669740677566
2025-03-23 14:34:01.641,-4.777966342261546
2025-03-23 14:34:01.650,-0.5539846625445534
2025-03-23 14:34:01.650,4.286670179847819
2025-03-23 14:34:01.651,5.315863373735246
2025-03-23 14:34:01.651,1.6121094141958163
2025-03-23 14:34:01.651,-3.430484965052337
2025-03-23 14:34:01.662,-5.319241273682755
2025-03-23 14:34:01.662,-2.59822072044495
2025-03-23 14:34:01.662,2.0458831475584858
2025-03-23 14:34:01.662,4.537665709944497
2025-03-23 14:34:01.662,3.1095054110767615
2025-03-23 14:34:01.670,-0.5079046861802483
2025-03-23 14:34:01.670,-3.0851648704007566
2025-03-23 14:34:01.671,-2.827339042878399
2025-03-23 14:34:01.671,-0.5618510118825276
2025-03-23 14:34:01.680,1.4908281510506824
2025-03-23 14:34:01.680,1.847702560433985
2025-03-23 14:34:01.680,0.8057165522364935
2025-03-23 14:34:01.680,-0.3159692502208451
2025-03-23 14:34:01.681,-0.6756396340017705
2025-03-23 14:34:01.690,-0.4721236435894881
2025-03-23 14:34:01.690,-0.22573815459033456
2025-03-23 14:34:01.690,-0.07435361709640767
2025-03-23 14:34:01.691,0.05681042607110948
2025-03-23 14:34:01.691,0.140774310283503
2025-03-23 14:34:01.700,0.20030290225074077
2025-03-23 14:34:01.700,0.3224983359092539
2025-03-23 14:34:01.700,0.32496888225244647
2025-03-23 14:34:01.700,-0.08231919970027453
2025-03-23 14:34:01.700,-0.6498110502641028
2025-03-23 14:34:01.710,-0.6922402840396793
2025-03-23 14:34:01.710,-0.03574060535889586
2025-03-23 14:34:01.710,0.6873978359027878
2025-03-23 14:34:01.710,0.8450851699641513
2025-03-23 14:34:01.711,0.3802287688969211
2025-03-23 14:34:01.720,-0.4350190610213814
2025-03-23 14:34:01.720,-1.1237924365777086
2025-03-23 14:34:01.720,-0.9220498004340136
2025-03-23 14:34:01.721,0.4092483877226373
2025-03-23 14:34:01.721,1.5719137097914468
2025-03-23 14:34:01.730,0.8816665268496205
2025-03-23 14:34:01.730,-1.0922721270572344
2025-03-23 14:34:01.730,-1.6317007731640596
2025-03-23 14:34:01.730,0.3469013044045136
2025-03-23 14:34:01.731,2.2022167314173555
2025-03-23 14:34:01.740,1.00064090546541
2025-03-23 14:34:01.740,-2.0850265720736045
2025-03-23 14:34:01.740,-3.0417580278579526
2025-03-23 14:34:01.740,-0.3785104621892095
2025-03-23 14:34:01.740,2.9788569445558717
2025-03-23 14:34:01.750,3.5125871204597643
2025-03-23 14:34:01.750,0.9320570830455817
2025-03-23 14:34:01.750,-2.444537831962926
2025-03-23 14:34:01.750,-4.250200413600498
2025-03-23 14:34:01.750,-3.0783835561983492
2025-03-23 14:34:01.760,1.0457929106052306
2025-03-23 14:34:01.760,5.48655407036907
2025-03-23 14:34:01.760,5.871940797813782
2025-03-23 14:34:01.760,0.5461804221762515
2025-03-23 14:34:01.760,-6.2602108574384685
2025-03-23 14:34:01.770,-7.837286134784811
2025-03-23 14:34:01.770,-2.146393389773988
2025-03-23 14:34:01.770,5.570297230978651
2025-03-23 14:34:01.770,8.022207052434068
2025-03-23 14:34:01.770,3.2627661921590025
2025-03-23 14:34:01.780,-3.669178037799099
2025-03-23 14:34:01.780,-6.2720802610917685
2025-03-23 14:34:01.780,-3.067172150257875
2025-03-23 14:34:01.780,1.7060763065319766
2025-03-23 14:34:01.780,3.2904643125005335
2025-03-23 14:34:01.788,1.3687168326666295
2025-03-23 14:34:01.788,-0.5567302410511518
2025-03-23 14:34:01.788,-0.09237628357095269
2025-03-23 14:34:01.789,1.0940316215638843
2025-03-23 14:34:01.798,0.07114520010999877
2025-03-23 14:34:01.798,-2.626591240778653
2025-03-23 14:34:01.798,-3.1685037366702877
2025-03-23 14:34:01.798,0.23478791324940354
2025-03-23 14:34:01.799,4.227171213916315
2025-03-23 14:34:01.808,4.1762431856948234
2025-03-23 14:34:01.808,-0.057685693609297706
2025-03-23 14:34:01.808,-4.152623588048074
2025-03-23 14:34:01.808,-4.499640409441215
2025-03-23 14:34:01.808,-1.3440202210723249
2025-03-23 14:34:01.818,2.793028201145299
2025-03-23 14:34:01.818,5.2798183256473745
2025-03-23 14:34:01.818,3.8852217883038533
2025-03-23 14:34:01.819,-1.6288433389915415
2025-03-23 14:34:01.819,-7.07226990160516
2025-03-23 14:34:01.828,-6.201360428440424
2025-03-23 14:34:01.828,1.6833661077792081
2025-03-23 14:34:01.828,8.742258865668148
2025-03-23 14:34:01.828,6.782102278525769
2025-03-23 14:34:01.828,-2.419605185412196
2025-03-23 14:34:01.838,-8.61622283043336
2025-03-23 14:34:01.838,-5.315246974602927
2025-03-23 14:34:01.838,2.8258352449905213
2025-03-23 14:34:01.838,6.447682094981684
2025-03-23 14:34:01.838,2.7347489074749802
2025-03-23 14:34:01.846,-2.6067219940569513
2025-03-23 14:34:01.846,-3.518601150831019
2025-03-23 14:34:01.847,-0.4144624441762071
2025-03-23 14:34:01.847,2.027479450365305
2025-03-23 14:34:01.856,1.3363714410603078
2025-03-23 14:34:01.856,-0.7048423032217781
2025-03-23 14:34:01.856,-1.476522666066347
2025-03-23 14:34:01.857,-0.612144934892286
2025-03-23 14:34:01.857,0.6080435186113934
2025-03-23 14:34:01.857,1.191466513557327
2025-03-23 14:34:01.866,0.9279516606768693
2025-03-23 14:34:01.866,0.03082549244409643
2025-03-23 14:34:01.866,-0.8789629390189749
2025-03-23 14:34:01.867,-1.0819595997775628
2025-03-23 14:34:01.876,-0.6090052310478675
2025-03-23 14:34:01.876,-0.15925063644623141
2025-03-23 14:34:01.876,0.1484403279522808
2025-03-23 14:34:01.877,0.9725334368805537
2025-03-23 14:34:01.877,2.1048650359263443
2025-03-23 14:34:01.886,1.7769282416268233
2025-03-23 14:34:01.886,-1.0453442768667496
2025-03-23 14:34:01.886,-4.19339835992368
2025-03-23 14:34:01.886,-3.868833512958934
2025-03-23 14:34:01.886,0.6956825057592088
2025-03-23 14:34:01.896,5.365801244977825
2025-03-23 14:34:01.896,5.175781793890932
2025-03-23 14:34:01.896,-0.02643846838231778
2025-03-23 14:34:01.896,-5.134518651575974
2025-03-23 14:34:01.896,-5.200448606808805
2025-03-23 14:34:01.906,-0.5343074293065861
2025-03-23 14:34:01.906,3.9790679011963865
2025-03-23 14:34:01.906,4.145917099985143
2025-03-23 14:34:01.906,0.4952016102166025
2025-03-23 14:34:01.906,-2.843897086774456
2025-03-23 14:34:01.916,-2.7064672987987803
2025-03-23 14:34:01.916,0.11909728004182737
2025-03-23 14:34:01.916,2.3022762346817274
2025-03-23 14:34:01.916,1.7160740913144306
2025-03-23 14:34:01.916,-0.6464641910848024
2025-03-23 14:34:01.926,-2.200162229323661
2025-03-23 14:34:01.926,-1.564627767253855
2025-03-23 14:34:01.926,0.40660587064716575
2025-03-23 14:34:01.926,1.9272839731058626
2025-03-23 14:34:01.926,1.9634185533703095
2025-03-23 14:34:01.934,0.6664868997174429
2025-03-23 14:34:01.935,-1.105866445447659
2025-03-23 14:34:01.935,-2.26440078989661
2025-03-23 14:34:01.935,-1.9578172383485544
2025-03-23 14:34:01.935,-0.19753125936174643
2025-03-23 14:34:01.944,1.9087955221571418
2025-03-23 14:34:01.944,2.7821285840411036
2025-03-23 14:34:01.945,1.5379545000846377
2025-03-23 14:34:01.945,-1.0641629516053686
2025-03-23 14:34:01.945,-2.818145460792256
2025-03-23 14:34:01.956,-1.9486151013211996
2025-03-23 14:34:01.956,0.7015615378775646
2025-03-23 14:34:01.956,2.0995847624661623
2025-03-23 14:34:01.956,0.5860473644362274
2025-03-23 14:34:01.956,-1.637133727444374
2025-03-23 14:34:01.964,-1.1100108058114346
2025-03-23 14:34:01.964,1.9850637419749366
2025-03-23 14:34:01.965,3.5303777260368765
2025-03-23 14:34:01.965,0.8103334078686123
2025-03-23 14:34:01.965,-3.659674336598929
2025-03-23 14:34:01.974,-5.080994595447896
2025-03-23 14:34:01.974,-1.9886417280928406
2025-03-23 14:34:01.975,2.644069642704083
2025-03-23 14:34:01.975,5.140464166773876
2025-03-23 14:34:01.975,4.226447341429882
2025-03-23 14:34:01.984,0.7637252492557329
2025-03-23 14:34:01.984,-3.496877956805751
2025-03-23 14:34:01.985,-6.108999742419764
2025-03-23 14:34:01.985,-4.611997880819359
2025-03-23 14:34:01.994,0.9847457181594508
2025-03-23 14:34:01.994,6.6060541145082325
2025-03-23 14:34:01.994,6.950211701613176
2025-03-23 14:34:01.994,1.0787459646083961
2025-03-23 14:34:01.995,-5.707163443623347
2025-03-23 14:34:02.004,-6.943860558654581
2025-03-23 14:34:02.004,-1.8415230209404012
2025-03-23 14:34:02.004,4.077667969097567
2025-03-23 14:34:02.004,5.2111767966942315
2025-03-23 14:34:02.005,1.4708159374586858
2025-03-23 14:34:02.014,-2.716914826336024
2025-03-23 14:34:02.014,-3.5369259035936844
2025-03-23 14:34:02.014,-0.8873684856325418
2025-03-23 14:34:02.014,2.4866269418309597
2025-03-23 14:34:02.014,3.5134563180136853
2025-03-23 14:34:02.024,1.0161324253715
2025-03-23 14:34:02.024,-3.1271623308417507
2025-03-23 14:34:02.024,-5.028705928323463
2025-03-23 14:34:02.024,-2.209887321280313
2025-03-23 14:34:02.025,3.422957824864402
2025-03-23 14:34:02.034,6.632687288827584
2025-03-23 14:34:02.034,3.8231797487757704
2025-03-23 14:34:02.034,-2.8368829261111452
2025-03-23 14:34:02.034,-7.010683031492715
2025-03-23 14:34:02.035,-4.6009821655024945
2025-03-23 14:34:02.044,1.831407097626633
2025-03-23 14:34:02.044,5.833078258338436
2025-03-23 14:34:02.044,3.979365484113094
2025-03-23 14:34:02.044,-0.9404614167794909
2025-03-23 14:34:02.044,-3.687281310407411
2025-03-23 14:34:02.054,-2.3455391030805464
2025-03-23 14:34:02.054,0.4645577294581762
2025-03-23 14:34:02.054,1.4488304853853977
2025-03-23 14:34:02.054,0.35181060887003546
2025-03-23 14:34:02.055,-0.5803963991832293
2025-03-23 14:34:02.064,0.11176516512090826
2025-03-23 14:34:02.064,1.4044290319968658
2025-03-23 14:34:02.064,1.338297925361054
2025-03-23 14:34:02.064,-0.5305605380944067
2025-03-23 14:34:02.064,-2.587286458847986
2025-03-23 14:34:02.074,-2.7035192825573944
2025-03-23 14:34:02.074,-0.15686000790053595
2025-03-23 14:34:02.074,3.429715257812457
2025-03-23 14:34:02.074,4.759404444380524
2025-03-23 14:34:02.074,1.500227259205916
2025-03-23 14:34:02.082,-4.508570597298893
2025-03-23 14:34:02.082,-7.427597327229192
2025-03-23 14:34:02.083,-2.97806033777369
2025-03-23 14:34:02.083,5.702413084165644
2025-03-23 14:34:02.083,9.868331914326712
2025-03-23 14:34:02.092,4.402823130066605
2025-03-23 14:34:02.092,-5.866574440617677
2025-03-23 14:34:02.092,-10.81888686080079
2025-03-23 14:34:02.093,-5.72739295951268
2025-03-23 14:34:02.102,4.1183665951109765
2025-03-23 14:34:02.102,9.511445508641131
2025-03-23 14:34:02.102,6.575159239253306
2025-03-23 14:34:02.102,-0.7642304825351708
2025-03-23 14:34:02.102,-6.117012303598003
2025-03-23 14:34:02.112,-6.513293878372888
2025-03-23 14:34:02.112,-3.102684109292208
2025-03-23 14:34:02.112,1.6330268049904706
2025-03-23 14:34:02.112,5.4700582610717365
2025-03-23 14:34:02.112,6.192935550659879
2025-03-23 14:34:02.122,2.4739078184499763
2025-03-23 14:34:02.122,-3.758470029377701
2025-03-23 14:34:02.122,-7.397632118612981
2025-03-23 14:34:02.122,-4.743195445389099
2025-03-23 14:34:02.122,1.9785762958179016
2025-03-23 14:34:02.132,6.320173301175928
2025-03-23 14:34:02.132,4.478742525264832
2025-03-23 14:34:02.132,-0.7282381482017434
2025-03-23 14:34:02.132,-3.633287423013335
2025-03-23 14:34:02.132,-2.3229378278816486
2025-03-23 14:34:02.142,0.17333591196640652
2025-03-23 14:34:02.142,0.7585182129157266
2025-03-23 14:34:02.142,-0.02333864275332001
2025-03-23 14:34:02.142,-0.004498520717551496
2025-03-23 14:34:02.142,0.8930219378137778
2025-03-23 14:34:02.150,0.9524147364564624
2025-03-23 14:34:02.150,-0.16828186574728915
2025-03-23 14:34:02.151,-0.7674378395419295
2025-03-23 14:34:02.151,0.06989468908266724
2025-03-23 14:34:02.151,0.7422054911833283
2025-03-23 14:34:02.160,-0.5413896728461136
2025-03-23 14:34:02.161,-2.601543898963651
2025-03-23 14:34:02.161,-2.177537776594819
2025-03-23 14:34:02.161,1.6807065121051694
2025-03-23 14:34:02.161,5.44870160242096
2025-03-23 14:34:02.170,4.570489415235866
2025-03-23 14:34:02.170,-1.2068822084499589
2025-03-23 14:34:02.171,-6.917231357134359
2025-03-23 14:34:02.171,-7.103453077910963
2025-03-23 14:34:02.180,-1.1867819105266981
2025-03-23 14:34:02.180,5.903189159939738
2025-03-23 14:34:02.180,8.221682710138483
2025-03-23 14:34:02.181,4.040866580399778
2025-03-23 14:34:02.181,-2.884055185001157
2025-03-23 14:34:02.190,-6.873899385519514
2025-03-23 14:34:02.190,-5.273266256226217
2025-03-23 14:34:02.190,-0.3413082291978428
2025-03-23 14:34:02.191,3.414866304328805
2025-03-23 14:34:02.191,3.6766268038519208
2025-03-23 14:34:02.200,1.9511176517451831
2025-03-23 14:34:02.200,0.8061392813478302
2025-03-23 14:34:02.200,0.3454696294615082
2025-03-23 14:34:02.200,-1.2933046919782285
2025-03-23 14:34:02.201,-4.096221141332311
2025-03-23 14:34:02.210,-4.8303447383956115
2025-03-23 14:34:02.210,-0.9713581952893527
2025-03-23 14:34:02.210,5.067531149644789
2025-03-23 14:34:02.211,7.548448508800498
2025-03-23 14:34:02.211,3.503282488807405
2025-03-23 14:34:02.220,-3.7934660484898357
2025-03-23 14:34:02.220,-7.785694709331147
2025-03-23 14:34:02.220,-4.842601711902324
2025-03-23 14:34:02.221,2.1811765350506156
2025-03-23 14:34:02.221,6.423919804188159
2025-03-23 14:34:02.230,3.835764792380018
2025-03-23 14:34:02.230,-2.237932428647333
2025-03-23 14:34:02.230,-4.5527311365245655
2025-03-23 14:34:02.231,-0.583713959237251
2025-03-23 14:34:02.231,4.157680559103896
2025-03-23 14:34:02.240,3.0028434810887346
2025-03-23 14:34:02.240,-3.133936972636442
2025-03-23 14:34:02.240,-6.54359014090491
2025-03-23 14:34:02.240,-2.3380116166614835
2025-03-23 14:34:02.240,5.22301202307368
2025-03-23 14:34:02.248,7.652561337188309
2025-03-23 14:34:02.248,2.2650103874399052
2025-03-23 14:34:02.249,-4.914471593571131
2025-03-23 14:34:02.249,-6.470961765174487
2025-03-23 14:34:02.249,-1.8527444578410337
2025-03-23 14:34:02.260,3.0801765989060934
2025-03-23 14:34:02.260,3.5544160789657084
2025-03-23 14:34:02.260,0.6973763569876203
2025-03-23 14:34:02.260,-1.3239196170406313
2025-03-23 14:34:02.260,-0.7754130940519985
2025-03-23 14:34:02.268,0.6015802247371735
2025-03-23 14:34:02.268,0.8226307824864714
2025-03-23 14:34:02.269,-0.1416514117154501
2025-03-23 14:34:02.269,-1.2702263528231452
2025-03-23 14:34:02.278,-1.7587799671290048
2025-03-23 14:34:02.278,-0.9965987413871019
2025-03-23 14:34:02.278,1.13923769664876
2025-03-23 14:34:02.279,3.2405768426106523
2025-03-23 14:34:02.279,2.9493706399427446
2025-03-23 14:34:02.279,-0.30702514857407015
2025-03-23 14:34:02.288,-3.8884377948074786
2025-03-23 14:34:02.288,-4.340008390849549
2025-03-23 14:34:02.289,-1.0722166116250385
2025-03-23 14:34:02.289,3.0021184539411805
2025-03-23 14:34:02.298,4.433762334805447
2025-03-23 14:34:02.298,2.403274431778994
2025-03-23 14:34:02.298,-0.985411851654236
2025-03-23 14:34:02.298,-3.05999420680026
2025-03-23 14:34:02.299,-2.8814026301022353
2025-03-23 14:34:02.308,-1.3010403827731167
2025-03-23 14:34:02.308,0.603008684825392
2025-03-23 14:34:02.308,2.2837592362888373
2025-03-23 14:34:02.309,3.0202663479204155
2025-03-23 14:34:02.309,1.8140643081845584
2025-03-23 14:34:02.318,-1.0873425413895665
2025-03-23 14:34:02.318,-3.4180482633155562
2025-03-23 14:34:02.318,-2.9344271617405493
2025-03-23 14:34:02.319,-0.07175230681090855
2025-03-23 14:34:02.319,2.412466620446591
2025-03-23 14:34:02.328,2.473561377053511
2025-03-23 14:34:02.328,0.6862839738836117
2025-03-23 14:34:02.328,-0.9426979217840817
2025-03-23 14:34:02.328,-1.241310631970869
2025-03-23 14:34:02.328,-0.5558900943097047
2025-03-23 14:34:02.338,0.17392865279811817
2025-03-23 14:34:02.338,0.32227757415657515
2025-03-23 14:34:02.338,-0.15058784465630903
2025-03-23 14:34:02.339,-0.6340144189487588
2025-03-23 14:34:02.339,-0.21794060733183926
2025-03-23 14:34:02.348,1.1632666837115022
2025-03-23 14:34:02.348,2.0261086339330205
2025-03-23 14:34:02.348,0.7320782603486835
2025-03-23 14:34:02.348,-2.118492141748096
2025-03-23 14:34:02.348,-3.6006849332843323
2025-03-23 14:34:02.358,-1.5742454632410763
2025-03-23 14:34:02.358,2.4874202762955333
2025-03-23 14:34:02.358,4.62565510167995
2025-03-23 14:34:02.358,2.5246217809268514
2025-03-23 14:34:02.358,-1.962436695339911
2025-03-23 14:34:02.368,-4.650699785144599
2025-03-23 14:34:02.368,-3.1459573808033356
2025-03-23 14:34:02.368,0.9735432659793852
2025-03-23 14:34:02.368,3.8226372870586314
2025-03-23 14:34:02.368,2.9259444522521765
2025-03-23 14:34:02.378,-0.5013817571360689
2025-03-23 14:34:02.378,-2.853497970427078
2025-03-23 14:34:02.378,-1.8506892203582284
2025-03-23 14:34:02.378,1.0503028177652163
2025-03-23 14:34:02.378,2.2925829213509066
2025-03-23 14:34:02.386,0.4020770000763177
2025-03-23 14:34:02.386,-2.0811348856649587
2025-03-23 14:34:02.387,-1.7236944319761724
2025-03-23 14:34:02.387,1.10005948905999
2025-03-23 14:34:02.387,2.4016711922442977
2025-03-23 14:34:02.398,0.19326167613447826
2025-03-23 14:34:02.398,-2.248666092809524
2025-03-23 14:34:02.398,-0.9989557418952085
2025-03-23 14:34:02.398,2.236563883753105
2025-03-23 14:34:02.398,2.132757911646226
2025-03-23 14:34:02.406,-2.0172319634493032
2025-03-23 14:34:02.407,-4.317715030872899
2025-03-23 14:34:02.407,-0.5371953005514448
2025-03-23 14:34:02.407,5.1243847976643755
2025-03-23 14:34:02.407,5.16067713657253
2025-03-23 14:34:02.416,-1.0865830121985884
2025-03-23 14:34:02.417,-6.438635582747862
2025-03-23 14:34:02.417,-5.027488105215982
2025-03-23 14:34:02.417,1.0685714265478128
2025-03-23 14:34:02.417,5.39430224437524
2025-03-23 14:34:02.426,4.585669064005406
2025-03-23 14:34:02.427,0.528046034268046
2025-03-23 14:34:02.427,-3.0699977992331906
2025-03-23 14:34:02.427,-4.018253376012707
2025-03-23 14:34:02.436,-2.2390413037359242
2025-03-23 14:34:02.436,0.8573960907520488
2025-03-23 14:34:02.437,3.0995210451014383
2025-03-23 14:34:02.437,2.867538666846417
2025-03-23 14:34:02.437,0.5140471132006245
2025-03-23 14:34:02.437,-1.8214229660329715
2025-03-23 14:34:02.446,-2.229767475011478
2025-03-23 14:34:02.446,-0.7905974614114902
2025-03-23 14:34:02.447,0.7645360528377141
2025-03-23 14:34:02.447,0.9461807009211626
2025-03-23 14:34:02.456,-0.05827088090031356
2025-03-23 14:34:02.456,-0.7464809269972508
2025-03-23 14:34:02.457,-0.02129668160178682
2025-03-23 14:34:02.457,1.4835413630603904
2025-03-23 14:34:02.457,1.9240053746208383
2025-03-23 14:34:02.466,0.22534821074532735
2025-03-23 14:34:02.466,-2.4658378341568805
2025-03-23 14:34:02.466,-3.5060862764813354
2025-03-23 14:34:02.467,-1.3126113252189513
2025-03-23 14:34:02.467,2.5782642815111996
2025-03-23 14:34:02.476,4.443509323960308
2025-03-23 14:34:02.476,2.1054388868514695
2025-03-23 14:34:02.476,-2.311062934547544
2025-03-23 14:34:02.477,-4.242537754739854
2025-03-23 14:34:02.477,-1.7046873817539636
2025-03-23 14:34:02.486,2.305135381244452
2025-03-23 14:34:02.486,3.196670316224363
2025-03-23 14:34:02.486,0.181538956897164
2025-03-23 14:34:02.486,-2.8189198304032934
2025-03-23 14:34:02.487,-1.984131844266439
2025-03-23 14:34:02.496,1.6913606322630876
2025-03-23 14:34:02.496,3.6134917023239117
2025-03-23 14:34:02.496,1.2242675423680751
2025-03-23 14:34:02.496,-2.921838628215351
2025-03-23 14:34:02.496,-4.205139571149809
2025-03-23 14:34:02.506,-1.1447417300831744
2025-03-23 14:34:02.506,3.162585479218177
2025-03-23 14:34:02.506,4.3724941649243005
2025-03-23 14:34:02.506,1.2257489130936359
2025-03-23 14:34:02.506,-3.126115348051599
2025-03-23 14:34:02.516,-4.091816693952932
2025-03-23 14:34:02.516,-0.5360155663216992
2025-03-23 14:34:02.516,3.5034893880852085
2025-03-23 14:34:02.517,3.1658117666258336
2025-03-23 14:34:02.517,-1.1889821171473276
2025-03-23 14:34:02.526,-4.044029271080918
2025-03-23 14:34:02.526,-1.5982103741713505
2025-03-23 14:34:02.526,3.1959667199455057
2025-03-23 14:34:02.526,4.2301431174206074
2025-03-23 14:34:02.527,-0.02302427121757733
2025-03-23 14:34:02.536,-4.557238331067576
2025-03-23 14:34:02.536,-3.9902761583975987
2025-03-23 14:34:02.536,1.041078553907144
2025-03-23 14:34:02.536,4.904732182089921
2025-03-23 14:34:02.537,3.5895944540493727
2025-03-23 14:34:02.546,-1.200612513324841
2025-03-23 14:34:02.546,-4.537850525002856
2025-03-23 14:34:02.546,-3.4822292832880923
2025-03-23 14:34:02.546,0.6440690308873067
2025-03-23 14:34:02.546,4.058800857748052
2025-03-23 14:34:02.556,3.8425485377322803
2025-03-23 14:34:02.556,0.23549687407953432
2025-03-23 14:34:02.556,-3.546627200714716
2025-03-23 14:34:02.556,-4.113270035980009
2025-03-23 14:34:02.556,-1.0919622441133312
2025-03-23 14:34:02.564,2.5626881726270945
2025-03-23 14:34:02.565,3.6113143628060063
2025-03-23 14:34:02.565,1.6111346459252434
2025-03-23 14:34:02.565,-1.1489991290724217
2025-03-23 14:34:02.565,-2.3063768243631566
2025-03-23 14:34:02.576,-1.513790616260509
2025-03-23 14:34:02.576,-0.05759900108556794
2025-03-23 14:34:02.576,0.866811655555203
2025-03-23 14:34:02.576,1.0198740715236898
2025-03-23 14:34:02.577,0.6364519578221681
2025-03-23 14:34:02.584,-0.10167101105416242
2025-03-23 14:34:02.584,-0.840941554868698
2025-03-23 14:34:02.585,-0.8774972805214583
2025-03-23 14:34:02.585,0.14870354945771438
2025-03-23 14:34:02.594,1.4353257360927516
2025-03-23 14:34:02.594,1.4762076158714006
2025-03-23 14:34:02.594,-0.2886008811530032
2025-03-23 14:34:02.595,-2.4568675979052035
2025-03-23 14:34:02.595,-2.725081147362179
2025-03-23 14:34:02.604,-0.24081813152048265
2025-03-23 14:34:02.604,3.1260432212348492
2025-03-23 14:34:02.605,4.166806137587056
2025-03-23 14:34:02.605,1.410865533650537
2025-03-23 14:34:02.605,-3.0324716112665056
2025-03-23 14:34:02.614,-5.066706366124257
2025-03-23 14:34:02.614,-2.5362395556048964
2025-03-23 14:34:02.615,2.3721788843975316
2025-03-23 14:34:02.615,5.0284522837037
2025-03-23 14:34:02.615,2.954810537697839
2025-03-23 14:34:02.624,-1.6198228271885449
2025-03-23 14:34:02.624,-4.11660300408378
2025-03-23 14:34:02.624,-2.4287336825883665
2025-03-23 14:34:02.624,1.1065052671675562
2025-03-23 14:34:02.625,2.669958239606942
2025-03-23 14:34:02.634,1.218952624016213
2025-03-23 14:34:02.634,-0.8779756083554527
2025-03-23 14:34:02.634,-1.1430150829712007
2025-03-23 14:34:02.635,0.11320539325618723
2025-03-23 14:34:02.635,0.7348585592265323
2025-03-23 14:34:02.644,-0.12097648032896524
2025-03-23 14:34:02.644,-0.974021600853049
2025-03-23 14:34:02.644,-0.37813160807310414
2025-03-23 14:34:02.644,0.9040967547607455
2025-03-23 14:34:02.644,1.068934694787524
2025-03-23 14:34:02.654,-0.09159751736421694
2025-03-23 14:34:02.654,-1.0300339990853908
2025-03-23 14:34:02.654,-0.7371816514646556
2025-03-23 14:34:02.654,0.13566195988863916
2025-03-23 14:34:02.654,0.6421399949799373
2025-03-23 14:34:02.662,0.7214945930937307
2025-03-23 14:34:02.663,0.47719941878185074
2025-03-23 14:34:02.663,-0.4166428320306898
2025-03-23 14:34:02.663,-1.570870367241382
2025-03-23 14:34:02.663,-1.3155494467706412
2025-03-23 14:34:02.672,1.0780115193503783
2025-03-23 14:34:02.672,3.238661026618609
2025-03-23 14:34:02.673,1.868786103061315
2025-03-23 14:34:02.673,-2.5515144368682017
2025-03-23 14:34:02.673,-5.1692706061393086
2025-03-23 14:34:02.682,-2.231243844718149
2025-03-23 14:34:02.682,3.8789221787141313
2025-03-23 14:34:02.683,6.738448176451908
2025-03-23 14:34:02.683,2.968261829610515
2025-03-23 14:34:02.683,-4.009290542828001
2025-03-23 14:34:02.692,-7.565763339269324
2025-03-23 14:34:02.692,-4.3974559394551145
2025-03-23 14:34:02.693,2.666565939856934
2025-03-23 14:34:02.693,7.478944700356147
2025-03-23 14:34:02.702,5.930256137768196
2025-03-23 14:34:02.702,-0.5647236520227039
2025-03-23 14:34:02.702,-6.2810890203868786
2025-03-23 14:34:02.703,-6.334769562791866
2025-03-23 14:34:02.703,-1.1730582705870145
2025-03-23 14:34:02.712,4.1131247512114815
2025-03-23 14:34:02.712,4.977645719910975
2025-03-23 14:34:02.712,1.624812583924899
2025-03-23 14:34:02.713,-1.9428823058223854
2025-03-23 14:34:02.713,-2.477660215731255
2025-03-23 14:34:02.722,-0.5479006368451524
2025-03-23 14:34:02.722,0.8481972391119019
2025-03-23 14:34:02.722,0.08592599709031411
2025-03-23 14:34:02.724,-1.3266907214496242
2025-03-23 14:34:02.724,-0.9283083596206293
2025-03-23 14:34:02.732,1.3356166801360054
2025-03-23 14:34:02.732,2.7826753202050374
2025-03-23 14:34:02.732,1.2887048103772472
2025-03-23 14:34:02.733,-1.8038071978056252
2025-03-23 14:34:02.733,-3.0225606533739424
2025-03-23 14:34:02.742,-0.9751652339322276
2025-03-23 14:34:02.742,1.8475485130622566
2025-03-23 14:34:02.742,2.133902157503199
2025-03-23 14:34:02.742,-0.14954515599808407
2025-03-23 14:34:02.743,-1.8845494447740878
2025-03-23 14:34:02.752,-0.8863127771088264
2025-03-23 14:34:02.752,1.4265500330323424
2025-03-23 14:34:02.752,2.0395220459928463
2025-03-23 14:34:02.752,0.13188972904555413
2025-03-23 14:34:02.753,-2.115761668694392
2025-03-23 14:34:02.762,-2.2366831343188807
2025-03-23 14:34:02.762,-0.1594723852780048
2025-03-23 14:34:02.762,1.95860929265925
2025-03-23 14:34:02.763,2.1142689071575504
2025-03-23 14:34:02.763,0.43611046344836085
2025-03-23 14:34:02.772,-1.1624506624165487
2025-03-23 14:34:02.772,-1.2056470426035013
2025-03-23 14:34:02.772,-0.23119085222561905
2025-03-23 14:34:02.772,0.18617677242162736
2025-03-23 14:34:02.773,-0.32987558847012266
2025-03-23 14:34:02.782,-0.535709292968041
2025-03-23 14:34:02.782,0.43248342521819083
2025-03-23 14:34:02.782,1.5490882987825312
2025-03-23 14:34:02.782,1.2053519570974223
2025-03-23 14:34:02.783,-0.44088935403320817
2025-03-23 14:34:02.792,-1.5229596101951979
2025-03-23 14:34:02.792,-0.9692768584412755
2025-03-23 14:34:02.792,0.12115371485787672
2025-03-23 14:34:02.792,0.20199682661051632
2025-03-23 14:34:02.793,-0.4325587662000641
2025-03-23 14:34:02.802,-0.12236003758757791
2025-03-23 14:34:02.802,1.5352077845393548
2025-03-23 14:34:02.802,2.5821882087492525
2025-03-23 14:34:02.802,0.9250783774727341
2025-03-23 14:34:02.803,-2.6558387321769366
2025-03-23 14:34:02.812,-4.655471202290412
2025-03-23 14:34:02.812,-2.491827835967983
2025-03-23 14:34:02.812,2.4240991964635654
2025-03-23 14:34:02.813,5.790794734913484
2025-03-23 14:34:02.813,4.465089946920012
2025-03-23 14:34:02.822,-0.7091848935197745
2025-03-23 14:34:02.822,-5.6099306898485715
2025-03-23 14:34:02.822,-6.126435561659684
2025-03-23 14:34:02.823,-1.5593713040321382
2025-03-23 14:34:02.823,4.408305650642842
2025-03-23 14:34:02.832,6.5398896588535145
2025-03-23 14:34:02.832,2.909023967151645
2025-03-23 14:34:02.832,-2.9031098116736715
2025-03-23 14:34:02.833,-5.283758776406013
2025-03-23 14:34:02.833,-2.5147822977289347
2025-03-23 14:34:02.842,1.650578430735754
2025-03-23 14:34:02.842,2.756928958481353
2025-03-23 14:34:02.842,0.7761716844740402
2025-03-23 14:34:02.842,-0.7738572136515341
2025-03-23 14:34:02.843,0.02793047393921684
2025-03-23 14:34:02.850,1.2572128359284611
2025-03-23 14:34:02.851,0.3845386936703808
2025-03-23 14:34:02.851,-1.9536169300102164
2025-03-23 14:34:02.851,-2.7653946050442344
2025-03-23 14:34:02.851,-0.6628409188924334
2025-03-23 14:34:02.860,2.3597397313860196
2025-03-23 14:34:02.861,3.3256780333037756
2025-03-23 14:34:02.861,1.517484801411197
2025-03-23 14:34:02.861,-1.2291655655597153
2025-03-23 14:34:02.861,-2.8175198948817206
2025-03-23 14:34:02.870,-2.577818010055924
2025-03-23 14:34:02.871,-0.9070410054426595
2025-03-23 14:34:02.871,1.5038187505423428
2025-03-23 14:34:02.871,3.4287174858541496
2025-03-23 14:34:02.880,3.1175414127151586
2025-03-23 14:34:02.880,0.011122229657296659
2025-03-23 14:34:02.880,-3.656749848540914
2025-03-23 14:34:02.881,-4.398481195722504
2025-03-23 14:34:02.881,-1.219404029993054
2025-03-23 14:34:02.890,2.9911510419737364
2025-03-23 14:34:02.890,4.384887761289818
2025-03-23 14:34:02.890,1.981211678952333
2025-03-23 14:34:02.891,-1.7436048837840383
2025-03-23 14:34:02.891,-3.5325050765225368
2025-03-23 14:34:02.900,-2.2202469102694513
2025-03-23 14:34:02.900,0.6167135814318936
2025-03-23 14:34:02.900,2.3728384184588074
2025-03-23 14:34:02.901,1.840280128724335
2025-03-23 14:34:02.901,0.10488446349901562
2025-03-23 14:34:02.910,-0.9933545967062549
2025-03-23 14:34:02.910,-0.9988876444798096
2025-03-23 14:34:02.910,-0.8261950141429957
2025-03-23 14:34:02.911,-0.7763677830363099
2025-03-23 14:34:02.911,0.11492003787515612
2025-03-23 14:34:02.920,1.9975986555838756
2025-03-23 14:34:02.920,2.7699761135065475
2025-03-23 14:34:02.920,0.48369374024354617
2025-03-23 14:34:02.920,-3.2394619201873516
2025-03-23 14:34:02.921,-4.254797979305931
2025-03-23 14:34:02.930,-0.9300906554323951
2025-03-23 14:34:02.930,3.4922357164205153
2025-03-23 14:34:02.930,4.596873818600845
2025-03-23 14:34:02.930,1.6952986381683963
2025-03-23 14:34:02.931,-2.1256051742237396
2025-03-23 14:34:02.940,-3.844088352356647
2025-03-23 14:34:02.940,-2.883086991940065
2025-03-23 14:34:02.940,-0.3097461052522738
2025-03-23 14:34:02.941,2.416799309193544
2025-03-23 14:34:02.941,3.68952633423573
2025-03-23 14:34:02.948,2.412397133717677
2025-03-23 14:34:02.949,-0.6729462161645338
2025-03-23 14:34:02.949,-3.124418801588864
2025-03-23 14:34:02.949,-3.0487439059451726
2025-03-23 14:34:02.949,-0.91264080974439
2025-03-23 14:34:02.960,1.2664692583963408
2025-03-23 14:34:02.960,2.124109396818365
2025-03-23 14:34:02.960,1.8084692262067041
2025-03-23 14:34:02.960,0.9183377547956035
2025-03-23 14:34:02.961,-0.45510400099603093
2025-03-23 14:34:02.968,-2.067544213932492
2025-03-23 14:34:02.968,-2.6237463538853487
2025-03-23 14:34:02.969,-0.8756194387038414
2025-03-23 14:34:02.969,2.1834352433980646
2025-03-23 14:34:02.969,3.512809879942565
2025-03-23 14:34:02.978,1.3557646673030939
2025-03-23 14:34:02.979,-2.3022847889818254
2025-03-23 14:34:02.979,-3.67025697981135
2025-03-23 14:34:02.979,-1.3733931740429304
2025-03-23 14:34:02.979,2.150334833853708
2025-03-23 14:34:02.988,3.504964853230507
2025-03-23 14:34:02.988,1.7326833916827302
2025-03-23 14:34:02.989,-1.3718180494771737
2025-03-23 14:34:02.989,-3.373111644270111
2025-03-23 14:34:02.998,-2.905833036760841
2025-03-23 14:34:02.999,-0.1164704342733854
2025-03-23 14:34:02.999,3.2660300760265626
2025-03-23 14:34:02.999,4.4698461128429265
2025-03-23 14:34:02.999,1.8206055368261742
2025-03-23 14:34:03.008,-2.925253369598865
2025-03-23 14:34:03.008,-5.396506457489813
2025-03-23 14:34:03.009,-2.928107530321921
2025-03-23 14:34:03.009,2.221805552340286
2025-03-23 14:34:03.009,5.017414314846913
2025-03-23 14:34:03.018,3.0362165948182156
2025-03-23 14:34:03.018,-1.2241558514897037
2025-03-23 14:34:03.018,-3.567514145765673
2025-03-23 14:34:03.019,-2.5057808605630822
2025-03-23 14:34:03.019,0.13417228454268124
2025-03-23 14:34:03.028,1.926973265976727
2025-03-23 14:34:03.028,1.9581062260434043
2025-03-23 14:34:03.028,0.679027729285646
2025-03-23 14:34:03.029,-0.9285670760513299
2025-03-23 14:34:03.029,-1.7165832503554541
2025-03-23 14:34:03.038,-0.944761537362919
2025-03-23 14:34:03.038,0.7916861613287267
2025-03-23 14:34:03.039,1.757537902048561
2025-03-23 14:34:03.039,0.8780545919545393
2025-03-23 14:34:03.039,-0.9518281738091519
2025-03-23 14:34:03.048,-1.8689403620079188
2025-03-23 14:34:03.048,-1.0607484497166655
2025-03-23 14:34:03.049,0.653255449961062
2025-03-23 14:34:03.049,1.872225172610671
2025-03-23 14:34:03.049,1.7026224643265533
2025-03-23 14:34:03.058,0.17014586834593684
2025-03-23 14:34:03.058,-1.7091700235129332
2025-03-23 14:34:03.059,-2.3723337217470566
2025-03-23 14:34:03.059,-0.9951624493951352
2025-03-23 14:34:03.059,1.3974249969502563
2025-03-23 14:34:03.068,2.59191282896527
2025-03-23 14:34:03.068,1.3737807563068736
2025-03-23 14:34:03.068,-1.06800449104575
2025-03-23 14:34:03.069,-2.247122174051657
2025-03-23 14:34:03.069,-1.0146092615255213
2025-03-23 14:34:03.078,1.0875293187934043
2025-03-23 14:34:03.078,1.4851147995237373
2025-03-23 14:34:03.078,-0.296857723836234
2025-03-23 14:34:03.078,-1.7778096569259731
2025-03-23 14:34:03.079,-0.5511857567463238
2025-03-23 14:34:03.088,2.2366282161200135
2025-03-23 14:34:03.088,2.830519401596248
2025-03-23 14:34:03.088,-0.2830195697308694
2025-03-23 14:34:03.089,-3.8438840532874545
2025-03-23 14:34:03.089,-3.459771508488819
2025-03-23 14:34:03.098,0.83722271676226
2025-03-23 14:34:03.098,4.318715002631128
2025-03-23 14:34:03.098,3.1590034845357478
2025-03-23 14:34:03.099,-1.0833669159626602
2025-03-23 14:34:03.099,-3.595890317614609
2025-03-23 14:34:03.106,-2.0696906279266623
2025-03-23 14:34:03.106,1.115372290230587
2025-03-23 14:34:03.106,2.32485981805295
2025-03-23 14:34:03.107,0.7948316393357712
2025-03-23 14:34:03.116,-1.2567150740196622
2025-03-23 14:34:03.116,-1.562034161593666
2025-03-23 14:34:03.117,0.05029378848910268
2025-03-23 14:34:03.117,1.872787156484426
2025-03-23 14:34:03.117,1.9187951745858882
2025-03-23 14:34:03.117,-0.27201478789636085
2025-03-23 14:34:03.126,-2.769451708528792
2025-03-23 14:34:03.127,-2.745760783195087
2025-03-23 14:34:03.127,0.2698238837020883
2025-03-23 14:34:03.127,3.1710121302692946
2025-03-23 14:34:03.138,2.6147124589992834
2025-03-23 14:34:03.138,-0.6648779855381437
2025-03-23 14:34:03.138,-2.5466091464897693
2025-03-23 14:34:03.138,-0.8746525641096251
2025-03-23 14:34:03.138,1.6633401759987612
2025-03-23 14:34:03.138,1.266370119367566
2025-03-23 14:34:03.146,-1.6440854891476313
2025-03-23 14:34:03.147,-2.8700994096750914
2025-03-23 14:34:03.147,-0.1688413713730129
2025-03-23 14:34:03.147,3.5023766517588
2025-03-23 14:34:03.147,3.6344133474754807
2025-03-23 14:34:03.156,-0.17520204062516248
2025-03-23 14:34:03.157,-3.8456654986570387
2025-03-23 14:34:03.157,-3.7068361018033587
2025-03-23 14:34:03.157,-0.26917376529104736
2025-03-23 14:34:03.157,2.975374636619468
2025-03-23 14:34:03.166,3.2799752356730094
2025-03-23 14:34:03.166,0.8328390250698314
2025-03-23 14:34:03.167,-1.8722437223419695
2025-03-23 14:34:03.167,-2.4097008071634636
2025-03-23 14:34:03.176,-0.6379440138320683
2025-03-23 14:34:03.176,1.2473880912774535
2025-03-23 14:34:03.177,1.181993412508366
2025-03-23 14:34:03.177,-0.37417235855115966
2025-03-23 14:34:03.177,-1.129678662345432
2025-03-23 14:34:03.177,-0.02238165263071229
2025-03-23 14:34:03.186,1.3667342942650864
2025-03-23 14:34:03.186,1.0183004618403615
2025-03-23 14:34:03.187,-0.7169386544213615
2025-03-23 14:34:03.187,-1.6001795567183388
2025-03-23 14:34:03.196,-0.5313240585759833
2025-03-23 14:34:03.196,1.0801342455361935
2025-03-23 14:34:03.196,1.2525179316731452
2025-03-23 14:34:03.197,-0.12564511084591307
2025-03-23 14:34:03.197,-1.350933267826979
2025-03-23 14:34:03.206,-1.00881968965007
2025-03-23 14:34:03.206,0.5012802091523724
2025-03-23 14:34:03.206,1.5572839500867697
2025-03-23 14:34:03.207,1.1373589103255746
2025-03-23 14:34:03.207,-0.2208673115493212
2025-03-23 14:34:03.216,-1.2820815796446834
2025-03-23 14:34:03.216,-1.4674252040685714
2025-03-23 14:34:03.217,-0.9128614078263655
2025-03-23 14:34:03.217,0.3050466959846494
2025-03-23 14:34:03.217,1.9068904879966428
2025-03-23 14:34:03.226,2.5127521556234993
2025-03-23 14:34:03.226,0.6787830220855142
2025-03-23 14:34:03.226,-2.4680508340812146
2025-03-23 14:34:03.227,-3.389516153284409
2025-03-23 14:34:03.227,-0.5168164702066758
2025-03-23 14:34:03.236,2.8982621144638476
2025-03-23 14:34:03.236,2.5499654198834265
2025-03-23 14:34:03.236,-1.0094683530402777
2025-03-23 14:34:03.237,-2.875008070900915
2025-03-23 14:34:03.237,-0.4753192409762965
2025-03-23 14:34:03.246,2.870268976611197
2025-03-23 14:34:03.246,2.511706179988071
2025-03-23 14:34:03.246,-1.2929026072938765
2025-03-23 14:34:03.247,-3.8936645591575694
2025-03-23 14:34:03.247,-2.281405726700448
2025-03-23 14:34:03.256,1.6099129824217497
2025-03-23 14:34:03.256,3.7922659502529394
2025-03-23 14:34:03.257,2.5665539396509973
2025-03-23 14:34:03.257,-0.6178824670026573
2025-03-23 14:34:03.257,-3.1375961829007815
2025-03-23 14:34:03.266,-3.1414041575136604
2025-03-23 14:34:03.266,-0.6179767575905353
2025-03-23 14:34:03.267,2.42004223230257
2025-03-23 14:34:03.267,3.3243426178691866
2025-03-23 14:34:03.267,1.2695784409506894
2025-03-23 14:34:03.276,-1.7304644811644267
2025-03-23 14:34:03.276,-2.769928776191468
2025-03-23 14:34:03.276,-1.0729726293815496
2025-03-23 14:34:03.277,1.253396137617959
2025-03-23 14:34:03.277,1.6502022642702399
2025-03-23 14:34:03.286,0.019074589630763028
2025-03-23 14:34:03.286,-1.2843102337580525
2025-03-23 14:34:03.286,-0.4518327658333845
2025-03-23 14:34:03.287,1.4454451985132346
2025-03-23 14:34:03.287,1.8190014716744516
2025-03-23 14:34:03.296,-0.08934500193120322
2025-03-23 14:34:03.296,-2.265645783416949
2025-03-23 14:34:03.296,-2.463860801081026
2025-03-23 14:34:03.297,-0.6142849446610159
2025-03-23 14:34:03.297,1.7027605210458912
2025-03-23 14:34:03.304,2.9796507950784377
2025-03-23 14:34:03.304,2.271856779307844
2025-03-23 14:34:03.305,-0.5545036057184247
2025-03-23 14:34:03.305,-3.6517286058623317
2025-03-23 14:34:03.305,-3.6480813933530634
2025-03-23 14:34:03.314,0.4715818862022905
2025-03-23 14:34:03.315,4.651393051164364
2025-03-23 14:34:03.315,3.679447833452392
2025-03-23 14:34:03.315,-1.906694922543174
2025-03-23 14:34:03.315,-5.556199508955347
2025-03-23 14:34:03.324,-2.6041935060497217
2025-03-23 14:34:03.324,3.737588639984006
2025-03-23 14:34:03.325,6.1746017885396105
2025-03-23 14:34:03.325,1.8416279161681415
2025-03-23 14:34:03.334,-4.815017451104415
2025-03-23 14:34:03.335,-7.08036189991196
2025-03-23 14:34:03.335,-2.5602759460437188
2025-03-23 14:34:03.335,4.794773301656011
2025-03-23 14:34:03.335,8.234345566980673
2025-03-23 14:34:03.344,4.323767530152771
2025-03-23 14:34:03.344,-3.5241347770735887
2025-03-23 14:34:03.344,-8.06262733670225
2025-03-23 14:34:03.345,-5.458678046605732
2025-03-23 14:34:03.345,1.0394011100855005
2025-03-23 14:34:03.354,5.220133779484444
2025-03-23 14:34:03.354,4.582431914060791
2025-03-23 14:34:03.355,1.6325861352709956
2025-03-23 14:34:03.355,-0.5351050212430739
2025-03-23 14:34:03.355,-1.6822112831047922
2025-03-23 14:34:03.364,-2.8996904508393437
2025-03-23 14:34:03.364,-3.5574974456409962
2025-03-23 14:34:03.365,-1.7715759342120891
2025-03-23 14:34:03.365,2.234055509390328
2025-03-23 14:34:03.365,5.054932756422374
2025-03-23 14:34:03.374,3.644876241212218
2025-03-23 14:34:03.374,-0.7437747307729619
2025-03-23 14:34:03.375,-3.6678362025088185
2025-03-23 14:34:03.375,-2.7020132142338604
2025-03-23 14:34:03.375,-0.0712545777297661
2025-03-23 14:34:03.384,0.7434276097674652
2025-03-23 14:34:03.385,-0.33556119398865314
2025-03-23 14:34:03.385,-0.44389761646954984
2025-03-23 14:34:03.385,1.631840022532917
2025-03-23 14:34:03.385,3.4241347669803592
2025-03-23 14:34:03.394,2.0500209911655225
2025-03-23 14:34:03.394,-1.8858378032335008
2025-03-23 14:34:03.394,-4.795349605831037
2025-03-23 14:34:03.395,-3.9542315821981386
2025-03-23 14:34:03.395,-0.011568353685497218
2025-03-23 14:34:03.404,3.938357430963769
2025-03-23 14:34:03.404,5.005150140853801
2025-03-23 14:34:03.404,2.5384338641178683
2025-03-23 14:34:03.404,-1.5269580169123427
2025-03-23 14:34:03.405,-4.187681262179793
2025-03-23 14:34:03.414,-3.794311513346784
2025-03-23 14:34:03.414,-1.2013019449711126
2025-03-23 14:34:03.414,1.5131147403304155
2025-03-23 14:34:03.415,3.018080619387733
2025-03-23 14:34:03.415,3.064429799319653
2025-03-23 14:34:03.422,1.652145118725982
2025-03-23 14:34:03.423,-0.917078186486272
2025-03-23 14:34:03.423,-3.2677528250173644
2025-03-23 14:34:03.423,-3.5400315273568523
2025-03-23 14:34:03.432,-1.3509599584875676
2025-03-23 14:34:03.433,1.5551742879796753
2025-03-23 14:34:03.433,3.1351766295355183
2025-03-23 14:34:03.433,2.908579941768671
2025-03-23 14:34:03.433,1.52466464390323
2025-03-23 14:34:03.433,-0.6130098747495001
2025-03-23 14:34:03.442,-3.121940479299358
2025-03-23 14:34:03.443,-4.489869109989749
2025-03-23 14:34:03.443,-2.796417687315648
2025-03-23 14:34:03.443,1.719276873063333
2025-03-23 14:34:03.452,5.752965986221829
2025-03-23 14:34:03.452,5.6367392977532935
2025-03-23 14:34:03.452,0.946405019057656
2025-03-23 14:34:03.453,-4.867621117774292
2025-03-23 14:34:03.453,-7.2408127665187605
2025-03-23 14:34:03.462,-4.014007281807915
2025-03-23 14:34:03.462,2.718501295300205
2025-03-23 14:34:03.463,7.658673854626219
2025-03-23 14:34:03.463,6.3391926816595445
2025-03-23 14:34:03.463,-0.4814455173712574
2025-03-23 14:34:03.472,-6.816521856763531
2025-03-23 14:34:03.472,-7.038700444710642
2025-03-23 14:34:03.473,-1.402768421876426
2025-03-23 14:34:03.473,4.6872867754077845
2025-03-23 14:34:03.473,6.313990032609455
2025-03-23 14:34:03.482,2.99284265774846
2025-03-23 14:34:03.482,-2.1064183704756445
2025-03-23 14:34:03.482,-5.13640524407419
2025-03-23 14:34:03.482,-4.015086286796077
2025-03-23 14:34:03.483,0.24139504174231394
2025-03-23 14:34:03.490,4.029950542761367
2025-03-23 14:34:03.491,4.109573225737314
2025-03-23 14:34:03.491,0.6745149290249118
2025-03-23 14:34:03.491,-2.9335066117161235
2025-03-23 14:34:03.491,-3.618090099432048
2025-03-23 14:34:03.502,-1.1906470394228776
2025-03-23 14:34:03.502,1.9950918630813166
2025-03-23 14:34:03.502,3.2214098563611913
2025-03-23 14:34:03.502,1.462544558288084
2025-03-23 14:34:03.503,-1.6760749999879658
2025-03-23 14:34:03.512,-3.034172533654484
2025-03-23 14:34:03.512,-0.9858397669928125
2025-03-23 14:34:03.512,2.279778550979945
2025-03-23 14:34:03.512,2.720019964432076
2025-03-23 14:34:03.513,-0.617267261800482
2025-03-23 14:34:03.522,-3.7317322742618195
2025-03-23 14:34:03.522,-2.2044922057133167
2025-03-23 14:34:03.522,2.8799908828604748
2025-03-23 14:34:03.523,5.488526740406174
2025-03-23 14:34:03.523,1.8262864664868461
2025-03-23 14:34:03.530,-4.581428915324843
2025-03-23 14:34:03.531,-6.615301363599716
2025-03-23 14:34:03.531,-1.844048263202946
2025-03-23 14:34:03.531,4.664811319461705
2025-03-23 14:34:03.531,6.235216923435087
2025-03-23 14:34:03.540,1.9267631374213903
2025-03-23 14:34:03.540,-3.1103097803223108
2025-03-23 14:34:03.540,-3.981786031214037
2025-03-23 14:34:03.541,-1.2361425379604025
2025-03-23 14:34:03.550,0.8616440131611552
2025-03-23 14:34:03.550,0.18780096251397252
2025-03-23 14:34:03.551,-0.7922521455081974
2025-03-23 14:34:03.551,0.9793573084190172
2025-03-23 14:34:03.551,4.087345278060771
2025-03-23 14:34:03.560,3.712548362640319
2025-03-23 14:34:03.560,-1.779517589485598
2025-03-23 14:34:03.561,-7.309285435078709
2025-03-23 14:34:03.561,-6.2186635267788954
2025-03-23 14:34:03.561,1.5022417247310558
2025-03-23 14:34:03.570,8.271624037760835
2025-03-23 14:34:03.570,7.059450537646545
2025-03-23 14:34:03.570,-0.770896445797361
2025-03-23 14:34:03.571,-7.017362815741579
2025-03-23 14:34:03.571,-5.694128148056556
2025-03-23 14:34:03.580,0.7064573451934711
2025-03-23 14:34:03.580,4.631922942225161
2025-03-23 14:34:03.580,2.3896498961261683
2025-03-23 14:34:03.581,-1.9674873871085747
2025-03-23 14:34:03.581,-2.317234835486842
2025-03-23 14:34:03.588,1.580056575074566
2025-03-23 14:34:03.589,4.016114817151936
2025-03-23 14:34:03.589,1.0378206017863307
2025-03-23 14:34:03.589,-4.274424092363044
2025-03-23 14:34:03.589,-5.621843087522787
2025-03-23 14:34:03.600,-1.141050227323674
2025-03-23 14:34:03.600,4.604707918183334
2025-03-23 14:34:03.600,5.934761758080981
2025-03-23 14:34:03.600,1.8845963034002842
2025-03-23 14:34:03.601,-3.3827049585422793
2025-03-23 14:34:03.608,-4.991199029928834
2025-03-23 14:34:03.609,-1.933971991558501
2025-03-23 14:34:03.609,2.2268136742177815
2025-03-23 14:34:03.609,3.192367517171911
2025-03-23 14:34:03.609,0.6027913313071542
2025-03-23 14:34:03.620,-1.751261285610334
2025-03-23 14:34:03.620,-0.8509414922601263
2025-03-23 14:34:03.620,1.567782067233992
2025-03-23 14:34:03.621,1.4811020452177435
2025-03-23 14:34:03.621,-1.5763594899579942
2025-03-23 14:34:03.630,-3.4491696145136017
2025-03-23 14:34:03.630,-0.9642627555461385
2025-03-23 14:34:03.630,3.3610189878118537
2025-03-23 14:34:03.630,4.219860758620842
2025-03-23 14:34:03.630,0.3583947539754291
2025-03-23 14:34:03.640,-3.784727165139616
2025-03-23 14:34:03.640,-3.700427281098718
2025-03-23 14:34:03.640,-0.11451818242340689
2025-03-23 14:34:03.640,2.625014572579949
2025-03-23 14:34:03.641,2.181403097938613
2025-03-23 14:34:03.648,0.31172420779423426
2025-03-23 14:34:03.648,-0.47135780153614654
2025-03-23 14:34:03.649,-0.2443541335216079
2025-03-23 14:34:03.649,-0.5877177810561452
2025-03-23 14:34:03.658,-1.500290386811843
2025-03-23 14:34:03.658,-1.2850637260116762
2025-03-23 14:34:03.659,0.5973264910462435
2025-03-23 14:34:03.659,2.2806041538948567
2025-03-23 14:34:03.659,1.8301945555951127
2025-03-23 14:34:03.668,-0.24662247351277794
2025-03-23 14:34:03.668,-1.7648003564909678
2025-03-23 14:34:03.669,-1.5296335905947356
2025-03-23 14:34:03.669,-0.29955721334664376
2025-03-23 14:34:03.669,0.6254230217714768
2025-03-23 14:34:03.678,0.8277684229923171
2025-03-23 14:34:03.679,0.6798834060273692
2025-03-23 14:34:03.679,0.5071889907529608
2025-03-23 14:34:03.679,0.17190970233897537
2025-03-23 14:34:03.679,-0.6256353209252008
2025-03-23 14:34:03.688,-1.590471946723803
2025-03-23 14:34:03.688,-1.5427689441880725
2025-03-23 14:34:03.689,0.33470450873725605
2025-03-23 14:34:03.689,2.7273799968470236
2025-03-23 14:34:03.689,2.8560401309847965
2025-03-23 14:34:03.698,-0.13190467651532856
2025-03-23 14:34:03.699,-3.3930471017044614
2025-03-23 14:34:03.699,-3.3845070600514537
2025-03-23 14:34:03.699,-0.15169554788467374
2025-03-23 14:34:03.699,2.80998111702974
2025-03-23 14:34:03.708,2.863365677462383
2025-03-23 14:34:03.708,0.889057514772863
2025-03-23 14:34:03.708,-0.7662583751942581
2025-03-23 14:34:03.708,-1.4654586913227587
2025-03-23 14:34:03.709,-2.054596973274671
2025-03-23 14:34:03.718,-2.296567828501771
2025-03-23 14:34:03.718,-0.5955713795018851
2025-03-23 14:34:03.718,3.0566170503160905
2025-03-23 14:34:03.719,5.409274494850097
2025-03-23 14:34:03.719,3.010369086887139
2025-03-23 14:34:03.728,-3.101495309479333
2025-03-23 14:34:03.728,-7.300165205462779
2025-03-23 14:34:03.728,-5.031964598507657
2025-03-23 14:34:03.729,1.9393550038420992
2025-03-23 14:34:03.729,7.041231823045666
2025-03-23 14:34:03.736,5.707040343438371
2025-03-23 14:34:03.737,-0.18140430778354438
2025-03-23 14:34:03.737,-4.848628970460945
2025-03-23 14:34:03.737,-4.6628741787809185
2025-03-23 14:34:03.737,-1.0003585086534217
2025-03-23 14:34:03.746,2.1722736128694686
2025-03-23 14:34:03.747,2.4537229408618497
2025-03-23 14:34:03.747,0.675909185622678
2025-03-23 14:34:03.747,-0.716224402102565
2025-03-23 14:34:03.756,-0.335585816201917
2025-03-23 14:34:03.757,0.9452622524025892
2025-03-23 14:34:03.757,1.134964877648417
2025-03-23 14:34:03.757,-0.5450945265305592
2025-03-23 14:34:03.757,-2.526767184310133
2025-03-23 14:34:03.766,-2.460870349167615
2025-03-23 14:34:03.766,0.013715036705474068
2025-03-23 14:34:03.767,2.6417159518143594
2025-03-23 14:34:03.767,3.0351433985288625
2025-03-23 14:34:03.767,1.2155707446352906
2025-03-23 14:34:03.776,-0.8894915779728995
2025-03-23 14:34:03.776,-1.9311294171265185
2025-03-23 14:34:03.777,-2.1135126573379273
2025-03-23 14:34:03.777,-1.8213778275876533
2025-03-23 14:34:03.777,-0.5857693448953556
2025-03-23 14:34:03.786,1.796809719541377
2025-03-23 14:34:03.786,3.8627754083302746
2025-03-23 14:34:03.787,3.396307323401322
2025-03-23 14:34:03.787,-0.03720739770088309
2025-03-23 14:34:03.787,-4.033576107552703
2025-03-23 14:34:03.796,-5.2131839246966205
2025-03-23 14:34:03.797,-2.2942783638941804
2025-03-23 14:34:03.797,2.5029297196094467
2025-03-23 14:34:03.797,5.201877366489987
2025-03-23 14:34:03.797,3.6500326275089123
2025-03-23 14:34:03.806,-0.46710879053691756
2025-03-23 14:34:03.806,-3.402857730275363
2025-03-23 14:34:03.806,-3.1123182742494055
2025-03-23 14:34:03.807,-0.8697629650525492
2025-03-23 14:34:03.807,0.8191837490857141
2025-03-23 14:34:03.816,1.117818038251037
2025-03-23 14:34:03.816,1.0279196964315431
2025-03-23 14:34:03.816,1.2150736280089058
2025-03-23 14:34:03.817,0.9530543569603777
2025-03-23 14:34:03.817,-0.3884795894338404
2025-03-23 14:34:03.826,-1.8608243576560866
2025-03-23 14:34:03.826,-1.901292213869898
2025-03-23 14:34:03.826,-0.37753991813014365
2025-03-23 14:34:03.827,1.2199862433334108
2025-03-23 14:34:03.827,1.5755294421643948
2025-03-23 14:34:03.836,0.8157088856791026
2025-03-23 14:34:03.836,-0.12072779983327682
2025-03-23 14:34:03.837,-0.6653733139383615
2025-03-23 14:34:03.837,-0.7736736752629463
2025-03-23 14:34:03.837,-0.48432677627180937
2025-03-23 14:34:03.846,0.015743545337581894
2025-03-23 14:34:03.846,0.24829236770101873
2025-03-23 14:34:03.846,0.06917053873488585
